'sample #','MLII','V2'
0,949,1034
1,949,1034
2,949,1034
3,949,1034
4,949,1034
5,949,1034
6,949,1034
7,949,1034
8,947,1034
9,947,1031
10,947,1031
11,948,1034
12,952,1037
13,952,1037
14,950,1032
15,951,1033
16,950,1031
17,952,1035
18,953,1038
19,955,1039
20,956,1037
21,955,1035
22,955,1038
23,958,1040
24,959,1042
25,962,1041
26,963,1042
27,962,1041
28,962,1041
29,964,1045
30,968,1048
31,974,1049
32,974,1048
33,975,1049
34,977,1051
35,980,1053
36,985,1056
37,991,1057
38,992,1059
39,992,1058
40,997,1060
41,1000,1066
42,1006,1070
43,1012,1071
44,1015,1072
45,1017,1075
46,1021,1075
47,1024,1079
48,1030,1084
49,1036,1083
50,1038,1087
51,1039,1087
52,1039,1091
53,1044,1094
54,1046,1094
55,1051,1095
56,1050,1095
57,1053,1094
58,1051,1095
59,1056,1098
60,1057,1102
61,1059,1103
62,1061,1101
63,1059,1098
64,1057,1097
65,1058,1100
66,1056,1101
67,1054,1099
68,1052,1098
69,1048,1093
70,1041,1093
71,1040,1091
72,1038,1090
73,1035,1086
74,1028,1080
75,1023,1077
76,1014,1074
77,1011,1072
78,1007,1069
79,1005,1065
80,999,1060
81,995,1057
82,991,1053
83,989,1051
84,987,1050
85,983,1049
86,981,1045
87,980,1041
88,978,1039
89,975,1040
90,976,1040
91,975,1039
92,975,1036
93,971,1032
94,971,1032
95,971,1034
96,972,1037
97,973,1034
98,970,1032
99,971,1030
100,969,1030
101,971,1031
102,969,1033
103,971,1033
104,970,1031
105,971,1029
106,968,1027
107,967,1028
108,969,1031
109,972,1033
110,974,1033
111,971,1032
112,970,1029
113,971,1033
114,976,1036
115,975,1036
116,974,1033
117,974,1032
118,973,1034
119,976,1035
120,978,1038
121,979,1038
122,978,1038
123,976,1034
124,976,1035
125,976,1037
126,980,1037
127,980,1039
128,980,1037
129,979,1036
130,976,1037
131,977,1038
132,981,1042
133,980,1038
134,978,1036
135,978,1037
136,977,1035
137,977,1037
138,980,1037
139,981,1040
140,978,1039
141,976,1038
142,974,1036
143,975,1036
144,976,1037
145,976,1038
146,977,1034
147,974,1033
148,973,1033
149,973,1034
150,974,1036
151,975,1034
152,973,1032
153,970,1030
154,970,1028
155,971,1028
156,972,1032
157,973,1029
158,970,1029
159,968,1029
160,966,1026
161,967,1027
162,967,1030
163,966,1026
164,966,1024
165,966,1022
166,964,1022
167,965,1023
168,964,1025
169,964,1024
170,963,1023
171,964,1020
172,960,1020
173,961,1022
174,961,1022
175,964,1022
176,962,1019
177,962,1017
178,959,1018
179,959,1020
180,960,1021
181,960,1021
182,962,1018
183,959,1015
184,959,1016
185,960,1016
186,961,1020
187,965,1017
188,969,1018
189,968,1015
190,968,1016
191,971,1019
192,973,1021
193,975,1021
194,976,1019
195,977,1017
196,975,1018
197,976,1021
198,977,1023
199,981,1022
200,981,1020
201,981,1018
202,978,1019
203,980,1020
204,982,1022
205,983,1020
206,981,1021
207,981,1017
208,975,1016
209,973,1016
210,974,1016
211,972,1012
212,970,1010
213,970,1007
214,970,1004
215,973,1006
216,974,1013
217,973,1013
218,972,1017
219,965,1017
220,961,1015
221,960,1019
222,959,1018
223,958,1017
224,956,1015
225,953,1010
226,948,1010
227,947,1012
228,948,1014
229,948,1013
230,945,1011
231,942,1009
232,943,1007
233,942,1009
234,943,1011
235,944,1009
236,946,1008
237,943,1008
238,940,1008
239,942,1011
240,944,1012
241,944,1012
242,945,1011
243,943,1012
244,942,1011
245,943,1012
246,944,1014
247,943,1014
248,943,1012
249,940,1009
250,935,1010
251,929,1013
252,916,1013
253,908,1007
254,906,1003
255,914,1002
256,927,1009
257,946,1017
258,982,1026
259,1042,1043
260,1118,1071
261,1194,1110
262,1262,1158
263,1326,1206
264,1374,1256
265,1394,1297
266,1384,1311
267,1341,1300
268,1252,1258
269,1148,1188
270,1050,1100
271,977,1018
272,936,955
273,920,929
274,919,928
275,927,942
276,943,964
277,958,985
278,965,1004
279,960,1016
280,952,1020
281,949,1022
282,949,1020
283,948,1017
284,948,1016
285,945,1015
286,940,1014
287,938,1015
288,937,1016
289,938,1013
290,937,1012
291,934,1012
292,931,1009
293,932,1013
294,934,1014
295,935,1014
296,932,1012
297,931,1012
298,927,1012
299,930,1014
300,933,1015
301,931,1013
302,932,1011
303,930,1012
304,929,1013
305,931,1015
306,929,1018
307,929,1015
308,930,1016
309,931,1014
310,927,1014
311,930,1017
312,932,1019
313,933,1020
314,936,1016
315,932,1016
316,930,1016
317,934,1017
318,938,1019
319,937,1020
320,937,1020
321,937,1020
322,936,1020
323,939,1023
324,942,1025
325,945,1023
326,946,1024
327,944,1023
328,944,1024
329,946,1025
330,950,1031
331,955,1030
332,956,1031
333,956,1029
334,955,1030
335,960,1035
336,966,1040
337,969,1036
338,972,1037
339,973,1039
340,976,1040
341,982,1046
342,987,1052
343,992,1051
344,997,1054
345,998,1055
346,999,1055
347,1004,1060
348,1010,1064
349,1016,1065
350,1016,1066
351,1019,1068
352,1023,1069
353,1027,1072
354,1031,1077
355,1036,1079
356,1035,1076
357,1036,1078
358,1038,1079
359,1041,1080
360,1045,1084
361,1047,1084
362,1046,1084
363,1046,1084
364,1043,1083
365,1044,1085
366,1043,1088
367,1042,1083
368,1041,1081
369,1035,1079
370,1033,1076
371,1030,1076
372,1027,1076
373,1022,1073
374,1018,1068
375,1011,1065
376,1006,1062
377,1001,1058
378,998,1058
379,994,1052
380,988,1047
381,981,1044
382,976,1041
383,974,1037
384,972,1038
385,970,1032
386,969,1030
387,963,1026
388,961,1022
389,959,1025
390,961,1024
391,962,1023
392,962,1021
393,954,1018
394,955,1017
395,954,1018
396,958,1021
397,959,1017
398,958,1016
399,955,1013
400,954,1011
401,955,1014
402,954,1016
403,956,1015
404,955,1015
405,954,1014
406,953,1010
407,954,1013
408,958,1016
409,958,1014
410,958,1015
411,958,1014
412,957,1014
413,959,1016
414,960,1020
415,961,1016
416,961,1015
417,960,1015
418,958,1014
419,961,1015
420,962,1021
421,964,1023
422,964,1021
423,962,1016
424,960,1019
425,962,1018
426,963,1020
427,965,1019
428,965,1020
429,965,1019
430,961,1020
431,962,1022
432,965,1022
433,965,1021
434,964,1020
435,962,1019
436,963,1019
437,962,1020
438,963,1022
439,965,1020
440,964,1019
441,961,1016
442,959,1017
443,958,1020
444,961,1018
445,962,1017
446,961,1018
447,959,1014
448,957,1015
449,958,1016
450,959,1017
451,960,1016
452,957,1014
453,958,1011
454,956,1011
455,954,1010
456,955,1013
457,956,1012
458,956,1010
459,954,1009
460,953,1009
461,954,1009
462,955,1010
463,955,1008
464,955,1006
465,954,1004
466,949,1003
467,951,1004
468,952,1007
469,950,1006
470,951,1004
471,951,1002
472,948,1002
473,947,1001
474,949,1003
475,950,1003
476,949,1001
477,947,1002
478,944,999
479,948,1001
480,947,1003
481,949,1002
482,950,1000
483,946,998
484,944,997
485,945,999
486,949,1001
487,948,1001
488,947,999
489,947,997
490,945,995
491,944,998
492,945,1000
493,947,1001
494,948,998
495,947,997
496,947,995
497,949,998
498,952,999
499,953,999
500,957,999
501,957,998
502,961,998
503,962,999
504,962,1002
505,962,1002
506,961,997
507,963,1000
508,962,998
509,967,1001
510,970,1002
511,971,1002
512,972,998
513,970,997
514,969,998
515,971,1000
516,974,1003
517,974,1000
518,971,1000
519,969,998
520,965,994
521,961,995
522,962,994
523,961,992
524,961,989
525,962,987
526,960,989
527,962,995
528,964,1001
529,960,1002
530,956,1001
531,953,1001
532,949,1001
533,948,1000
534,948,1002
535,946,1000
536,943,997
537,943,995
538,940,995
539,938,994
540,939,995
541,938,995
542,937,992
543,934,993
544,934,990
545,934,993
546,934,995
547,937,992
548,936,993
549,936,993
550,932,993
551,933,995
552,934,997
553,934,995
554,936,995
555,934,992
556,933,991
557,934,993
558,937,996
559,937,995
560,935,994
561,932,994
562,922,995
563,910,993
564,900,990
565,897,987
566,906,988
567,917,992
568,933,996
569,969,1009
570,1033,1027
571,1113,1061
572,1199,1104
573,1270,1152
574,1331,1203
575,1374,1256
576,1392,1291
577,1370,1293
578,1297,1259
579,1182,1183
580,1063,1083
581,972,991
582,927,931
583,914,909
584,916,913
585,923,932
586,940,956
587,953,983
588,956,1002
589,949,1005
590,945,1002
591,941,998
592,941,997
593,941,999
594,943,1000
595,938,1000
596,933,996
597,929,994
598,925,991
599,925,993
600,927,996
601,927,994
602,927,994
603,922,994
604,921,993
605,920,994
606,924,996
607,925,996
608,924,997
609,926,995
610,922,995
611,924,997
612,925,1000
613,927,1000
614,925,997
615,925,995
616,922,993
617,924,998
618,926,1000
619,928,1002
620,926,1003
621,929,1000
622,925,999
623,930,1001
624,930,1004
625,930,1003
626,932,1002
627,931,1001
628,933,1004
629,935,1005
630,937,1009
631,942,1011
632,943,1005
633,942,1007
634,942,1009
635,944,1012
636,948,1016
637,953,1015
638,956,1017
639,958,1016
640,958,1018
641,965,1023
642,969,1029
643,971,1027
644,975,1029
645,978,1030
646,981,1031
647,986,1036
648,991,1039
649,998,1042
650,1004,1047
651,1004,1047
652,1007,1047
653,1011,1051
654,1014,1055
655,1020,1055
656,1022,1058
657,1023,1059
658,1023,1060
659,1029,1064
660,1030,1067
661,1038,1067
662,1038,1068
663,1036,1070
664,1035,1068
665,1038,1071
666,1039,1072
667,1039,1071
668,1036,1069
669,1033,1066
670,1027,1063
671,1027,1064
672,1026,1064
673,1023,1060
674,1021,1057
675,1009,1052
676,1005,1048
677,1001,1046
678,999,1045
679,996,1042
680,991,1036
681,983,1033
682,978,1029
683,974,1026
684,972,1024
685,970,1020
686,968,1017
687,963,1013
688,960,1012
689,959,1012
690,960,1011
691,957,1011
692,958,1006
693,953,1002
694,952,1001
695,953,1001
696,955,1001
697,955,1002
698,954,1002
699,954,999
700,953,997
701,955,1001
702,956,1003
703,955,1003
704,955,999
705,954,996
706,953,994
707,954,999
708,956,1000
709,958,1002
710,957,1001
711,957,1000
712,955,998
713,956,1002
714,957,1003
715,959,1002
716,958,1001
717,956,998
718,956,999
719,959,1003
720,958,1008
721,960,1004
722,961,1004
723,959,1005
724,957,1003
725,957,1005
726,959,1006
727,962,1005
728,962,1002
729,960,1001
730,957,1000
731,960,1002
732,960,1007
733,961,1005
734,962,1005
735,957,1002
736,959,1005
737,957,1006
738,961,1009
739,958,1006
740,960,1003
741,957,1001
742,957,1001
743,958,1004
744,959,1002
745,961,1003
746,961,1001
747,960,999
748,955,997
749,957,999
750,958,997
751,957,995
752,957,995
753,955,994
754,954,992
755,954,995
756,953,996
757,954,994
758,953,990
759,951,989
760,949,987
761,951,991
762,950,995
763,952,991
764,951,989
765,947,986
766,947,987
767,948,987
768,950,987
769,949,986
770,949,987
771,947,982
772,945,985
773,946,985
774,947,987
775,945,984
776,945,985
777,943,983
778,942,981
779,942,984
780,943,986
781,944,984
782,944,983
783,942,981
784,942,981
785,942,984
786,943,986
787,943,983
788,943,983
789,944,981
790,944,980
791,944,983
792,947,984
793,947,983
794,948,984
795,943,982
796,943,980
797,945,982
798,945,985
799,947,982
800,951,983
801,950,983
802,954,980
803,957,985
804,958,986
805,960,987
806,961,986
807,958,986
808,957,985
809,960,987
810,962,988
811,966,986
812,966,984
813,963,982
814,961,983
815,964,985
816,968,986
817,966,985
818,966,985
819,964,982
820,960,982
821,959,983
822,955,981
823,955,978
824,956,973
825,954,973
826,955,974
827,956,975
828,960,980
829,959,984
830,956,982
831,951,983
832,947,984
833,946,985
834,948,988
835,947,985
836,945,982
837,941,980
838,938,979
839,938,982
840,935,983
841,935,981
842,933,979
843,933,976
844,933,977
845,935,980
846,937,981
847,937,981
848,934,979
849,931,978
850,930,979
851,932,978
852,934,980
853,935,979
854,936,979
855,935,981
856,933,980
857,933,976
858,934,980
859,935,978
860,934,980
861,933,979
862,929,977
863,921,980
864,910,979
865,904,973
866,907,975
867,917,979
868,930,986
869,952,994
870,990,1009
871,1058,1034
872,1131,1070
873,1204,1113
874,1267,1159
875,1325,1204
876,1361,1244
877,1364,1260
878,1325,1249
879,1236,1201
880,1122,1121
881,1019,1033
882,951,968
883,919,924
884,909,909
885,910,916
886,928,935
887,948,962
888,957,985
889,955,993
890,945,992
891,942,987
892,938,983
893,941,984
894,940,989
895,939,988
896,936,986
897,930,983
898,929,982
899,928,983
900,929,985
901,929,985
902,928,984
903,927,981
904,925,982
905,927,984
906,927,985
907,926,981
908,928,984
909,926,982
910,927,983
911,928,986
912,930,987
913,929,985
914,927,983
915,926,980
916,926,983
917,926,987
918,929,992
919,928,988
920,930,987
921,928,985
922,926,984
923,927,984
924,933,987
925,934,988
926,934,988
927,933,988
928,929,990
929,935,992
930,937,994
931,939,992
932,939,989
933,937,990
934,938,991
935,942,994
936,944,998
937,948,998
938,949,999
939,951,998
940,953,999
941,957,1002
942,961,1003
943,965,1005
944,966,1007
945,970,1010
946,972,1013
947,976,1014
948,981,1021
949,983,1021
950,988,1022
951,990,1022
952,992,1023
953,998,1030
954,1003,1033
955,1006,1035
956,1010,1035
957,1012,1039
958,1013,1040
959,1015,1042
960,1019,1046
961,1025,1047
962,1026,1048
963,1026,1050
964,1027,1051
965,1031,1055
966,1032,1058
967,1035,1058
968,1036,1057
969,1031,1055
970,1030,1054
971,1033,1054
972,1031,1056
973,1032,1056
974,1030,1057
975,1025,1055
976,1022,1049
977,1018,1047
978,1016,1048
979,1013,1045
980,1005,1037
981,1003,1034
982,997,1031
983,993,1030
984,990,1030
985,989,1026
986,984,1021
987,979,1016
988,972,1013
989,971,1011
990,970,1010
991,971,1005
992,967,1001
993,964,998
994,962,997
995,961,998
996,963,999
997,964,996
998,961,993
999,957,991
1000,955,993
1001,959,994
1002,958,990
1003,959,992
1004,958,987
1005,955,990
1006,957,990
1007,957,990
1008,958,991
1009,957,989
1010,957,989
1011,954,986
1012,956,989
1013,957,988
1014,958,988
1015,957,989
1016,959,988
1017,958,989
1018,960,989
1019,960,992
1020,961,992
1021,960,991
1022,961,989
1023,962,988
1024,963,993
1025,964,993
1026,965,995
1027,963,994
1028,962,994
1029,965,994
1030,965,993
1031,964,998
1032,966,995
1033,967,996
1034,967,994
1035,965,997
1036,966,997
1037,967,999
1038,968,998
1039,968,997
1040,967,995
1041,965,997
1042,967,999
1043,967,1002
1044,966,998
1045,968,997
1046,967,995
1047,966,998
1048,965,997
1049,969,1000
1050,967,998
1051,965,996
1052,965,996
1053,964,993
1054,964,994
1055,965,996
1056,965,995
1057,963,994
1058,960,991
1059,960,992
1060,960,992
1061,962,994
1062,962,991
1063,960,991
1064,959,989
1065,956,987
1066,958,990
1067,958,992
1068,957,989
1069,955,985
1070,954,985
1071,953,986
1072,953,985
1073,955,986
1074,955,984
1075,954,980
1076,953,980
1077,949,981
1078,951,981
1079,952,982
1080,953,983
1081,952,980
1082,951,980
1083,949,979
1084,950,981
1085,952,984
1086,952,981
1087,950,981
1088,949,979
1089,948,977
1090,948,979
1091,950,981
1092,951,980
1093,951,980
1094,949,979
1095,948,975
1096,948,978
1097,950,981
1098,953,979
1099,953,977
1100,949,978
1101,948,978
1102,950,979
1103,950,979
1104,953,977
1105,953,978
1106,956,975
1107,955,976
1108,958,977
1109,964,981
1110,965,979
1111,966,978
1112,964,977
1113,964,975
1114,966,981
1115,967,981
1116,970,981
1117,973,981
1118,972,979
1119,970,977
1120,969,980
1121,974,981
1122,977,978
1123,977,977
1124,974,976
1125,971,976
1126,968,975
1127,968,976
1128,966,973
1129,962,967
1130,961,967
1131,961,966
1132,964,969
1133,967,973
1134,968,977
1135,963,978
1136,961,979
1137,956,979
1138,954,979
1139,955,980
1140,953,977
1141,948,974
1142,945,973
1143,944,976
1144,947,976
1145,945,975
1146,944,974
1147,943,971
1148,940,971
1149,937,970
1150,941,973
1151,940,974
1152,939,974
1153,939,972
1154,938,972
1155,938,971
1156,938,974
1157,938,975
1158,941,975
1159,939,973
1160,937,973
1161,937,972
1162,939,975
1163,940,977
1164,939,974
1165,940,974
1166,937,974
1167,931,975
1168,923,974
1169,913,975
1170,907,969
1171,913,972
1172,925,976
1173,942,986
1174,978,999
1175,1039,1021
1176,1121,1054
1177,1204,1098
1178,1278,1144
1179,1337,1194
1180,1378,1236
1181,1388,1260
1182,1355,1253
1183,1273,1210
1184,1156,1129
1185,1041,1033
1186,957,953
1187,916,911
1188,912,902
1189,921,913
1190,939,931
1191,954,958
1192,959,979
1193,958,989
1194,951,989
1195,946,986
1196,944,979
1197,945,977
1198,942,982
1199,940,984
1200,937,980
1201,936,978
1202,934,976
1203,933,974
1204,932,976
1205,933,978
1206,934,978
1207,932,976
1208,928,975
1209,928,977
1210,931,980
1211,931,982
1212,932,981
1213,931,980
1214,931,979
1215,930,979
1216,931,981
1217,930,981
1218,930,980
1219,930,980
1220,930,981
1221,928,981
1222,930,984
1223,934,987
1224,934,984
1225,933,984
1226,933,980
1227,933,983
1228,932,984
1229,935,987
1230,938,985
1231,937,985
1232,939,986
1233,938,985
1234,939,988
1235,943,991
1236,944,990
1237,947,991
1238,947,989
1239,949,992
1240,949,994
1241,951,993
1242,956,997
1243,957,997
1244,959,997
1245,961,999
1246,966,1003
1247,971,1008
1248,975,1010
1249,980,1008
1250,981,1010
1251,982,1012
1252,987,1016
1253,993,1019
1254,998,1021
1255,1002,1021
1256,1006,1023
1257,1006,1026
1258,1012,1029
1259,1019,1035
1260,1022,1035
1261,1023,1037
1262,1027,1040
1263,1026,1040
1264,1033,1045
1265,1039,1047
1266,1040,1047
1267,1044,1050
1268,1041,1045
1269,1043,1048
1270,1046,1050
1271,1049,1055
1272,1048,1054
1273,1051,1053
1274,1048,1048
1275,1043,1049
1276,1043,1049
1277,1045,1050
1278,1044,1049
1279,1041,1047
1280,1035,1042
1281,1027,1040
1282,1026,1039
1283,1023,1036
1284,1020,1033
1285,1013,1029
1286,1009,1027
1287,1001,1022
1288,999,1023
1289,996,1018
1290,993,1015
1291,988,1011
1292,982,1005
1293,977,1003
1294,977,1002
1295,974,999
1296,974,999
1297,970,992
1298,968,990
1299,966,988
1300,961,989
1301,964,991
1302,963,990
1303,963,986
1304,961,982
1305,958,981
1306,958,985
1307,960,984
1308,959,983
1309,961,983
1310,957,979
1311,955,981
1312,958,982
1313,960,983
1314,961,983
1315,959,981
1316,958,978
1317,956,979
1318,960,982
1319,961,982
1320,963,983
1321,962,981
1322,961,981
1323,960,981
1324,964,983
1325,965,984
1326,966,985
1327,964,985
1328,962,984
1329,962,984
1330,964,988
1331,966,988
1332,966,990
1333,967,987
1334,966,987
1335,965,988
1336,967,988
1337,970,992
1338,969,991
1339,969,991
1340,968,988
1341,966,989
1342,966,990
1343,968,993
1344,968,991
1345,970,992
1346,968,987
1347,965,987
1348,966,989
1349,970,990
1350,967,991
1351,967,987
1352,966,983
1353,964,985
1354,967,987
1355,966,990
1356,965,989
1357,963,986
1358,963,985
1359,961,984
1360,964,987
1361,964,983
1362,964,986
1363,962,983
1364,961,981
1365,957,980
1366,960,980
1367,962,984
1368,961,981
1369,959,978
1370,959,978
1371,956,978
1372,957,978
1373,957,978
1374,958,978
1375,956,974
1376,955,973
1377,954,974
1378,955,977
1379,957,979
1380,957,975
1381,955,974
1382,949,972
1383,950,972
1384,952,972
1385,955,975
1386,954,974
1387,953,971
1388,951,969
1389,948,970
1390,950,974
1391,951,974
1392,952,974
1393,950,973
1394,950,972
1395,949,972
1396,950,972
1397,950,975
1398,951,975
1399,950,972
1400,948,970
1401,948,973
1402,949,972
1403,951,976
1404,952,973
1405,951,972
1406,953,968
1407,953,970
1408,953,974
1409,957,975
1410,962,976
1411,962,973
1412,964,973
1413,965,972
1414,965,975
1415,968,979
1416,969,978
1417,970,976
1418,970,975
1419,971,975
1420,972,978
1421,973,976
1422,973,974
1423,975,976
1424,976,974
1425,973,974
1426,975,977
1427,974,978
1428,972,973
1429,969,974
1430,966,969
1431,962,968
1432,960,967
1433,963,969
1434,966,967
1435,967,965
1436,966,967
1437,963,974
1438,962,979
1439,959,981
1440,957,978
1441,957,978
1442,952,976
1443,948,974
1444,947,975
1445,948,973
1446,946,973
1447,943,972
1448,940,969
1449,938,969
1450,939,969
1451,940,972
1452,938,968
1453,939,968
1454,936,966
1455,937,969
1456,939,971
1457,938,971
1458,939,973
1459,939,971
1460,938,968
1461,936,969
1462,935,970
1463,940,973
1464,941,972
1465,939,972
1466,939,972
1467,935,971
1468,934,973
1469,928,973
1470,918,970
1471,908,964
1472,906,962
1473,911,965
1474,928,973
1475,952,984
1476,994,995
1477,1060,1016
1478,1142,1054
1479,1221,1103
1480,1298,1157
1481,1357,1209
1482,1388,1256
1483,1389,1279
1484,1355,1273
1485,1267,1225
1486,1152,1145
1487,1042,1048
1488,968,962
1489,928,907
1490,918,891
1491,923,903
1492,939,924
1493,955,950
1494,965,969
1495,961,982
1496,950,984
1497,944,982
1498,946,980
1499,947,980
1500,947,980
1501,942,976
1502,938,976
1503,935,974
1504,935,974
1505,937,974
1506,937,978
1507,933,973
1508,931,972
1509,930,973
1510,931,974
1511,933,977
1512,933,976
1513,933,976
1514,931,975
1515,928,974
1516,929,978
1517,931,980
1518,931,979
1519,931,975
1520,932,973
1521,929,976
1522,930,979
1523,931,982
1524,934,978
1525,934,981
1526,932,977
1527,930,979
1528,933,978
1529,935,982
1530,936,981
1531,937,982
1532,937,981
1533,936,981
1534,935,984
1535,938,986
1536,942,985
1537,942,984
1538,942,986
1539,943,986
1540,944,987
1541,948,993
1542,951,991
1543,952,991
1544,953,990
1545,955,993
1546,958,995
1547,963,998
1548,964,1002
1549,967,1001
1550,970,1002
1551,972,1004
1552,978,1009
1553,980,1011
1554,984,1015
1555,987,1014
1556,992,1017
1557,994,1018
1558,1000,1019
1559,1005,1024
1560,1009,1029
1561,1014,1029
1562,1017,1031
1563,1017,1035
1564,1023,1038
1565,1029,1041
1566,1031,1043
1567,1034,1041
1568,1033,1043
1569,1036,1045
1570,1038,1045
1571,1042,1051
1572,1045,1051
1573,1047,1052
1574,1048,1050
1575,1046,1051
1576,1048,1054
1577,1048,1055
1578,1050,1055
1579,1050,1051
1580,1045,1052
1581,1041,1050
1582,1042,1053
1583,1040,1048
1584,1036,1047
1585,1031,1043
1586,1023,1039
1587,1019,1038
1588,1019,1036
1589,1015,1031
1590,1011,1029
1591,1003,1022
1592,995,1018
1593,991,1014
1594,988,1013
1595,985,1010
1596,980,1007
1597,976,1003
1598,974,998
1599,970,996
1600,968,995
1601,968,993
1602,969,992
1603,967,990
1604,963,987
1605,960,985
1606,960,987
1607,962,985
1608,961,983
1609,962,981
1610,959,979
1611,954,977
1612,954,980
1613,958,982
1614,959,983
1615,959,982
1616,956,979
1617,955,977
1618,958,979
1619,958,981
1620,958,984
1621,960,979
1622,956,978
1623,956,980
1624,959,980
1625,963,981
1626,961,982
1627,963,981
1628,962,980
1629,961,982
1630,963,982
1631,964,986
1632,965,985
1633,964,986
1634,964,985
1635,962,983
1636,964,986
1637,966,988
1638,969,989
1639,967,988
1640,965,986
1641,964,988
1642,965,988
1643,970,992
1644,969,990
1645,969,988
1646,965,987
1647,965,985
1648,966,988
1649,969,986
1650,967,988
1651,970,987
1652,966,984
1653,966,984
1654,967,985
1655,969,986
1656,970,985
1657,967,985
1658,966,981
1659,963,984
1660,965,984
1661,965,985
1662,966,986
1663,966,984
1664,963,980
1665,962,978
1666,962,981
1667,964,983
1668,961,982
1669,962,981
1670,960,979
1671,958,979
1672,960,980
1673,958,984
1674,962,981
1675,959,980
1676,957,979
1677,955,976
1678,957,976
1679,956,980
1680,958,980
1681,956,975
1682,954,976
1683,953,975
1684,953,976
1685,957,978
1686,957,976
1687,955,973
1688,954,972
1689,951,972
1690,951,976
1691,951,972
1692,955,973
1693,952,970
1694,952,967
1695,951,969
1696,950,970
1697,951,971
1698,954,969
1699,954,967
1700,950,969
1701,950,969
1702,952,971
1703,955,972
1704,954,975
1705,952,971
1706,950,969
1707,949,970
1708,952,970
1709,952,972
1710,954,971
1711,955,969
1712,953,967
1713,954,969
1714,958,973
1715,961,973
1716,966,974
1717,966,971
1718,965,970
1719,965,971
1720,966,975
1721,970,974
1722,972,974
1723,973,972
1724,971,974
1725,970,973
1726,973,974
1727,975,977
1728,975,975
1729,974,974
1730,975,973
1731,974,975
1732,976,976
1733,976,978
1734,974,975
1735,970,974
1736,969,970
1737,965,967
1738,962,967
1739,964,966
1740,968,964
1741,968,965
1742,968,966
1743,968,968
1744,966,977
1745,964,979
1746,962,980
1747,959,978
1748,954,974
1749,954,977
1750,951,976
1751,951,978
1752,950,974
1753,948,972
1754,948,968
1755,944,972
1756,943,973
1757,941,973
1758,941,971
1759,940,970
1760,939,968
1761,935,967
1762,936,969
1763,940,973
1764,939,971
1765,939,968
1766,938,970
1767,938,968
1768,940,973
1769,942,972
1770,941,972
1771,937,971
1772,941,969
1773,940,967
1774,941,969
1775,941,973
1776,942,973
1777,942,972
1778,940,971
1779,934,971
1780,930,972
1781,918,971
1782,908,968
1783,905,963
1784,912,964
1785,921,970
1786,938,980
1787,967,989
1788,1013,999
1789,1078,1021
1790,1144,1053
1791,1211,1097
1792,1277,1142
1793,1339,1192
1794,1381,1239
1795,1399,1275
1796,1384,1285
1797,1335,1266
1798,1242,1217
1799,1134,1138
1800,1040,1047
1801,970,965
1802,936,912
1803,922,889
1804,922,892
1805,927,907
1806,942,923
1807,955,945
1808,962,963
1809,959,973
1810,955,981
1811,953,986
1812,949,981
1813,949,978
1814,945,977
1815,942,978
1816,945,981
1817,944,981
1818,940,976
1819,937,975
1820,935,974
1821,933,974
1822,932,975
1823,935,979
1824,932,978
1825,934,975
1826,931,974
1827,930,973
1828,932,978
1829,936,980
1830,934,977
1831,932,977
1832,932,975
1833,927,973
1834,931,976
1835,931,977
1836,933,977
1837,932,979
1838,930,974
1839,930,975
1840,933,978
1841,932,981
1842,933,981
1843,935,980
1844,934,981
1845,931,980
1846,935,981
1847,937,983
1848,940,981
1849,938,984
1850,938,983
1851,935,983
1852,937,986
1853,941,988
1854,942,988
1855,942,987
1856,941,987
1857,943,986
1858,942,989
1859,946,991
1860,948,989
1861,951,987
1862,951,989
1863,952,991
1864,952,992
1865,959,996
1866,961,998
1867,965,995
1868,966,998
1869,966,1000
1870,969,1004
1871,974,1009
1872,979,1010
1873,983,1009
1874,983,1010
1875,987,1014
1876,990,1018
1877,996,1021
1878,999,1023
1879,1000,1025
1880,1004,1023
1881,1005,1027
1882,1009,1029
1883,1016,1034
1884,1020,1036
1885,1023,1037
1886,1023,1035
1887,1023,1036
1888,1028,1040
1889,1033,1045
1890,1038,1044
1891,1040,1045
1892,1039,1047
1893,1041,1049
1894,1045,1054
1895,1048,1057
1896,1050,1055
1897,1049,1055
1898,1047,1053
1899,1047,1052
1900,1049,1053
1901,1049,1058
1902,1051,1059
1903,1047,1056
1904,1043,1055
1905,1040,1053
1906,1038,1053
1907,1037,1052
1908,1033,1049
1909,1027,1046
1910,1024,1042
1911,1015,1040
1912,1016,1038
1913,1010,1036
1914,1008,1034
1915,1004,1028
1916,996,1022
1917,992,1021
1918,987,1018
1919,987,1018
1920,985,1016
1921,982,1009
1922,979,1007
1923,973,1005
1924,975,1003
1925,972,1002
1926,971,1000
1927,969,997
1928,967,995
1929,963,992
1930,966,992
1931,965,995
1932,967,992
1933,963,989
1934,959,987
1935,959,985
1936,958,986
1937,962,986
1938,961,986
1939,962,983
1940,959,982
1941,959,983
1942,959,984
1943,960,988
1944,959,988
1945,959,987
1946,960,985
1947,960,988
1948,962,989
1949,964,990
1950,965,992
1951,961,990
1952,964,986
1953,962,985
1954,962,988
1955,964,988
1956,966,990
1957,966,988
1958,966,989
1959,963,987
1960,967,991
1961,968,996
1962,969,993
1963,969,992
1964,969,991
1965,968,992
1966,967,993
1967,970,994
1968,970,996
1969,970,993
1970,969,990
1971,968,994
1972,970,996
1973,970,998
1974,970,998
1975,970,995
1976,970,993
1977,968,993
1978,969,995
1979,971,999
1980,971,999
1981,970,995
1982,968,995
1983,967,995
1984,968,996
1985,967,996
1986,967,993
1987,968,993
1988,966,989
1989,964,992
1990,965,992
1991,968,995
1992,968,994
1993,969,994
1994,964,991
1995,962,993
1996,964,992
1997,965,992
1998,964,991
1999,964,985
2000,962,986
2001,960,989
2002,960,993
2003,962,991
2004,963,991
2005,960,987
2006,961,985
2007,956,983
2008,958,984
2009,960,987
2010,959,984
2011,958,986
2012,958,984
2013,956,983
2014,957,983
2015,956,987
2016,958,986
2017,956,982
2018,956,980
2019,951,978
2020,954,983
2021,953,983
2022,955,982
2023,953,977
2024,951,979
2025,952,975
2026,951,979
2027,952,981
2028,953,980
2029,953,977
2030,952,976
2031,949,976
2032,951,978
2033,950,981
2034,952,980
2035,953,979
2036,950,979
2037,949,978
2038,952,981
2039,952,981
2040,954,978
2041,954,975
2042,950,975
2043,949,975
2044,951,976
2045,952,981
2046,952,978
2047,952,978
2048,952,977
2049,951,976
2050,954,979
2051,959,981
2052,961,978
2053,963,979
2054,964,978
2055,963,977
2056,965,981
2057,967,984
2058,969,981
2059,967,980
2060,969,979
2061,969,980
2062,973,980
2063,976,984
2064,975,983
2065,976,981
2066,974,979
2067,975,983
2068,977,985
2069,977,987
2070,975,984
2071,973,982
2072,967,976
2073,962,972
2074,961,972
2075,962,973
2076,966,972
2077,966,973
2078,966,972
2079,963,978
2080,962,983
2081,960,987
2082,958,988
2083,954,983
2084,953,981
2085,950,982
2086,951,984
2087,950,986
2088,947,982
2089,945,980
2090,943,976
2091,942,977
2092,942,977
2093,944,980
2094,944,978
2095,942,976
2096,938,976
2097,936,976
2098,939,976
2099,938,980
2100,939,979
2101,941,976
2102,939,975
2103,940,978
2104,941,979
2105,944,982
2106,943,979
2107,942,978
2108,941,979
2109,941,980
2110,943,981
2111,944,985
2112,942,986
2113,940,982
2114,929,981
2115,918,976
2116,912,978
2117,912,978
2118,923,981
2119,936,989
2120,961,993
2121,1003,1003
2122,1068,1028
2123,1138,1066
2124,1206,1110
2125,1275,1154
2126,1331,1196
2127,1364,1239
2128,1378,1267
2129,1358,1267
2130,1291,1240
2131,1193,1184
2132,1094,1109
2133,1014,1031
2134,958,966
2135,929,927
2136,919,915
2137,920,915
2138,933,931
2139,951,955
2140,961,980
2141,965,994
2142,955,996
2143,949,990
2144,946,984
2145,945,987
2146,949,990
2147,948,992
2148,944,992
2149,939,989
2150,938,984
2151,935,983
2152,937,986
2153,938,988
2154,938,985
2155,939,985
2156,935,986
2157,935,984
2158,933,987
2159,935,990
2160,938,991
2161,938,987
2162,934,988
2163,932,987
2164,935,988
2165,935,987
2166,937,988
2167,936,986
2168,935,984
2169,933,987
2170,934,988
2171,937,991
2172,939,991
2173,937,989
2174,935,990
2175,934,990
2176,936,992
2177,939,993
2178,940,993
2179,939,989
2180,939,990
2181,938,990
2182,941,993
2183,943,992
2184,944,993
2185,945,990
2186,944,993
2187,944,994
2188,948,996
2189,950,996
2190,950,998
2191,951,996
2192,952,997
2193,951,998
2194,956,1001
2195,959,1003
2196,962,1004
2197,963,1004
2198,964,1007
2199,967,1009
2200,971,1011
2201,975,1017
2202,979,1018
2203,981,1021
2204,980,1019
2205,985,1023
2206,991,1024
2207,995,1031
2208,1000,1032
2209,1002,1032
2210,1002,1035
2211,1006,1035
2212,1011,1039
2213,1016,1045
2214,1020,1045
2215,1022,1046
2216,1025,1049
2217,1027,1051
2218,1032,1054
2219,1033,1057
2220,1038,1058
2221,1038,1058
2222,1037,1059
2223,1039,1059
2224,1039,1061
2225,1044,1062
2226,1047,1065
2227,1048,1063
2228,1045,1061
2229,1042,1062
2230,1044,1061
2231,1045,1064
2232,1043,1062
2233,1039,1057
2234,1036,1057
2235,1029,1056
2236,1026,1057
2237,1027,1054
2238,1023,1049
2239,1015,1045
2240,1008,1042
2241,1004,1036
2242,1001,1036
2243,1002,1034
2244,997,1030
2245,991,1026
2246,986,1021
2247,985,1016
2248,984,1016
2249,982,1014
2250,980,1013
2251,979,1010
2252,973,1006
2253,972,1007
2254,971,1006
2255,971,1007
2256,970,1005
2257,969,1001
2258,968,1001
2259,967,997
2260,966,998
2261,967,1003
2262,967,1000
2263,966,996
2264,964,997
2265,962,995
2266,963,995
2267,965,998
2268,966,996
2269,966,995
2270,965,994
2271,964,993
2272,964,997
2273,967,997
2274,967,996
2275,966,996
2276,964,994
2277,966,995
2278,965,996
2279,968,999
2280,968,997
2281,968,995
2282,969,995
2283,967,995
2284,969,998
2285,971,1001
2286,971,1000
2287,972,998
2288,972,997
2289,970,999
2290,972,1003
2291,973,1002
2292,975,1003
2293,975,1001
2294,975,999
2295,975,1000
2296,974,1003
2297,977,1002
2298,975,1003
2299,977,1003
2300,972,999
2301,972,1002
2302,972,1002
2303,978,1006
2304,976,1007
2305,978,1003
2306,975,1003
2307,976,1001
2308,975,1002
2309,974,1003
2310,976,1003
2311,976,999
2312,973,997
2313,972,1000
2314,973,1002
2315,976,1004
2316,975,1002
2317,973,999
2318,973,997
2319,969,994
2320,972,999
2321,972,1001
2322,972,1000
2323,971,1000
2324,971,995
2325,968,997
2326,969,996
2327,972,997
2328,969,996
2329,969,993
2330,967,993
2331,965,991
2332,964,990
2333,966,991
2334,965,992
2335,965,990
2336,965,988
2337,960,987
2338,961,989
2339,964,989
2340,963,988
2341,959,987
2342,959,986
2343,958,986
2344,960,987
2345,960,990
2346,961,987
2347,960,986
2348,958,985
2349,955,984
2350,957,987
2351,958,988
2352,959,988
2353,957,987
2354,956,983
2355,956,984
2356,958,987
2357,958,987
2358,960,988
2359,958,985
2360,958,982
2361,956,982
2362,957,985
2363,958,986
2364,959,986
2365,958,985
2366,957,983
2367,955,985
2368,958,984
2369,959,986
2370,962,985
2371,964,983
2372,968,982
2373,971,983
2374,970,986
2375,970,988
2376,974,987
2377,976,986
2378,974,985
2379,974,985
2380,975,990
2381,983,986
2382,982,988
2383,980,986
2384,978,987
2385,979,984
2386,982,990
2387,981,992
2388,982,987
2389,977,988
2390,975,985
2391,970,983
2392,973,982
2393,970,982
2394,973,979
2395,974,977
2396,972,977
2397,972,980
2398,972,987
2399,972,990
2400,969,992
2401,964,990
2402,961,987
2403,959,988
2404,958,989
2405,956,990
2406,958,987
2407,955,982
2408,951,983
2409,948,983
2410,949,983
2411,949,985
2412,947,983
2413,947,982
2414,946,980
2415,946,982
2416,945,985
2417,947,985
2418,946,984
2419,946,983
2420,945,980
2421,944,983
2422,945,983
2423,947,986
2424,948,986
2425,947,985
2426,944,984
2427,944,983
2428,945,985
2429,947,989
2430,944,987
2431,935,983
2432,920,981
2433,910,978
2434,916,981
2435,929,985
2436,948,994
2437,975,1002
2438,1023,1016
2439,1098,1043
2440,1182,1094
2441,1262,1144
2442,1327,1192
2443,1371,1242
2444,1389,1277
2445,1372,1286
2446,1308,1258
2447,1206,1190
2448,1093,1096
2449,1000,1003
2450,945,939
2451,922,910
2452,926,911
2453,940,932
2454,959,954
2455,968,977
2456,970,992
2457,960,997
2458,954,997
2459,954,994
2460,954,990
2461,957,989
2462,951,990
2463,945,989
2464,944,989
2465,944,989
2466,945,988
2467,942,988
2468,941,984
2469,940,987
2470,938,989
2471,940,989
2472,941,990
2473,941,988
2474,939,985
2475,939,986
2476,939,989
2477,940,990
2478,943,991
2479,942,988
2480,940,988
2481,939,989
2482,939,990
2483,942,992
2484,943,993
2485,942,993
2486,942,989
2487,940,991
2488,942,991
2489,942,995
2490,947,994
2491,946,993
2492,944,992
2493,941,993
2494,945,997
2495,947,995
2496,949,995
2497,950,996
2498,950,997
2499,951,998
2500,952,1001
2501,955,1002
2502,958,1004
2503,960,1003
2504,961,1002
2505,960,1004
2506,966,1007
2507,969,1011
2508,972,1012
2509,973,1012
2510,975,1013
2511,973,1014
2512,980,1015
2513,985,1020
2514,992,1023
2515,993,1024
2516,995,1026
2517,995,1028
2518,1002,1033
2519,1009,1037
2520,1012,1036
2521,1016,1041
2522,1018,1040
2523,1022,1041
2524,1026,1045
2525,1032,1051
2526,1035,1053
2527,1035,1052
2528,1037,1053
2529,1039,1054
2530,1042,1056
2531,1044,1062
2532,1046,1064
2533,1050,1062
2534,1050,1061
2535,1050,1063
2536,1051,1068
2537,1055,1067
2538,1054,1066
2539,1054,1065
2540,1051,1062
2541,1048,1064
2542,1047,1063
2543,1048,1064
2544,1046,1061
2545,1041,1056
2546,1035,1052
2547,1030,1053
2548,1029,1052
2549,1024,1047
2550,1020,1044
2551,1014,1041
2552,1008,1033
2553,1001,1030
2554,998,1029
2555,995,1027
2556,995,1022
2557,989,1020
2558,983,1013
2559,978,1013
2560,977,1012
2561,977,1011
2562,975,1007
2563,973,1003
2564,970,1003
2565,967,1000
2566,968,1002
2567,968,1000
2568,967,1000
2569,966,997
2570,963,995
2571,963,993
2572,964,995
2573,966,997
2574,965,995
2575,964,995
2576,964,992
2577,961,992
2578,962,994
2579,966,995
2580,964,994
2581,962,991
2582,962,992
2583,961,993
2584,962,994
2585,966,995
2586,967,996
2587,966,996
2588,965,994
2589,965,994
2590,966,994
2591,969,999
2592,972,998
2593,968,998
2594,970,996
2595,969,997
2596,971,999
2597,971,999
2598,973,1001
2599,972,999
2600,969,999
2601,969,997
2602,970,998
2603,973,1003
2604,974,1004
2605,973,1001
2606,971,1000
2607,971,1002
2608,971,1003
2609,972,1006
2610,974,1003
2611,972,1001
2612,971,1000
2613,971,1002
2614,971,1003
2615,973,1003
2616,974,1003
2617,973,1000
2618,971,1000
2619,969,1000
2620,972,1000
2621,971,1002
2622,972,1002
2623,971,999
2624,966,996
2625,962,998
2626,966,999
2627,968,1001
2628,968,1000
2629,966,996
2630,963,993
2631,961,994
2632,964,996
2633,965,997
2634,964,993
2635,964,992
2636,962,990
2637,961,988
2638,961,991
2639,961,993
2640,962,993
2641,960,990
2642,958,986
2643,958,986
2644,957,988
2645,959,991
2646,959,988
2647,958,986
2648,956,987
2649,953,982
2650,956,984
2651,957,986
2652,956,986
2653,957,981
2654,954,983
2655,955,982
2656,956,984
2657,954,986
2658,955,986
2659,956,985
2660,955,983
2661,951,985
2662,953,985
2663,955,989
2664,957,987
2665,957,983
2666,954,981
2667,954,984
2668,955,985
2669,960,983
2670,963,988
2671,964,988
2672,968,985
2673,966,983
2674,970,987
2675,972,990
2676,973,990
2677,973,989
2678,974,988
2679,972,987
2680,974,988
2681,977,990
2682,980,990
2683,976,989
2684,978,986
2685,979,988
2686,979,989
2687,980,989
2688,979,988
2689,975,983
2690,973,981
2691,969,980
2692,969,979
2693,970,982
2694,970,978
2695,972,979
2696,971,980
2697,970,988
2698,966,992
2699,965,992
2700,963,991
2701,958,989
2702,956,988
2703,952,986
2704,953,988
2705,952,990
2706,951,989
2707,949,984
2708,947,982
2709,943,981
2710,944,984
2711,945,986
2712,947,985
2713,943,985
2714,942,981
2715,941,982
2716,942,984
2717,943,987
2718,943,986
2719,943,985
2720,942,981
2721,943,984
2722,944,986
2723,946,986
2724,950,987
2725,945,986
2726,943,983
2727,943,988
2728,941,988
2729,942,987
2730,940,989
2731,933,985
2732,919,981
2733,904,979
2734,908,980
2735,919,983
2736,934,991
2737,954,997
2738,989,1005
2739,1047,1024
2740,1126,1063
2741,1205,1109
2742,1275,1159
2743,1336,1211
2744,1381,1263
2745,1395,1299
2746,1375,1301
2747,1304,1267
2748,1199,1186
2749,1084,1085
2750,993,993
2751,946,933
2752,928,904
2753,927,906
2754,933,922
2755,943,940
2756,958,957
2757,968,978
2758,965,992
2759,960,1000
2760,956,998
2761,954,994
2762,949,988
2763,949,990
2764,950,993
2765,947,993
2766,946,992
2767,943,988
2768,939,986
2769,935,988
2770,938,990
2771,936,992
2772,936,992
2773,935,988
2774,936,987
2775,934,989
2776,936,989
2777,938,991
2778,937,992
2779,937,989
2780,936,989
2781,933,990
2782,936,992
2783,938,993
2784,939,993
2785,937,992
2786,938,990
2787,937,991
2788,938,994
2789,941,994
2790,942,995
2791,943,994
2792,942,993
2793,938,995
2794,940,997
2795,942,998
2796,946,1000
2797,945,999
2798,947,998
2799,947,1000
2800,949,1004
2801,949,1006
2802,953,1006
2803,952,1006
2804,953,1004
2805,952,1004
2806,955,1007
2807,958,1011
2808,961,1010
2809,962,1012
2810,963,1012
2811,966,1014
2812,969,1018
2813,974,1021
2814,977,1023
2815,980,1021
2816,981,1022
2817,984,1025
2818,990,1028
2819,996,1034
2820,998,1035
2821,1002,1039
2822,1005,1037
2823,1009,1039
2824,1012,1042
2825,1018,1047
2826,1022,1049
2827,1024,1049
2828,1027,1051
2829,1029,1053
2830,1034,1055
2831,1036,1060
2832,1043,1064
2833,1044,1062
2834,1045,1061
2835,1047,1063
2836,1051,1067
2837,1054,1069
2838,1054,1072
2839,1057,1072
2840,1057,1071
2841,1056,1072
2842,1057,1074
2843,1058,1076
2844,1056,1074
2845,1057,1071
2846,1054,1068
2847,1048,1068
2848,1049,1068
2849,1046,1068
2850,1044,1068
2851,1038,1060
2852,1032,1057
2853,1027,1055
2854,1024,1054
2855,1020,1051
2856,1016,1048
2857,1010,1042
2858,1004,1038
2859,998,1034
2860,995,1033
2861,993,1032
2862,992,1028
2863,988,1021
2864,983,1019
2865,978,1017
2866,980,1016
2867,978,1016
2868,975,1014
2869,973,1011
2870,972,1008
2871,971,1010
2872,972,1008
2873,971,1009
2874,970,1009
2875,969,1004
2876,968,1002
2877,968,1004
2878,969,1005
2879,970,1005
2880,970,1004
2881,967,1002
2882,969,999
2883,968,1000
2884,969,1003
2885,969,1004
2886,970,1002
2887,969,1001
2888,967,1000
2889,968,1004
2890,971,1003
2891,975,1006
2892,975,1006
2893,975,1003
2894,975,1004
2895,973,1007
2896,973,1006
2897,974,1010
2898,978,1009
2899,976,1008
2900,978,1005
2901,974,1009
2902,978,1011
2903,978,1011
2904,981,1013
2905,980,1012
2906,979,1013
2907,974,1014
2908,978,1015
2909,982,1016
2910,983,1016
2911,980,1014
2912,980,1014
2913,978,1015
2914,979,1017
2915,985,1015
2916,985,1017
2917,983,1015
2918,980,1014
2919,977,1014
2920,979,1018
2921,980,1016
2922,978,1014
2923,977,1011
2924,976,1007
2925,975,1010
2926,975,1011
2927,977,1012
2928,977,1014
2929,976,1011
2930,971,1005
2931,973,1009
2932,971,1010
2933,973,1010
2934,974,1009
2935,970,1007
2936,967,1004
2937,969,1006
2938,967,1007
2939,971,1006
2940,969,1007
2941,965,1004
2942,964,1000
2943,962,999
2944,967,1003
2945,967,1003
2946,967,1004
2947,966,1005
2948,964,1002
2949,961,1001
2950,963,1000
2951,963,1003
2952,966,1002
2953,963,1000
2954,963,1001
2955,960,1003
2956,960,1001
2957,961,1002
2958,964,1003
2959,962,999
2960,961,997
2961,959,998
2962,961,1000
2963,963,1001
2964,963,1000
2965,964,1000
2966,963,997
2967,963,997
2968,964,999
2969,968,1002
2970,969,1000
2971,974,998
2972,976,997
2973,974,1002
2974,974,1005
2975,978,1008
2976,978,1005
2977,978,1004
2978,980,1002
2979,981,1004
2980,983,1002
2981,985,1003
2982,984,1004
2983,984,1005
2984,984,1003
2985,985,1002
2986,986,1005
2987,986,1005
2988,983,1006
2989,981,1003
2990,975,1000
2991,972,995
2992,973,994
2993,976,996
2994,976,995
2995,977,996
2996,977,997
2997,973,1003
2998,972,1008
2999,970,1008
3000,970,1011
3001,966,1009
3002,962,1004
3003,962,1006
3004,960,1006
3005,960,1006
3006,960,1005
3007,958,1003
3008,955,999
3009,954,1000
3010,950,1001
3011,955,1002
3012,954,1002
3013,953,1002
3014,953,999
3015,951,1000
3016,950,1002
3017,954,1006
3018,953,1004
3019,951,1001
3020,951,1001
3021,948,1001
3022,952,1005
3023,955,1004
3024,953,1004
3025,950,1003
3026,953,1004
3027,950,1004
3028,951,1007
3029,951,1009
3030,946,1008
3031,932,1004
3032,919,999
3033,913,998
3034,921,1002
3035,935,1010
3036,953,1018
3037,981,1024
3038,1034,1037
3039,1104,1068
3040,1186,1115
3041,1258,1164
3042,1322,1210
3043,1370,1258
3044,1392,1293
3045,1386,1306
3046,1334,1288
3047,1238,1233
3048,1126,1142
3049,1028,1045
3050,965,972
3051,937,930
3052,932,922
3053,934,932
3054,943,950
3055,961,971
3056,977,991
3057,975,1006
3058,970,1015
3059,965,1015
3060,965,1013
3061,964,1009
3062,961,1007
3063,958,1010
3064,957,1014
3065,957,1013
3066,955,1011
3067,950,1010
3068,951,1008
3069,949,1010
3070,948,1010
3071,949,1013
3072,949,1012
3073,949,1011
3074,947,1010
3075,943,1010
3076,946,1012
3077,947,1014
3078,949,1014
3079,947,1012
3080,947,1010
3081,944,1011
3082,948,1014
3083,948,1015
3084,949,1016
3085,948,1014
3086,948,1012
3087,948,1015
3088,951,1016
3089,951,1021
3090,955,1021
3091,952,1018
3092,952,1016
3093,951,1017
3094,950,1018
3095,955,1019
3096,956,1022
3097,954,1018
3098,956,1018
3099,953,1019
3100,957,1024
3101,959,1024
3102,963,1024
3103,962,1022
3104,961,1021
3105,962,1022
3106,966,1027
3107,970,1030
3108,972,1030
3109,972,1031
3110,971,1030
3111,974,1032
3112,980,1036
3113,982,1040
3114,986,1041
3115,988,1039
3116,989,1040
3117,989,1044
3118,995,1045
3119,999,1050
3120,1003,1054
3121,1009,1056
3122,1013,1056
3123,1014,1056
3124,1016,1062
3125,1022,1067
3126,1028,1070
3127,1030,1068
3128,1031,1067
3129,1033,1071
3130,1036,1074
3131,1041,1078
3132,1044,1079
3133,1047,1078
3134,1047,1081
3135,1048,1080
3136,1053,1084
3137,1054,1087
3138,1055,1087
3139,1057,1087
3140,1059,1087
3141,1057,1089
3142,1061,1091
3143,1060,1095
3144,1060,1093
3145,1060,1090
3146,1057,1090
3147,1054,1088
3148,1051,1087
3149,1050,1085
3150,1045,1084
3151,1040,1079
3152,1036,1075
3153,1028,1073
3154,1027,1071
3155,1023,1069
3156,1018,1065
3157,1014,1058
3158,1012,1054
3159,1004,1052
3160,1003,1051
3161,998,1049
3162,997,1046
3163,994,1043
3164,990,1036
3165,987,1035
3166,986,1034
3167,986,1033
3168,986,1032
3169,984,1028
3170,981,1027
3171,980,1027
3172,981,1027
3173,979,1027
3174,982,1026
3175,981,1025
3176,979,1023
3177,977,1024
3178,979,1023
3179,979,1023
3180,979,1021
3181,975,1019
3182,977,1021
3183,977,1020
3184,978,1026
3185,981,1026
3186,982,1026
3187,981,1024
3188,979,1022
3189,980,1024
3190,982,1027
3191,984,1029
3192,984,1027
3193,984,1026
3194,983,1025
3195,979,1028
3196,985,1029
3197,984,1032
3198,986,1029
3199,985,1030
3200,983,1027
3201,984,1029
3202,982,1032
3203,985,1032
3204,985,1032
3205,987,1030
3206,985,1030
3207,986,1030
3208,985,1033
3209,988,1035
3210,990,1035
3211,988,1033
3212,986,1032
3213,985,1031
3214,984,1032
3215,986,1033
3216,987,1033
3217,986,1032
3218,984,1028
3219,981,1030
3220,981,1031
3221,984,1030
3222,987,1030
3223,983,1029
3224,982,1028
3225,980,1028
3226,979,1030
3227,982,1031
3228,984,1028
3229,983,1025
3230,978,1021
3231,978,1023
3232,978,1025
3233,976,1027
3234,976,1024
3235,976,1022
3236,972,1020
3237,970,1020
3238,972,1022
3239,974,1022
3240,974,1022
3241,974,1017
3242,971,1017
3243,969,1019
3244,970,1019
3245,971,1020
3246,972,1018
3247,969,1015
3248,965,1015
3249,965,1015
3250,966,1016
3251,966,1014
3252,968,1016
3253,967,1012
3254,965,1013
3255,964,1015
3256,966,1016
3257,967,1019
3258,965,1019
3259,966,1014
3260,963,1012
3261,962,1014
3262,964,1013
3263,965,1013
3264,966,1017
3265,965,1014
3266,965,1009
3267,964,1012
3268,965,1014
3269,966,1015
3270,969,1017
3271,968,1013
3272,970,1013
3273,972,1014
3274,976,1014
3275,980,1018
3276,979,1017
3277,979,1017
3278,980,1015
3279,981,1015
3280,983,1016
3281,986,1018
3282,987,1018
3283,989,1016
3284,988,1015
3285,985,1016
3286,987,1017
3287,988,1021
3288,990,1020
3289,992,1019
3290,987,1015
3291,984,1013
3292,982,1014
3293,980,1013
3294,978,1012
3295,978,1006
3296,977,1002
3297,979,1004
3298,981,1010
3299,984,1014
3300,983,1018
3301,979,1019
3302,975,1018
3303,970,1020
3304,969,1019
3305,967,1021
3306,968,1021
3307,964,1017
3308,961,1013
3309,958,1013
3310,958,1015
3311,959,1016
3312,956,1014
3313,953,1012
3314,952,1012
3315,951,1013
3316,952,1015
3317,954,1015
3318,955,1015
3319,953,1013
3320,952,1011
3321,951,1013
3322,952,1015
3323,954,1017
3324,953,1014
3325,955,1013
3326,949,1010
3327,950,1011
3328,952,1013
3329,954,1016
3330,954,1015
3331,954,1015
3332,949,1011
3333,942,1012
3334,934,1012
3335,924,1011
3336,921,1008
3337,930,1011
3338,943,1014
3339,962,1027
3340,1001,1036
3341,1059,1055
3342,1131,1091
3343,1203,1129
3344,1267,1173
3345,1322,1218
3346,1365,1264
3347,1383,1294
3348,1375,1302
3349,1329,1283
3350,1245,1239
3351,1142,1164
3352,1048,1081
3353,981,1009
3354,942,960
3355,924,935
3356,923,936
3357,934,952
3358,956,976
3359,974,1001
3360,977,1018
3361,970,1026
3362,965,1024
3363,959,1022
3364,960,1020
3365,960,1020
3366,960,1024
3367,956,1023
3368,955,1020
3369,949,1020
3370,949,1021
3371,949,1020
3372,950,1022
3373,949,1020
3374,946,1017
3375,944,1022
3376,943,1020
3377,944,1021
3378,946,1022
3379,946,1019
3380,942,1018
3381,942,1021
3382,945,1021
3383,945,1022
3384,946,1021
3385,946,1021
3386,944,1020
3387,940,1021
3388,943,1022
3389,946,1023
3390,946,1022
3391,946,1023
3392,945,1022
3393,943,1022
3394,948,1025
3395,948,1027
3396,951,1026
3397,948,1026
3398,947,1026
3399,945,1025
3400,948,1028
3401,952,1029
3402,952,1030
3403,952,1026
3404,952,1027
3405,953,1029
3406,954,1031
3407,956,1032
3408,958,1032
3409,958,1032
3410,957,1031
3411,958,1032
3412,961,1036
3413,965,1038
3414,968,1039
3415,968,1037
3416,967,1039
3417,969,1040
3418,973,1044
3419,978,1047
3420,980,1047
3421,984,1047
3422,986,1047
3423,987,1050
3424,991,1052
3425,997,1056
3426,1001,1056
3427,1005,1057
3428,1005,1060
3429,1006,1062
3430,1011,1066
3431,1015,1068
3432,1018,1071
3433,1021,1070
3434,1025,1071
3435,1027,1074
3436,1031,1079
3437,1035,1085
3438,1038,1086
3439,1042,1084
3440,1042,1080
3441,1043,1085
3442,1046,1087
3443,1048,1091
3444,1049,1091
3445,1050,1091
3446,1049,1088
3447,1049,1091
3448,1050,1091
3449,1051,1093
3450,1052,1089
3451,1048,1087
3452,1044,1087
3453,1041,1083
3454,1038,1082
3455,1037,1083
3456,1033,1078
3457,1027,1077
3458,1023,1071
3459,1015,1069
3460,1012,1065
3461,1008,1062
3462,1002,1058
3463,1000,1053
3464,993,1050
3465,989,1047
3466,988,1048
3467,985,1046
3468,984,1044
3469,981,1038
3470,977,1036
3471,973,1037
3472,975,1035
3473,976,1035
3474,973,1034
3475,973,1030
3476,968,1028
3477,969,1028
3478,968,1028
3479,971,1027
3480,971,1028
3481,971,1026
3482,967,1024
3483,967,1026
3484,966,1027
3485,969,1029
3486,967,1029
3487,966,1024
3488,965,1025
3489,964,1023
3490,966,1026
3491,970,1028
3492,970,1030
3493,971,1026
3494,970,1026
3495,968,1027
3496,973,1032
3497,974,1032
3498,977,1029
3499,974,1030
3500,973,1028
3501,973,1029
3502,976,1033
3503,980,1033
3504,980,1037
3505,978,1034
3506,977,1031
3507,976,1034
3508,977,1032
3509,979,1036
3510,979,1033
3511,979,1033
3512,977,1033
3513,977,1036
3514,977,1037
3515,980,1036
3516,977,1037
3517,979,1035
3518,977,1032
3519,975,1033
3520,976,1034
3521,977,1037
3522,979,1036
3523,976,1032
3524,975,1030
3525,971,1030
3526,974,1033
3527,973,1034
3528,974,1030
3529,973,1030
3530,971,1028
3531,969,1027
3532,970,1030
3533,970,1030
3534,971,1028
3535,969,1026
3536,967,1024
3537,966,1024
3538,965,1025
3539,967,1027
3540,967,1024
3541,966,1022
3542,963,1021
3543,964,1022
3544,962,1020
3545,963,1022
3546,961,1019
3547,963,1020
3548,960,1017
3549,957,1018
3550,960,1019
3551,962,1020
3552,962,1019
3553,961,1017
3554,957,1016
3555,955,1018
3556,957,1017
3557,960,1017
3558,962,1017
3559,958,1014
3560,957,1013
3561,954,1014
3562,956,1017
3563,959,1018
3564,960,1016
3565,956,1014
3566,958,1011
3567,954,1010
3568,957,1013
3569,960,1016
3570,962,1018
3571,962,1014
3572,963,1014
3573,965,1014
3574,969,1015
3575,974,1017
3576,972,1016
3577,973,1016
3578,971,1016
3579,969,1018
3580,971,1017
3581,978,1019
3582,980,1016
3583,979,1014
3584,977,1012
3585,975,1013
3586,980,1016
3587,981,1018
3588,981,1017
3589,981,1017
3590,976,1014
3591,974,1014
3592,972,1014
3593,969,1012
3594,969,1010
3595,966,1007
3596,965,1002
3597,968,1007
3598,971,1011
3599,972,1018
3600,968,1021
3601,965,1020
3602,962,1018
3603,957,1018
3604,958,1019
3605,960,1019
3606,958,1019
3607,954,1016
3608,950,1014
3609,948,1015
3610,949,1015
3611,947,1015
3612,947,1014
3613,944,1010
3614,943,1008
3615,940,1012
3616,943,1011
3617,946,1014
3618,947,1015
3619,944,1013
3620,941,1011
3621,942,1012
3622,943,1013
3623,946,1014
3624,944,1016
3625,944,1014
3626,944,1012
3627,943,1012
3628,945,1014
3629,946,1017
3630,945,1015
3631,943,1013
3632,936,1011
3633,924,1010
3634,913,1012
3635,905,1006
3636,908,1007
3637,918,1009
3638,930,1012
3639,950,1021
3640,992,1034
3641,1057,1053
3642,1127,1087
3643,1197,1127
3644,1259,1170
3645,1317,1222
3646,1365,1273
3647,1386,1311
3648,1380,1324
3649,1336,1307
3650,1254,1259
3651,1141,1177
3652,1041,1085
3653,969,1001
3654,935,948
3655,922,932
3656,924,940
3657,937,959
3658,955,984
3659,969,1008
3660,968,1021
3661,960,1027
3662,954,1023
3663,952,1022
3664,951,1022
3665,950,1020
3666,952,1021
3667,946,1019
3668,941,1018
3669,938,1015
3670,939,1019
3671,940,1020
3672,937,1018
3673,938,1016
3674,934,1015
3675,934,1016
3676,935,1015
3677,935,1019
3678,936,1016
3679,934,1018
3680,932,1015
3681,930,1016
3682,931,1019
3683,934,1019
3684,935,1020
3685,935,1018
3686,936,1017
3687,933,1019
3688,935,1018
3689,938,1023
3690,935,1023
3691,936,1022
3692,935,1017
3693,934,1020
3694,937,1019
3695,938,1023
3696,939,1023
3697,939,1022
3698,935,1020
3699,935,1023
3700,940,1024
3701,942,1025
3702,944,1027
3703,942,1023
3704,943,1024
3705,943,1027
3706,945,1029
3707,948,1031
3708,950,1028
3709,950,1028
3710,951,1031
3711,952,1033
3712,957,1036
3713,959,1038
3714,959,1038
3715,962,1038
3716,964,1038
3717,964,1040
3718,968,1044
3719,972,1046
3720,976,1047
3721,977,1048
3722,978,1050
3723,983,1053
3724,988,1055
3725,993,1058
3726,997,1060
3727,996,1062
3728,997,1065
3729,1003,1066
3730,1008,1072
3731,1012,1073
3732,1018,1077
3733,1019,1076
3734,1023,1078
3735,1022,1079
3736,1028,1084
3737,1031,1087
3738,1034,1089
3739,1035,1090
3740,1037,1086
3741,1037,1089
3742,1041,1094
3743,1043,1095
3744,1046,1095
3745,1045,1093
3746,1043,1093
3747,1043,1092
3748,1045,1095
3749,1044,1097
3750,1041,1094
3751,1039,1092
3752,1034,1087
3753,1029,1088
3754,1028,1088
3755,1024,1086
3756,1021,1082
3757,1014,1078
3758,1011,1071
3759,1006,1071
3760,1002,1068
3761,999,1064
3762,994,1061
3763,989,1056
3764,984,1050
3765,979,1050
3766,977,1047
3767,976,1047
3768,973,1042
3769,970,1038
3770,967,1034
3771,964,1036
3772,966,1033
3773,964,1035
3774,964,1033
3775,962,1029
3776,962,1028
3777,959,1027
3778,962,1027
3779,963,1029
3780,962,1027
3781,959,1029
3782,960,1025
3783,958,1027
3784,958,1026
3785,960,1027
3786,962,1027
3787,961,1024
3788,959,1022
3789,959,1022
3790,962,1026
3791,963,1027
3792,965,1029
3793,964,1026
3794,962,1024
3795,961,1025
3796,964,1029
3797,965,1027
3798,967,1028
3799,966,1026
3800,965,1028
3801,965,1033
3802,965,1036
3803,966,1034
3804,968,1035
3805,966,1032
3806,964,1030
3807,966,1029
3808,968,1033
3809,970,1034
3810,968,1034
3811,969,1033
3812,969,1030
3813,968,1033
3814,967,1035
3815,970,1038
3816,970,1037
3817,969,1034
3818,966,1031
3819,964,1033
3820,965,1035
3821,966,1036
3822,966,1033
3823,965,1032
3824,962,1030
3825,964,1030
3826,966,1032
3827,969,1032
3828,970,1034
3829,968,1031
3830,965,1030
3831,963,1029
3832,963,1031
3833,964,1030
3834,962,1028
3835,962,1025
3836,958,1025
3837,960,1025
3838,961,1027
3839,961,1029
3840,960,1026
3841,957,1024
3842,957,1021
3843,956,1022
3844,956,1023
3845,958,1023
3846,957,1024
3847,956,1021
3848,954,1017
3849,952,1019
3850,952,1018
3851,955,1019
3852,955,1021
3853,950,1019
3854,952,1016
3855,951,1019
3856,952,1018
3857,955,1019
3858,953,1019
3859,951,1015
3860,949,1017
3861,947,1017
3862,950,1017
3863,950,1018
3864,951,1017
3865,949,1017
3866,949,1014
3867,948,1016
3868,948,1019
3869,948,1019
3870,949,1019
3871,950,1017
3872,948,1013
3873,948,1016
3874,951,1017
3875,954,1019
3876,954,1018
3877,956,1015
3878,957,1014
3879,957,1014
3880,961,1016
3881,963,1017
3882,962,1017
3883,965,1017
3884,965,1016
3885,963,1018
3886,966,1020
3887,970,1022
3888,974,1022
3889,970,1018
3890,969,1018
3891,968,1017
3892,972,1021
3893,975,1021
3894,973,1020
3895,970,1016
3896,967,1014
3897,963,1013
3898,961,1013
3899,962,1013
3900,962,1011
3901,960,1007
3902,962,1004
3903,962,1007
3904,963,1014
3905,961,1019
3906,960,1022
3907,955,1020
3908,952,1021
3909,949,1017
3910,949,1021
3911,950,1020
3912,947,1018
3913,944,1018
3914,942,1014
3915,939,1014
3916,942,1016
3917,943,1018
3918,940,1015
3919,938,1013
3920,936,1010
3921,935,1010
3922,939,1011
3923,939,1013
3924,939,1016
3925,938,1014
3926,936,1013
3927,936,1015
3928,936,1017
3929,939,1017
3930,938,1019
3931,941,1016
3932,938,1014
3933,937,1015
3934,937,1018
3935,938,1019
3936,938,1019
3937,938,1015
3938,936,1014
3939,934,1018
3940,930,1019
3941,922,1019
3942,911,1016
3943,908,1011
3944,911,1012
3945,922,1019
3946,940,1028
3947,966,1036
3948,1014,1051
3949,1080,1078
3950,1147,1115
3951,1210,1162
3952,1267,1202
3953,1314,1244
3954,1340,1281
3955,1348,1303
3956,1328,1302
3957,1274,1279
3958,1190,1228
3959,1101,1154
3960,1024,1071
3961,964,1001
3962,930,956
3963,915,939
3964,914,944
3965,923,960
3966,940,977
3967,954,999
3968,957,1016
3969,952,1028
3970,947,1033
3971,945,1030
3972,943,1028
3973,943,1023
3974,941,1021
3975,942,1024
3976,941,1025
3977,939,1027
3978,936,1026
3979,934,1024
3980,933,1020
3981,930,1020
3982,933,1024
3983,932,1026
3984,932,1023
3985,931,1021
3986,930,1021
3987,930,1021
3988,929,1023
3989,930,1025
3990,932,1024
3991,928,1025
3992,927,1021
3993,926,1021
3994,927,1025
3995,930,1025
3996,930,1024
3997,930,1023
3998,930,1023
3999,930,1026
4000,929,1024
4001,933,1028
4002,931,1027
4003,932,1024
4004,930,1023
4005,930,1025
4006,931,1027
4007,933,1030
4008,935,1028
4009,934,1028
4010,933,1025
4011,933,1026
4012,936,1029
4013,938,1032
4014,938,1033
4015,939,1033
4016,938,1030
4017,937,1031
4018,941,1034
4019,943,1038
4020,948,1035
4021,947,1038
4022,947,1037
4023,949,1040
4024,951,1042
4025,956,1043
4026,957,1046
4027,955,1045
4028,959,1045
4029,963,1047
4030,966,1051
4031,970,1054
4032,973,1057
4033,974,1056
4034,977,1058
4035,981,1062
4036,987,1064
4037,989,1064
4038,993,1064
4039,995,1067
4040,997,1068
4041,1001,1072
4042,1004,1075
4043,1010,1077
4044,1012,1081
4045,1014,1079
4046,1016,1080
4047,1018,1082
4048,1021,1084
4049,1025,1088
4050,1028,1090
4051,1030,1088
4052,1029,1086
4053,1030,1092
4054,1033,1091
4055,1035,1096
4056,1033,1094
4057,1033,1095
4058,1033,1093
4059,1029,1095
4060,1031,1093
4061,1031,1095
4062,1030,1091
4063,1026,1088
4064,1020,1086
4065,1017,1084
4066,1014,1084
4067,1014,1082
4068,1009,1079
4069,1004,1075
4070,999,1068
4071,991,1069
4072,993,1065
4073,990,1064
4074,986,1062
4075,980,1055
4076,977,1050
4077,975,1046
4078,977,1049
4079,974,1046
4080,972,1046
4081,970,1041
4082,967,1036
4083,965,1037
4084,965,1036
4085,966,1037
4086,965,1037
4087,966,1033
4088,962,1031
4089,962,1030
4090,962,1033
4091,961,1033
4092,963,1034
4093,963,1029
4094,959,1027
4095,957,1030
4096,958,1032
4097,959,1029
4098,962,1030
4099,961,1029
4100,961,1028
4101,958,1029
4102,960,1031
4103,963,1031
4104,962,1031
4105,964,1032
4106,962,1029
4107,961,1029
4108,965,1033
4109,966,1033
4110,967,1036
4111,965,1030
4112,965,1030
4113,964,1033
4114,965,1033
4115,968,1037
4116,968,1037
4117,967,1033
4118,967,1033
4119,966,1036
4120,969,1039
4121,968,1039
4122,970,1037
4123,972,1036
4124,971,1033
4125,969,1036
4126,970,1040
4127,973,1041
4128,975,1040
4129,972,1040
4130,969,1037
4131,970,1036
4132,970,1040
4133,972,1038
4134,971,1040
4135,969,1037
4136,969,1034
4137,968,1036
4138,969,1039
4139,972,1041
4140,972,1040
4141,971,1038
4142,967,1036
4143,965,1035
4144,965,1037
4145,969,1038
4146,968,1037
4147,966,1034
4148,962,1033
4149,960,1033
4150,960,1035
4151,965,1036
4152,965,1033
4153,963,1035
4154,961,1030
4155,961,1028
4156,960,1032
4157,960,1031
4158,962,1029
4159,958,1030
4160,955,1026
4161,956,1025
4162,955,1028
4163,957,1027
4164,957,1026
4165,955,1026
4166,950,1021
4167,953,1024
4168,952,1024
4169,953,1026
4170,954,1025
4171,953,1021
4172,950,1020
4173,950,1020
4174,950,1022
4175,953,1023
4176,952,1024
4177,950,1020
4178,949,1017
4179,948,1020
4180,950,1020
4181,951,1021
4182,951,1024
4183,950,1019
4184,947,1018
4185,944,1018
4186,948,1022
4187,949,1021
4188,950,1020
4189,949,1019
4190,947,1016
4191,944,1016
4192,946,1018
4193,948,1019
4194,946,1019
4195,947,1016
4196,945,1017
4197,944,1019
4198,949,1017
4199,950,1019
4200,955,1019
4201,954,1017
4202,957,1016
4203,959,1019
4204,961,1021
4205,962,1021
4206,962,1022
4207,962,1019
4208,962,1017
4209,961,1018
4210,966,1023
4211,968,1023
4212,968,1024
4213,967,1020
4214,967,1016
4215,966,1017
4216,970,1019
4217,972,1024
4218,972,1021
4219,970,1021
4220,966,1018
4221,966,1019
4222,964,1018
4223,965,1017
4224,961,1014
4225,958,1012
4226,958,1008
4227,957,1010
4228,962,1010
4229,963,1013
4230,961,1018
4231,957,1018
4232,952,1020
4233,953,1020
4234,951,1023
4235,948,1023
4236,948,1025
4237,945,1020
4238,941,1019
4239,939,1018
4240,941,1017
4241,940,1017
4242,938,1017
4243,935,1015
4244,935,1013
4245,933,1011
4246,934,1015
4247,936,1017
4248,935,1016
4249,932,1014
4250,932,1012
4251,929,1014
4252,931,1015
4253,933,1014
4254,935,1017
4255,931,1015
4256,931,1013
4257,932,1015
4258,933,1015
4259,935,1017
4260,935,1017
4261,933,1016
4262,932,1013
4263,932,1016
4264,933,1015
4265,933,1016
4266,931,1017
4267,926,1015
4268,914,1012
4269,899,1010
4270,895,1010
4271,898,1010
4272,905,1013
4273,917,1018
4274,928,1022
4275,952,1031
4276,995,1043
4277,1061,1065
4278,1130,1099
4279,1199,1142
4280,1262,1187
4281,1318,1241
4282,1362,1293
4283,1378,1329
4284,1365,1336
4285,1312,1310
4286,1222,1253
4287,1113,1171
4288,1019,1082
4289,958,1009
4290,926,958
4291,917,936
4292,915,935
4293,920,949
4294,935,971
4295,953,995
4296,960,1013
4297,956,1024
4298,947,1028
4299,944,1025
4300,941,1027
4301,943,1026
4302,941,1024
4303,940,1021
4304,936,1020
4305,935,1022
4306,931,1020
4307,932,1021
4308,928,1020
4309,929,1018
4310,926,1019
4311,926,1018
4312,927,1023
4313,927,1022
4314,924,1019
4315,926,1019
4316,924,1017
4317,923,1018
4318,923,1020
4319,925,1020
4320,925,1022
4321,925,1022
4322,923,1019
4323,921,1020
4324,925,1022
4325,926,1023
4326,924,1023
4327,925,1022
4328,924,1021
4329,924,1023
4330,926,1023
4331,927,1024
4332,927,1025
4333,927,1025
4334,926,1022
4335,926,1024
4336,929,1026
4337,931,1027
4338,930,1027
4339,930,1026
4340,930,1023
4341,929,1027
4342,931,1027
4343,934,1030
4344,935,1029
4345,935,1029
4346,935,1028
4347,936,1029
4348,937,1031
4349,941,1035
4350,943,1033
4351,944,1032
4352,942,1034
4353,944,1035
4354,947,1038
4355,951,1042
4356,955,1042
4357,955,1041
4358,956,1039
4359,959,1041
4360,964,1046
4361,967,1048
4362,971,1050
4363,972,1050
4364,972,1053
4365,976,1056
4366,982,1061
4367,985,1063
4368,989,1065
4369,992,1065
4370,996,1065
4371,995,1067
4372,1000,1073
4373,1004,1076
4374,1009,1080
4375,1011,1078
4376,1013,1078
4377,1016,1079
4378,1020,1083
4379,1022,1086
4380,1026,1087
4381,1027,1088
4382,1029,1084
4383,1029,1090
4384,1031,1093
4385,1033,1094
4386,1032,1094
4387,1035,1092
4388,1032,1090
4389,1033,1091
4390,1033,1093
4391,1034,1092
4392,1031,1089
4393,1029,1084
4394,1025,1083
4395,1017,1082
4396,1019,1083
4397,1014,1081
4398,1012,1077
4399,1008,1073
4400,1000,1069
4401,995,1067
4402,990,1066
4403,990,1064
4404,985,1062
4405,980,1056
4406,977,1050
4407,971,1050
4408,969,1047
4409,970,1048
4410,966,1044
4411,966,1038
4412,962,1036
4413,957,1035
4414,959,1035
4415,957,1035
4416,956,1034
4417,955,1031
4418,953,1028
4419,953,1026
4420,953,1026
4421,953,1027
4422,950,1026
4423,953,1025
4424,951,1023
4425,951,1027
4426,951,1028
4427,955,1028
4428,952,1027
4429,954,1025
4430,952,1023
4431,951,1025
4432,953,1028
4433,956,1028
4434,954,1027
4435,955,1026
4436,953,1026
4437,952,1028
4438,952,1029
4439,956,1031
4440,957,1030
4441,959,1027
4442,956,1027
4443,955,1028
4444,957,1031
4445,959,1032
4446,957,1034
4447,959,1032
4448,957,1031
4449,959,1031
4450,960,1032
4451,962,1034
4452,959,1035
4453,961,1034
4454,959,1032
4455,957,1034
4456,961,1035
4457,960,1036
4458,963,1036
4459,963,1034
4460,959,1031
4461,958,1033
4462,961,1037
4463,960,1034
4464,961,1036
4465,959,1033
4466,957,1033
4467,956,1033
4468,958,1034
4469,959,1034
4470,956,1033
4471,956,1030
4472,954,1027
4473,952,1028
4474,955,1030
4475,955,1031
4476,957,1032
4477,954,1027
4478,951,1025
4479,952,1025
4480,949,1027
4481,952,1026
4482,953,1025
4483,948,1021
4484,946,1021
4485,948,1022
4486,947,1021
4487,947,1021
4488,947,1022
4489,943,1020
4490,941,1016
4491,944,1018
4492,943,1020
4493,944,1019
4494,943,1020
4495,943,1016
4496,941,1015
4497,940,1016
4498,940,1017
4499,942,1018
4500,943,1019
4501,939,1015
4502,939,1012
4503,938,1015
4504,941,1016
4505,940,1017
4506,942,1015
4507,943,1017
4508,941,1014
4509,938,1013
4510,941,1013
4511,940,1014
4512,942,1016
4513,941,1012
4514,940,1012
4515,940,1013
4516,940,1014
4517,943,1016
4518,940,1014
4519,939,1012
4520,938,1010
4521,937,1012
4522,940,1013
4523,942,1013
4524,944,1015
4525,942,1013
4526,941,1010
4527,942,1014
4528,945,1013
4529,950,1013
4530,953,1014
4531,953,1012
4532,953,1013
4533,953,1013
4534,953,1016
4535,958,1017
4536,958,1018
4537,959,1016
4538,960,1014
4539,959,1016
4540,964,1016
4541,964,1016
4542,964,1018
4543,966,1016
4544,966,1014
4545,963,1016
4546,965,1017
4547,962,1017
4548,963,1015
4549,959,1014
4550,957,1010
4551,952,1007
4552,952,1005
4553,952,1004
4554,953,1005
4555,955,1003
4556,956,1006
4557,953,1011
4558,952,1017
4559,951,1020
4560,948,1019
4561,945,1015
4562,942,1012
4563,939,1013
4564,939,1015
4565,940,1014
4566,937,1013
4567,936,1012
4568,932,1008
4569,931,1012
4570,929,1012
4571,932,1010
4572,931,1007
4573,928,1007
4574,928,1007
4575,929,1007
4576,928,1008
4577,929,1012
4578,929,1011
4579,928,1010
4580,929,1007
4581,927,1009
4582,927,1012
4583,929,1013
4584,929,1011
4585,929,1011
4586,926,1007
4587,925,1008
4588,929,1009
4589,931,1012
4590,928,1010
4591,928,1009
4592,926,1008
4593,926,1010
4594,926,1010
4595,924,1013
4596,913,1009
4597,899,1005
4598,891,1001
4599,893,1001
4600,906,1007
4601,922,1017
4602,940,1024
4603,980,1032
4604,1039,1051
4605,1114,1086
4606,1189,1135
4607,1257,1185
4608,1317,1235
4609,1356,1283
4610,1374,1317
4611,1365,1330
4612,1317,1311
4613,1227,1254
4614,1114,1163
4615,1013,1063
4616,946,986
4617,917,940
4618,911,924
4619,911,931
4620,915,946
4621,928,964
4622,942,985
4623,948,1004
4624,946,1020
4625,940,1026
4626,937,1024
4627,934,1020
4628,933,1015
4629,929,1018
4630,930,1020
4631,931,1022
4632,930,1017
4633,924,1014
4634,923,1013
4635,921,1014
4636,921,1017
4637,921,1015
4638,922,1015
4639,920,1013
4640,917,1013
4641,918,1013
4642,917,1016
4643,920,1018
4644,921,1017
4645,919,1016
4646,916,1013
4647,917,1014
4648,918,1017
4649,921,1021
4650,920,1018
4651,917,1017
4652,916,1016
4653,917,1017
4654,921,1018
4655,921,1020
4656,920,1021
4657,920,1017
4658,918,1016
4659,920,1018
4660,920,1022
4661,925,1024
4662,924,1022
4663,925,1020
4664,924,1021
4665,921,1021
4666,924,1025
4667,929,1027
4668,930,1026
4669,933,1025
4670,932,1022
4671,929,1027
4672,933,1031
4673,936,1033
4674,938,1031
4675,938,1029
4676,940,1031
4677,941,1033
4678,945,1039
4679,951,1039
4680,953,1042
4681,952,1041
4682,955,1043
4683,959,1043
4684,964,1050
4685,970,1050
4686,972,1056
4687,974,1055
4688,977,1054
4689,980,1058
4690,986,1060
4691,989,1064
4692,993,1067
4693,996,1066
4694,997,1068
4695,999,1070
4696,1004,1075
4697,1009,1076
4698,1009,1078
4699,1011,1077
4700,1015,1078
4701,1015,1081
4702,1021,1084
4703,1024,1087
4704,1025,1086
4705,1025,1087
4706,1026,1087
4707,1028,1087
4708,1029,1089
4709,1030,1092
4710,1028,1089
4711,1027,1088
4712,1025,1084
4713,1022,1083
4714,1021,1084
4715,1019,1082
4716,1016,1080
4717,1010,1078
4718,1004,1069
4719,1000,1071
4720,997,1069
4721,992,1066
4722,988,1064
4723,982,1060
4724,977,1054
4725,971,1052
4726,970,1049
4727,969,1049
4728,965,1043
4729,960,1040
4730,956,1036
4731,955,1035
4732,956,1035
4733,956,1034
4734,953,1030
4735,951,1029
4736,950,1029
4737,947,1030
4738,948,1030
4739,948,1029
4740,949,1028
4741,948,1025
4742,947,1025
4743,946,1024
4744,945,1025
4745,949,1026
4746,950,1028
4747,948,1024
4748,945,1023
4749,944,1021
4750,948,1028
4751,949,1026
4752,951,1027
4753,949,1027
4754,949,1023
4755,948,1026
4756,951,1028
4757,951,1029
4758,954,1029
4759,954,1030
4760,953,1029
4761,952,1029
4762,954,1030
4763,957,1034
4764,957,1032
4765,955,1030
4766,955,1030
4767,955,1033
4768,957,1033
4769,958,1035
4770,960,1034
4771,958,1035
4772,958,1030
4773,957,1034
4774,957,1035
4775,960,1038
4776,960,1034
4777,958,1031
4778,957,1032
4779,954,1033
4780,956,1033
4781,957,1034
4782,958,1033
4783,957,1034
4784,953,1029
4785,954,1031
4786,955,1032
4787,952,1031
4788,953,1029
4789,951,1027
4790,951,1027
4791,949,1028
4792,949,1027
4793,952,1028
4794,949,1026
4795,947,1024
4796,947,1022
4797,942,1023
4798,943,1024
4799,946,1024
4800,945,1023
4801,943,1021
4802,943,1017
4803,944,1019
4804,945,1022
4805,943,1022
4806,946,1019
4807,943,1018
4808,940,1015
4809,940,1017
4810,944,1017
4811,942,1018
4812,942,1018
4813,941,1016
4814,937,1013
4815,938,1014
4816,940,1015
4817,940,1017
4818,939,1014
4819,939,1012
4820,936,1010
4821,937,1012
4822,938,1015
4823,938,1016
4824,940,1014
4825,939,1013
4826,937,1011
4827,935,1012
4828,937,1014
4829,940,1015
4830,939,1015
4831,938,1014
4832,937,1011
4833,933,1014
4834,938,1017
4835,939,1017
4836,940,1013
4837,939,1012
4838,938,1010
4839,936,1010
4840,937,1014
4841,941,1016
4842,937,1013
4843,938,1013
4844,937,1013
4845,936,1014
4846,939,1012
4847,942,1016
4848,939,1015
4849,938,1013
4850,939,1013
4851,939,1013
4852,939,1015
4853,944,1016
4854,945,1016
4855,950,1016
4856,949,1014
4857,948,1015
4858,952,1016
4859,956,1018
4860,957,1020
4861,957,1016
4862,958,1017
4863,958,1018
4864,958,1018
4865,962,1019
4866,965,1017
4867,964,1015
4868,962,1013
4869,962,1014
4870,964,1018
4871,963,1018
4872,964,1017
4873,961,1013
4874,957,1010
4875,953,1007
4876,954,1009
4877,953,1010
4878,953,1006
4879,956,1006
4880,956,1005
4881,956,1012
4882,956,1016
4883,956,1022
4884,952,1020
4885,949,1017
4886,945,1015
4887,943,1017
4888,945,1019
4889,944,1020
4890,943,1018
4891,940,1013
4892,939,1012
4893,935,1014
4894,934,1015
4895,937,1016
4896,936,1014
4897,934,1011
4898,934,1013
4899,932,1013
4900,934,1013
4901,935,1014
4902,934,1015
4903,935,1015
4904,933,1012
4905,932,1016
4906,932,1018
4907,935,1020
4908,935,1020
4909,935,1017
4910,931,1014
4911,933,1015
4912,933,1018
4913,935,1021
4914,935,1020
4915,936,1018
4916,931,1016
4917,931,1017
4918,935,1020
4919,938,1021
4920,939,1022
4921,938,1019
4922,935,1019
4923,936,1022
4924,937,1025
4925,935,1023
4926,927,1023
4927,912,1018
4928,904,1014
4929,907,1018
4930,921,1027
4931,941,1034
4932,965,1043
4933,1016,1055
4934,1087,1082
4935,1169,1130
4936,1249,1184
4937,1319,1240
4938,1371,1296
4939,1390,1335
4940,1372,1335
4941,1305,1297
4942,1189,1219
4943,1076,1112
4944,981,1018
4945,933,957
4946,919,940
4947,917,949
4948,926,969
4949,946,992
4950,961,1015
4951,963,1027
4952,955,1035
4953,948,1036
4954,948,1034
4955,948,1033
4956,950,1034
4957,947,1031
4958,943,1031
4959,938,1032
4960,933,1033
4961,939,1032
4962,936,1032
4963,935,1029
4964,936,1027
4965,933,1027
4966,934,1031
4967,938,1034
4968,938,1033
4969,935,1032
4970,934,1030
4971,933,1031
4972,936,1033
4973,937,1036
4974,939,1034
4975,938,1033
4976,936,1032
4977,936,1035
4978,937,1036
4979,940,1038
4980,942,1038
4981,941,1037
4982,938,1034
4983,938,1037
4984,942,1038
4985,944,1040
4986,947,1040
4987,944,1038
4988,945,1039
4989,944,1040
4990,947,1044
4991,950,1046
4992,952,1044
4993,952,1043
4994,952,1044
4995,951,1046
4996,957,1049
4997,960,1051
4998,963,1052
4999,963,1050
5000,963,1050
5001,965,1053
5002,968,1056
5003,974,1059
5004,978,1061
5005,979,1059
5006,982,1063
5007,983,1066
5008,989,1069
5009,993,1073
5010,999,1076
5011,1001,1074
5012,1003,1076
5013,1005,1080
5014,1012,1085
5015,1018,1090
5016,1023,1093
5017,1022,1090
5018,1027,1091
5019,1028,1090
5020,1032,1094
5021,1038,1098
5022,1040,1100
5023,1041,1098
5024,1043,1100
5025,1043,1100
5026,1045,1107
5027,1051,1107
5028,1052,1106
5029,1052,1106
5030,1051,1106
5031,1049,1107
5032,1050,1108
5033,1050,1109
5034,1051,1108
5035,1047,1106
5036,1042,1101
5037,1039,1101
5038,1039,1102
5039,1036,1102
5040,1033,1099
5041,1030,1095
5042,1023,1092
5043,1016,1089
5044,1012,1089
5045,1011,1084
5046,1006,1083
5047,1001,1076
5048,998,1072
5049,992,1070
5050,992,1071
5051,990,1067
5052,988,1065
5053,987,1064
5054,982,1059
5055,980,1059
5056,980,1059
5057,980,1058
5058,979,1057
5059,976,1053
5060,975,1052
5061,974,1056
5062,975,1055
5063,978,1053
5064,977,1054
5065,977,1052
5066,974,1052
5067,974,1050
5068,978,1053
5069,979,1054
5070,981,1056
5071,979,1053
5072,977,1054
5073,977,1054
5074,977,1055
5075,980,1059
5076,981,1058
5077,980,1056
5078,980,1056
5079,979,1055
5080,984,1058
5081,983,1060
5082,984,1059
5083,985,1059
5084,982,1057
5085,982,1061
5086,985,1061
5087,987,1062
5088,989,1063
5089,987,1061
5090,987,1062
5091,987,1064
5092,986,1065
5093,988,1067
5094,989,1065
5095,990,1065
5096,988,1064
5097,987,1063
5098,989,1067
5099,986,1067
5100,991,1067
5101,989,1065
5102,986,1063
5103,987,1066
5104,988,1064
5105,990,1067
5106,991,1068
5107,988,1066
5108,987,1063
5109,985,1063
5110,987,1064
5111,987,1064
5112,987,1064
5113,985,1063
5114,983,1060
5115,981,1061
5116,983,1062
5117,984,1060
5118,984,1061
5119,982,1056
5120,981,1056
5121,978,1056
5122,980,1057
5123,980,1059
5124,980,1059
5125,978,1055
5126,977,1053
5127,975,1055
5128,978,1056
5129,977,1057
5130,977,1055
5131,978,1052
5132,976,1052
5133,973,1055
5134,974,1053
5135,975,1053
5136,976,1056
5137,971,1053
5138,970,1049
5139,971,1049
5140,974,1051
5141,973,1052
5142,973,1048
5143,972,1050
5144,970,1048
5145,969,1051
5146,970,1051
5147,971,1049
5148,973,1048
5149,969,1047
5150,968,1046
5151,967,1046
5152,970,1050
5153,971,1052
5154,971,1050
5155,969,1048
5156,969,1045
5157,968,1047
5158,970,1050
5159,968,1050
5160,971,1051
5161,970,1048
5162,968,1047
5163,968,1048
5164,969,1050
5165,970,1051
5166,972,1051
5167,970,1047
5168,969,1047
5169,970,1047
5170,973,1052
5171,977,1052
5172,981,1052
5173,982,1052
5174,983,1051
5175,984,1049
5176,987,1051
5177,988,1052
5178,989,1054
5179,988,1052
5180,989,1053
5181,990,1052
5182,992,1056
5183,995,1054
5184,995,1053
5185,994,1052
5186,993,1049
5187,993,1052
5188,995,1055
5189,993,1055
5190,990,1054
5191,988,1048
5192,981,1043
5193,981,1045
5194,984,1044
5195,987,1048
5196,988,1048
5197,986,1051
5198,984,1051
5199,982,1057
5200,980,1059
5201,978,1059
5202,976,1059
5203,973,1056
5204,971,1054
5205,969,1053
5206,967,1053
5207,966,1055
5208,966,1053
5209,964,1052
5210,962,1048
5211,961,1050
5212,961,1050
5213,963,1052
5214,963,1050
5215,963,1048
5216,959,1048
5217,960,1051
5218,963,1052
5219,964,1053
5220,962,1054
5221,959,1052
5222,960,1049
5223,958,1050
5224,960,1054
5225,958,1051
5226,960,1053
5227,959,1051
5228,961,1052
5229,960,1051
5230,961,1055
5231,964,1053
5232,961,1054
5233,964,1052
5234,963,1051
5235,961,1052
5236,965,1055
5237,964,1057
5238,966,1057
5239,964,1057
5240,961,1052
5241,959,1056
5242,951,1056
5243,940,1054
5244,931,1051
5245,932,1051
5246,941,1055
5247,957,1066
5248,982,1074
5249,1033,1088
5250,1107,1118
5251,1191,1163
5252,1265,1214
5253,1330,1269
5254,1382,1323
5255,1402,1363
5256,1395,1367
5257,1336,1331
5258,1229,1250
5259,1105,1143
5260,1010,1047
5261,959,985
5262,944,965
5263,941,974
5264,952,997
5265,969,1022
5266,985,1049
5267,988,1065
5268,981,1069
5269,976,1066
5270,974,1059
5271,973,1062
5272,972,1066
5273,972,1068
5274,968,1065
5275,965,1064
5276,962,1060
5277,962,1061
5278,961,1061
5279,960,1063
5280,963,1060
5281,962,1061
5282,959,1059
5283,957,1061
5284,959,1065
5285,961,1065
5286,960,1064
5287,958,1064
5288,956,1060
5289,957,1062
5290,959,1066
5291,958,1064
5292,958,1066
5293,957,1062
5294,958,1062
5295,959,1064
5296,959,1064
5297,962,1066
5298,961,1066
5299,962,1067
5300,961,1063
5301,960,1067
5302,963,1068
5303,965,1068
5304,966,1071
5305,966,1069
5306,963,1067
5307,965,1068
5308,966,1070
5309,969,1073
5310,972,1072
5311,971,1073
5312,971,1071
5313,972,1071
5314,974,1072
5315,978,1075
5316,980,1076
5317,981,1075
5318,983,1075
5319,984,1079
5320,987,1083
5321,993,1085
5322,995,1089
5323,996,1088
5324,999,1090
5325,1002,1091
5326,1007,1094
5327,1011,1097
5328,1015,1101
5329,1017,1100
5330,1017,1102
5331,1021,1104
5332,1028,1109
5333,1033,1109
5334,1035,1113
5335,1034,1111
5336,1036,1111
5337,1037,1113
5338,1042,1119
5339,1044,1120
5340,1049,1122
5341,1050,1120
5342,1050,1121
5343,1050,1121
5344,1055,1127
5345,1057,1126
5346,1057,1128
5347,1057,1127
5348,1056,1122
5349,1054,1124
5350,1055,1124
5351,1057,1128
5352,1055,1123
5353,1047,1123
5354,1044,1119
5355,1041,1118
5356,1039,1117
5357,1038,1117
5358,1034,1115
5359,1028,1109
5360,1022,1105
5361,1017,1104
5362,1014,1101
5363,1012,1102
5364,1006,1092
5365,1002,1090
5366,996,1086
5367,992,1083
5368,991,1083
5369,992,1081
5370,990,1080
5371,987,1075
5372,984,1073
5373,980,1071
5374,980,1072
5375,980,1072
5376,979,1068
5377,980,1067
5378,974,1063
5379,974,1064
5380,975,1067
5381,978,1066
5382,979,1064
5383,976,1063
5384,973,1058
5385,972,1060
5386,973,1062
5387,975,1063
5388,976,1063
5389,974,1062
5390,974,1060
5391,972,1060
5392,975,1063
5393,976,1064
5394,975,1062
5395,975,1063
5396,973,1061
5397,973,1064
5398,977,1065
5399,981,1066
5400,980,1065
5401,981,1064
5402,976,1063
5403,976,1065
5404,981,1069
5405,981,1069
5406,980,1066
5407,977,1066
5408,978,1067
5409,978,1065
5410,980,1070
5411,981,1069
5412,982,1069
5413,980,1065
5414,979,1065
5415,978,1067
5416,980,1069
5417,981,1071
5418,983,1071
5419,979,1069
5420,979,1066
5421,982,1067
5422,979,1069
5423,981,1070
5424,981,1071
5425,979,1068
5426,976,1066
5427,976,1068
5428,979,1069
5429,979,1070
5430,979,1068
5431,978,1064
5432,976,1064
5433,975,1060
5434,973,1064
5435,975,1063
5436,975,1065
5437,975,1061
5438,972,1060
5439,973,1061
5440,973,1060
5441,974,1061
5442,972,1061
5443,970,1056
5444,969,1055
5445,966,1054
5446,968,1058
5447,966,1057
5448,967,1054
5449,967,1053
5450,961,1051
5451,960,1052
5452,962,1052
5453,965,1056
5454,965,1053
5455,963,1051
5456,959,1048
5457,958,1048
5458,959,1050
5459,958,1050
5460,962,1049
5461,960,1044
5462,958,1046
5463,956,1044
5464,959,1046
5465,960,1049
5466,959,1044
5467,957,1043
5468,954,1044
5469,954,1043
5470,953,1042
5471,957,1045
5472,955,1045
5473,955,1043
5474,953,1038
5475,951,1038
5476,955,1039
5477,956,1041
5478,957,1042
5479,954,1037
5480,953,1038
5481,951,1037
5482,951,1039
5483,955,1042
5484,955,1042
5485,952,1040
5486,950,1037
5487,948,1039
5488,949,1041
5489,953,1040
5490,953,1042
5491,950,1039
5492,950,1038
5493,950,1040
5494,953,1042
5495,957,1041
5496,958,1039
5497,958,1041
5498,959,1038
5499,962,1039
5500,965,1042
5501,969,1044
5502,969,1041
5503,968,1042
5504,966,1041
5505,968,1040
5506,970,1042
5507,971,1042
5508,971,1040
5509,972,1040
5510,971,1038
5511,970,1041
5512,970,1040
5513,969,1038
5514,966,1035
5515,963,1031
5516,958,1027
5517,956,1028
5518,958,1030
5519,961,1031
5520,964,1031
5521,964,1033
5522,962,1038
5523,956,1038
5524,955,1042
5525,955,1040
5526,953,1040
5527,952,1036
5528,948,1036
5529,945,1035
5530,945,1036
5531,948,1036
5532,945,1036
5533,943,1032
5534,940,1030
5535,937,1029
5536,937,1031
5537,941,1032
5538,939,1028
5539,937,1029
5540,937,1026
5541,935,1029
5542,938,1031
5543,938,1032
5544,939,1033
5545,939,1030
5546,936,1029
5547,932,1029
5548,936,1031
5549,935,1033
5550,936,1031
5551,935,1030
5552,933,1029
5553,931,1027
5554,932,1029
5555,936,1030
5556,935,1030
5557,936,1028
5558,936,1027
5559,935,1029
5560,937,1032
5561,938,1032
5562,938,1030
5563,937,1033
5564,933,1028
5565,931,1030
5566,925,1032
5567,916,1030
5568,906,1028
5569,903,1025
5570,911,1024
5571,922,1036
5572,941,1044
5573,971,1052
5574,1022,1068
5575,1091,1095
5576,1157,1132
5577,1219,1177
5578,1281,1223
5579,1329,1264
5580,1353,1301
5581,1355,1313
5582,1322,1300
5583,1245,1255
5584,1140,1182
5585,1039,1092
5586,973,1018
5587,935,967
5588,915,945
5589,906,948
5590,909,961
5591,928,981
5592,946,1001
5593,953,1017
5594,949,1031
5595,943,1036
5596,943,1037
5597,944,1032
5598,946,1032
5599,942,1032
5600,936,1031
5601,932,1031
5602,931,1031
5603,931,1031
5604,929,1029
5605,932,1029
5606,928,1027
5607,927,1027
5608,927,1027
5609,929,1031
5610,930,1030
5611,928,1030
5612,924,1028
5613,925,1029
5614,927,1031
5615,929,1029
5616,929,1028
5617,928,1028
5618,926,1027
5619,926,1028
5620,925,1030
5621,929,1032
5622,929,1031
5623,929,1027
5624,927,1027
5625,928,1028
5626,928,1032
5627,929,1031
5628,930,1033
5629,930,1031
5630,930,1030
5631,928,1029
5632,930,1031
5633,933,1034
5634,933,1033
5635,931,1030
5636,932,1029
5637,934,1031
5638,935,1034
5639,938,1038
5640,938,1038
5641,939,1038
5642,938,1034
5643,936,1036
5644,943,1039
5645,947,1042
5646,946,1043
5647,948,1039
5648,947,1041
5649,948,1044
5650,952,1047
5651,957,1050
5652,956,1048
5653,958,1048
5654,962,1048
5655,963,1052
5656,969,1055
5657,972,1060
5658,975,1062
5659,979,1062
5660,981,1064
5661,980,1065
5662,986,1070
5663,991,1071
5664,993,1072
5665,996,1074
5666,996,1072
5667,997,1073
5668,1002,1081
5669,1006,1080
5670,1008,1084
5671,1011,1083
5672,1010,1080
5673,1012,1083
5674,1015,1084
5675,1020,1087
5676,1020,1090
5677,1019,1088
5678,1019,1090
5679,1019,1089
5680,1023,1091
5681,1023,1091
5682,1023,1090
5683,1020,1088
5684,1018,1085
5685,1016,1085
5686,1014,1087
5687,1014,1086
5688,1012,1082
5689,1007,1078
5690,1004,1075
5691,998,1073
5692,996,1072
5693,993,1072
5694,989,1067
5695,984,1063
5696,977,1058
5697,975,1054
5698,972,1055
5699,970,1053
5700,969,1050
5701,965,1046
5702,960,1040
5703,958,1038
5704,959,1038
5705,958,1038
5706,954,1035
5707,953,1032
5708,952,1029
5709,949,1029
5710,951,1030
5711,949,1030
5712,948,1030
5713,949,1025
5714,944,1023
5715,943,1024
5716,947,1026
5717,946,1025
5718,948,1024
5719,946,1024
5720,944,1021
5721,942,1021
5722,945,1025
5723,945,1025
5724,946,1022
5725,947,1022
5726,944,1020
5727,944,1022
5728,944,1023
5729,947,1026
5730,946,1025
5731,949,1024
5732,947,1022
5733,946,1022
5734,947,1026
5735,950,1024
5736,951,1025
5737,949,1024
5738,950,1021
5739,948,1027
5740,948,1027
5741,951,1030
5742,953,1027
5743,953,1025
5744,952,1023
5745,951,1027
5746,950,1029
5747,953,1029
5748,956,1027
5749,953,1027
5750,952,1026
5751,951,1027
5752,954,1027
5753,955,1029
5754,954,1027
5755,951,1024
5756,951,1021
5757,952,1021
5758,950,1024
5759,953,1026
5760,953,1025
5761,952,1024
5762,948,1022
5763,950,1023
5764,950,1021
5765,949,1024
5766,951,1021
5767,948,1015
5768,945,1017
5769,945,1016
5770,946,1018
5771,946,1019
5772,946,1018
5773,943,1017
5774,941,1012
5775,940,1013
5776,941,1013
5777,943,1014
5778,942,1011
5779,937,1010
5780,938,1010
5781,935,1009
5782,937,1010
5783,938,1008
5784,938,1006
5785,935,1004
5786,935,1002
5787,935,1003
5788,935,1004
5789,936,1006
5790,936,1004
5791,934,1003
5792,932,998
5793,931,1000
5794,931,1000
5795,932,1001
5796,933,998
5797,931,999
5798,930,997
5799,927,997
5800,931,999
5801,931,1000
5802,931,1000
5803,928,996
5804,929,993
5805,925,994
5806,929,995
5807,931,996
5808,930,996
5809,928,996
5810,925,991
5811,926,994
5812,929,995
5813,931,996
5814,931,995
5815,930,993
5816,930,992
5817,933,993
5818,937,996
5819,942,997
5820,944,996
5821,943,996
5822,943,992
5823,941,993
5824,945,999
5825,947,999
5826,951,997
5827,948,994
5828,946,992
5829,944,993
5830,944,992
5831,948,994
5832,949,990
5833,949,989
5834,946,986
5835,942,987
5836,941,984
5837,939,986
5838,937,982
5839,936,978
5840,935,978
5841,935,981
5842,942,984
5843,941,990
5844,940,991
5845,936,992
5846,930,991
5847,926,992
5848,927,993
5849,926,993
5850,923,990
5851,922,987
5852,919,987
5853,918,986
5854,913,986
5855,915,985
5856,914,986
5857,911,984
5858,912,982
5859,911,981
5860,912,985
5861,913,984
5862,913,984
5863,914,982
5864,910,980
5865,909,982
5866,912,983
5867,913,986
5868,912,985
5869,913,981
5870,910,979
5871,911,982
5872,913,985
5873,915,985
5874,913,986
5875,912,984
5876,909,981
5877,908,984
5878,907,986
5879,901,986
5880,889,982
5881,879,978
5882,879,977
5883,893,985
5884,911,995
5885,935,1004
5886,983,1017
5887,1051,1041
5888,1127,1082
5889,1202,1131
5890,1272,1183
5891,1323,1234
5892,1348,1275
5893,1344,1292
5894,1306,1278
5895,1222,1230
5896,1114,1150
5897,1015,1057
5898,943,972
5899,901,915
5900,889,895
5901,891,901
5902,899,923
5903,917,943
5904,931,965
5905,934,982
5906,928,989
5907,921,992
5908,920,990
5909,920,989
5910,918,986
5911,916,986
5912,913,984
5913,910,985
5914,908,984
5915,909,983
5916,908,985
5917,905,984
5918,902,980
5919,897,981
5920,901,983
5921,904,986
5922,903,984
5923,902,982
5924,900,981
5925,900,980
5926,902,984
5927,904,985
5928,904,986
5929,902,983
5930,901,983
5931,902,984
5932,901,985
5933,904,985
5934,905,985
5935,903,984
5936,903,982
5937,903,982
5938,904,987
5939,906,989
5940,906,989
5941,906,985
5942,903,983
5943,905,986
5944,905,988
5945,909,989
5946,910,989
5947,911,990
5948,909,988
5949,910,991
5950,912,991
5951,916,994
5952,914,994
5953,915,991
5954,916,989
5955,915,994
5956,920,997
5957,920,996
5958,924,999
5959,924,998
5960,925,996
5961,926,1000
5962,929,1004
5963,934,1005
5964,935,1006
5965,940,1007
5966,941,1008
5967,941,1011
5968,950,1015
5969,954,1019
5970,958,1020
5971,958,1019
5972,962,1020
5973,964,1022
5974,968,1027
5975,975,1032
5976,979,1030
5977,983,1033
5978,983,1032
5979,986,1034
5980,990,1037
5981,995,1038
5982,996,1039
5983,999,1039
5984,1000,1038
5985,1001,1042
5986,1003,1045
5987,1006,1047
5988,1011,1047
5989,1009,1049
5990,1010,1048
5991,1011,1050
5992,1012,1053
5993,1014,1052
5994,1015,1052
5995,1012,1050
5996,1008,1051
5997,1008,1051
5998,1005,1051
5999,1007,1047
6000,1005,1047
6001,999,1041
6002,994,1038
6003,989,1036
6004,988,1034
6005,984,1035
6006,980,1031
6007,976,1025
6008,970,1022
6009,962,1019
6010,958,1017
6011,957,1014
6012,952,1011
6013,950,1008
6014,947,1002
6015,939,999
6016,938,1000
6017,941,996
6018,939,995
6019,933,993
6020,931,991
6021,930,988
6022,929,989
6023,930,987
6024,931,987
6025,930,985
6026,927,982
6027,923,983
6028,925,984
6029,925,987
6030,927,986
6031,926,983
6032,925,981
6033,924,981
6034,926,983
6035,926,983
6036,926,984
6037,928,980
6038,923,980
6039,926,982
6040,926,984
6041,929,983
6042,927,982
6043,929,980
6044,928,981
6045,922,983
6046,927,985
6047,929,986
6048,930,986
6049,930,985
6050,930,984
6051,929,983
6052,932,985
6053,933,989
6054,935,988
6055,935,986
6056,934,984
6057,933,988
6058,936,988
6059,937,989
6060,938,990
6061,935,987
6062,936,988
6063,935,989
6064,937,989
6065,937,988
6066,938,990
6067,936,987
6068,935,987
6069,935,986
6070,936,989
6071,938,988
6072,937,987
6073,934,985
6074,932,982
6075,934,984
6076,932,984
6077,935,985
6078,934,985
6079,932,984
6080,932,983
6081,931,982
6082,932,982
6083,933,984
6084,930,982
6085,929,981
6086,928,978
6087,925,978
6088,926,980
6089,929,981
6090,929,976
6091,926,974
6092,923,974
6093,921,976
6094,922,977
6095,924,977
6096,925,976
6097,923,972
6098,921,972
6099,920,972
6100,921,973
6101,924,975
6102,922,974
6103,921,970
6104,919,970
6105,920,971
6106,919,970
6107,921,972
6108,921,973
6109,920,970
6110,918,970
6111,917,969
6112,915,971
6113,918,970
6114,918,969
6115,915,967
6116,915,965
6117,914,966
6118,916,972
6119,916,969
6120,916,971
6121,915,969
6122,914,965
6123,915,967
6124,915,968
6125,916,969
6126,915,967
6127,915,965
6128,914,964
6129,911,966
6130,913,968
6131,914,967
6132,914,968
6133,915,965
6134,913,964
6135,915,962
6136,915,968
6137,919,968
6138,918,968
6139,919,965
6140,920,964
6141,921,965
6142,927,968
6143,932,968
6144,932,970
6145,931,971
6146,931,970
6147,929,969
6148,932,972
6149,936,972
6150,937,972
6151,937,970
6152,936,967
6153,934,967
6154,936,972
6155,939,972
6156,941,969
6157,940,969
6158,936,965
6159,934,965
6160,932,965
6161,932,965
6162,927,961
6163,927,960
6164,927,957
6165,929,957
6166,931,961
6167,931,966
6168,929,970
6169,924,972
6170,921,968
6171,918,968
6172,920,971
6173,919,971
6174,916,970
6175,913,967
6176,910,963
6177,908,964
6178,907,965
6179,908,967
6180,905,967
6181,904,964
6182,902,965
6183,902,962
6184,904,966
6185,904,967
6186,905,967
6187,903,966
6188,901,963
6189,900,968
6190,902,967
6191,904,968
6192,901,967
6193,899,965
6194,901,963
6195,902,965
6196,903,968
6197,908,968
6198,906,970
6199,906,967
6200,906,964
6201,904,965
6202,902,970
6203,897,972
6204,886,967
6205,877,961
6206,872,959
6207,878,965
6208,892,971
6209,912,981
6210,944,990
6211,1004,1007
6212,1077,1039
6213,1155,1086
6214,1230,1138
6215,1297,1191
6216,1344,1240
6217,1361,1271
6218,1343,1272
6219,1273,1241
6220,1169,1177
6221,1058,1090
6222,969,999
6223,911,930
6224,893,894
6225,885,887
6226,888,899
6227,895,915
6228,912,933
6229,925,952
6230,927,966
6231,921,976
6232,916,979
6233,915,979
6234,914,973
6235,914,971
6236,913,970
6237,910,972
6238,906,975
6239,908,977
6240,905,973
6241,904,971
6242,902,970
6243,899,970
6244,904,972
6245,903,971
6246,903,974
6247,901,971
6248,900,972
6249,898,972
6250,900,973
6251,903,975
6252,902,974
6253,902,972
6254,899,971
6255,898,972
6256,900,976
6257,901,975
6258,900,975
6259,900,975
6260,900,972
6261,898,972
6262,899,977
6263,902,978
6264,904,976
6265,901,973
6266,901,975
6267,903,974
6268,904,976
6269,907,978
6270,907,980
6271,906,979
6272,906,978
6273,906,980
6274,908,982
6275,909,983
6276,911,984
6277,912,983
6278,911,983
6279,912,986
6280,914,988
6281,920,990
6282,921,990
6283,919,989
6284,919,987
6285,922,993
6286,927,995
6287,931,995
6288,934,995
6289,935,998
6290,936,997
6291,938,1004
6292,944,1006
6293,947,1009
6294,948,1009
6295,951,1010
6296,956,1010
6297,959,1014
6298,963,1018
6299,969,1022
6300,971,1025
6301,975,1024
6302,977,1026
6303,980,1030
6304,987,1035
6305,990,1035
6306,991,1038
6307,993,1036
6308,994,1037
6309,996,1042
6310,999,1045
6311,1004,1047
6312,1005,1047
6313,1007,1046
6314,1008,1044
6315,1007,1048
6316,1010,1050
6317,1013,1053
6318,1015,1053
6319,1014,1049
6320,1013,1050
6321,1009,1052
6322,1011,1050
6323,1010,1052
6324,1008,1051
6325,1005,1047
6326,1000,1042
6327,996,1043
6328,996,1043
6329,993,1040
6330,990,1037
6331,983,1032
6332,977,1028
6333,972,1026
6334,969,1029
6335,964,1022
6336,961,1019
6337,955,1013
6338,952,1009
6339,948,1006
6340,945,1004
6341,947,1003
6342,941,1000
6343,939,997
6344,936,996
6345,933,995
6346,934,995
6347,936,995
6348,933,992
6349,931,991
6350,929,985
6351,928,986
6352,930,987
6353,930,988
6354,929,987
6355,928,984
6356,927,983
6357,927,983
6358,930,985
6359,930,985
6360,930,988
6361,929,984
6362,927,985
6363,928,986
6364,929,988
6365,931,987
6366,932,987
6367,931,986
6368,928,984
6369,927,986
6370,930,988
6371,933,988
6372,935,987
6373,933,986
6374,931,985
6375,932,986
6376,933,992
6377,937,992
6378,936,993
6379,936,990
6380,934,990
6381,934,989
6382,936,992
6383,936,992
6384,936,991
6385,934,991
6386,935,990
6387,935,990
6388,938,995
6389,938,993
6390,940,992
6391,939,992
6392,939,991
6393,937,995
6394,940,996
6395,939,998
6396,938,995
6397,937,996
6398,937,994
6399,936,992
6400,937,995
6401,940,997
6402,941,997
6403,937,993
6404,936,994
6405,935,992
6406,935,996
6407,935,996
6408,935,996
6409,935,994
6410,932,990
6411,930,993
6412,932,992
6413,933,993
6414,932,990
6415,931,988
6416,929,985
6417,928,987
6418,931,990
6419,932,992
6420,930,991
6421,928,988
6422,928,985
6423,925,986
6424,928,988
6425,929,987
6426,929,987
6427,925,984
6428,925,984
6429,923,983
6430,923,986
6431,924,984
6432,924,983
6433,923,982
6434,922,979
6435,923,980
6436,924,984
6437,924,983
6438,927,984
6439,923,982
6440,920,980
6441,919,982
6442,922,983
6443,923,982
6444,922,981
6445,922,980
6446,919,980
6447,918,980
6448,920,982
6449,922,981
6450,923,981
6451,923,979
6452,921,977
6453,921,977
6454,923,981
6455,921,982
6456,922,981
6457,921,980
6458,921,980
6459,919,983
6460,923,982
6461,926,984
6462,924,981
6463,923,981
6464,924,980
6465,922,980
6466,924,982
6467,926,981
6468,929,981
6469,930,980
6470,928,982
6471,929,982
6472,933,980
6473,937,983
6474,936,983
6475,939,982
6476,940,981
6477,937,983
6478,941,986
6479,944,988
6480,943,989
6481,946,984
6482,946,982
6483,946,985
6484,946,987
6485,946,987
6486,947,984
6487,947,984
6488,946,980
6489,943,980
6490,945,980
6491,945,983
6492,942,980
6493,940,979
6494,937,976
6495,936,975
6496,936,976
6497,942,976
6498,943,977
6499,945,977
6500,941,981
6501,941,986
6502,937,991
6503,937,991
6504,935,989
6505,932,988
6506,928,984
6507,923,985
6508,923,987
6509,924,986
6510,923,986
6511,924,984
6512,920,983
6513,918,985
6514,918,985
6515,919,985
6516,919,981
6517,916,981
6518,915,979
6519,914,982
6520,917,987
6521,918,984
6522,918,985
6523,918,983
6524,916,983
6525,915,985
6526,915,985
6527,919,987
6528,918,988
6529,917,985
6530,917,983
6531,915,986
6532,919,988
6533,921,989
6534,921,989
6535,919,989
6536,914,985
6537,914,986
6538,909,988
6539,904,985
6540,896,983
6541,888,980
6542,891,981
6543,902,986
6544,916,995
6545,932,1004
6546,965,1011
6547,1017,1022
6548,1084,1049
6549,1150,1089
6550,1211,1130
6551,1270,1169
6552,1320,1211
6553,1349,1246
6554,1357,1265
6555,1333,1266
6556,1268,1244
6557,1174,1188
6558,1072,1108
6559,990,1025
6560,936,963
6561,906,928
6562,897,920
6563,903,923
6564,911,934
6565,927,951
6566,940,971
6567,940,986
6568,937,998
6569,935,1001
6570,933,997
6571,930,994
6572,925,990
6573,923,993
6574,927,996
6575,926,998
6576,925,995
6577,921,993
6578,916,991
6579,917,994
6580,917,994
6581,918,995
6582,918,994
6583,917,992
6584,915,991
6585,912,990
6586,915,995
6587,916,997
6588,916,995
6589,914,993
6590,914,992
6591,910,994
6592,914,996
6593,916,997
6594,917,997
6595,914,995
6596,916,994
6597,915,995
6598,916,998
6599,919,1000
6600,919,1000
6601,918,998
6602,916,995
6603,916,997
6604,918,999
6605,924,1000
6606,923,1000
6607,921,998
6608,921,998
6609,922,1001
6610,923,1002
6611,926,1005
6612,925,1004
6613,926,1003
6614,925,1001
6615,926,1005
6616,928,1006
6617,932,1009
6618,933,1010
6619,936,1011
6620,936,1008
6621,935,1011
6622,938,1015
6623,944,1015
6624,945,1013
6625,947,1015
6626,948,1017
6627,949,1020
6628,952,1024
6629,959,1025
6630,961,1027
6631,964,1028
6632,967,1030
6633,970,1032
6634,974,1036
6635,981,1039
6636,983,1040
6637,984,1039
6638,986,1044
6639,990,1043
6640,997,1047
6641,999,1052
6642,1004,1055
6643,1006,1054
6644,1006,1054
6645,1008,1057
6646,1013,1062
6647,1017,1064
6648,1020,1064
6649,1021,1064
6650,1023,1064
6651,1022,1069
6652,1027,1071
6653,1030,1071
6654,1031,1072
6655,1029,1070
6656,1027,1069
6657,1026,1070
6658,1028,1072
6659,1029,1072
6660,1027,1074
6661,1024,1067
6662,1022,1066
6663,1018,1066
6664,1017,1065
6665,1014,1064
6666,1015,1062
6667,1009,1057
6668,1002,1055
6669,999,1053
6670,994,1052
6671,992,1050
6672,988,1047
6673,983,1041
6674,979,1037
6675,976,1035
6676,973,1032
6677,971,1032
6678,967,1029
6679,964,1023
6680,962,1022
6681,958,1020
6682,959,1021
6683,960,1021
6684,957,1016
6685,956,1014
6686,953,1013
6687,950,1014
6688,954,1015
6689,955,1012
6690,953,1011
6691,952,1009
6692,948,1010
6693,950,1010
6694,951,1012
6695,951,1013
6696,951,1011
6697,950,1008
6698,951,1008
6699,949,1009
6700,948,1011
6701,953,1011
6702,954,1008
6703,952,1008
6704,954,1008
6705,950,1007
6706,953,1010
6707,957,1012
6708,957,1014
6709,957,1012
6710,956,1012
6711,955,1013
6712,956,1017
6713,960,1017
6714,959,1016
6715,960,1015
6716,962,1013
6717,958,1017
6718,961,1017
6719,963,1018
6720,961,1019
6721,960,1016
6722,961,1020
6723,960,1017
6724,962,1021
6725,964,1021
6726,965,1021
6727,964,1020
6728,961,1020
6729,961,1020
6730,964,1023
6731,964,1023
6732,963,1022
6733,963,1021
6734,962,1021
6735,962,1023
6736,962,1024
6737,964,1023
6738,964,1022
6739,962,1019
6740,960,1018
6741,960,1020
6742,962,1023
6743,962,1023
6744,962,1020
6745,958,1019
6746,959,1017
6747,957,1017
6748,958,1019
6749,957,1018
6750,958,1019
6751,954,1015
6752,955,1010
6753,952,1011
6754,956,1013
6755,956,1011
6756,954,1011
6757,952,1008
6758,950,1005
6759,948,1007
6760,948,1009
6761,951,1008
6762,950,1010
6763,948,1008
6764,946,1009
6765,946,1007
6766,947,1008
6767,947,1009
6768,947,1009
6769,945,1008
6770,940,1007
6771,941,1005
6772,944,1007
6773,947,1007
6774,945,1007
6775,945,1004
6776,943,1004
6777,942,1004
6778,943,1007
6779,947,1005
6780,946,1007
6781,945,1005
6782,942,1000
6783,943,1004
6784,945,1004
6785,948,1007
6786,944,1005
6787,943,1003
6788,945,1001
6789,943,1003
6790,944,1006
6791,947,1005
6792,947,1007
6793,948,1005
6794,946,1003
6795,945,1004
6796,950,1006
6797,953,1005
6798,955,1008
6799,954,1004
6800,956,1005
6801,957,1008
6802,958,1009
6803,961,1010
6804,960,1011
6805,964,1009
6806,963,1006
6807,964,1009
6808,967,1011
6809,968,1011
6810,967,1009
6811,966,1009
6812,967,1007
6813,966,1006
6814,966,1008
6815,966,1008
6816,963,1005
6817,960,1004
6818,955,1002
6819,954,1002
6820,955,1002
6821,960,1002
6822,961,1004
6823,961,1004
6824,960,1007
6825,957,1012
6826,953,1013
6827,954,1013
6828,950,1014
6829,948,1010
6830,944,1009
6831,942,1010
6832,941,1010
6833,943,1010
6834,939,1007
6835,938,1006
6836,937,1005
6837,936,1002
6838,936,1007
6839,939,1007
6840,933,1005
6841,936,1004
6842,934,1003
6843,932,1004
6844,934,1006
6845,937,1005
6846,936,1005
6847,935,1003
6848,934,1007
6849,934,1007
6850,937,1008
6851,938,1009
6852,938,1010
6853,935,1007
6854,935,1005
6855,932,1007
6856,936,1008
6857,936,1010
6858,928,1008
6859,919,1006
6860,905,1002
6861,896,1000
6862,901,1002
6863,911,1007
6864,926,1011
6865,945,1016
6866,981,1027
6867,1042,1049
6868,1121,1083
6869,1197,1124
6870,1270,1175
6871,1336,1223
6872,1378,1272
6873,1396,1310
6874,1388,1322
6875,1339,1293
6876,1237,1233
6877,1121,1143
6878,1019,1050
6879,949,975
6880,921,938
6881,917,928
6882,921,937
6883,929,953
6884,946,975
6885,956,995
6886,959,1013
6887,954,1021
6888,949,1021
6889,945,1016
6890,944,1012
6891,943,1011
6892,942,1015
6893,943,1016
6894,937,1014
6895,934,1011
6896,931,1009
6897,928,1012
6898,931,1012
6899,934,1012
6900,930,1015
6901,929,1013
6902,927,1012
6903,927,1012
6904,928,1015
6905,930,1016
6906,928,1013
6907,929,1013
6908,927,1012
6909,926,1014
6910,928,1015
6911,929,1019
6912,929,1018
6913,929,1015
6914,928,1016
6915,926,1015
6916,929,1015
6917,931,1016
6918,932,1018
6919,931,1018
6920,932,1018
6921,932,1017
6922,932,1019
6923,934,1022
6924,934,1020
6925,936,1019
6926,935,1018
6927,936,1023
6928,939,1023
6929,942,1023
6930,941,1022
6931,943,1021
6932,941,1022
6933,942,1025
6934,946,1025
6935,949,1030
6936,949,1028
6937,952,1029
6938,952,1029
6939,953,1032
6940,958,1036
6941,962,1038
6942,964,1039
6943,966,1039
6944,967,1039
6945,970,1041
6946,976,1044
6947,981,1048
6948,983,1051
6949,987,1050
6950,988,1052
6951,992,1054
6952,999,1060
6953,1005,1060
6954,1005,1065
6955,1009,1066
6956,1011,1062
6957,1013,1070
6958,1019,1073
6959,1023,1076
6960,1027,1078
6961,1029,1077
6962,1031,1078
6963,1031,1080
6964,1036,1081
6965,1041,1088
6966,1044,1087
6967,1044,1086
6968,1044,1086
6969,1045,1089
6970,1047,1094
6971,1051,1093
6972,1049,1093
6973,1047,1091
6974,1047,1087
6975,1045,1089
6976,1046,1092
6977,1045,1088
6978,1040,1086
6979,1033,1084
6980,1030,1079
6981,1025,1079
6982,1023,1078
6983,1021,1075
6984,1013,1071
6985,1008,1062
6986,999,1058
6987,995,1056
6988,992,1054
6989,990,1049
6990,984,1046
6991,982,1040
6992,977,1036
6993,975,1033
6994,972,1036
6995,971,1034
6996,968,1030
6997,966,1027
6998,966,1027
6999,964,1026
7000,964,1028
7001,965,1027
7002,965,1026
7003,962,1021
7004,961,1021
7005,961,1021
7006,961,1022
7007,965,1024
7008,963,1021
7009,962,1019
7010,962,1018
7011,961,1022
7012,963,1023
7013,966,1024
7014,963,1022
7015,963,1021
7016,961,1019
7017,961,1022
7018,961,1024
7019,966,1024
7020,963,1023
7021,963,1023
7022,965,1022
7023,964,1025
7024,966,1027
7025,970,1028
7026,968,1030
7027,968,1029
7028,968,1029
7029,966,1031
7030,970,1033
7031,972,1032
7032,970,1034
7033,970,1031
7034,969,1030
7035,970,1033
7036,969,1035
7037,974,1038
7038,974,1035
7039,970,1034
7040,967,1031
7041,968,1031
7042,971,1033
7043,973,1035
7044,970,1033
7045,967,1030
7046,967,1030
7047,967,1032
7048,970,1034
7049,974,1037
7050,970,1036
7051,968,1032
7052,965,1030
7053,962,1031
7054,965,1030
7055,968,1031
7056,964,1031
7057,964,1028
7058,962,1028
7059,962,1028
7060,962,1028
7061,963,1027
7062,962,1026
7063,960,1023
7064,960,1023
7065,956,1024
7066,959,1026
7067,960,1026
7068,956,1023
7069,955,1023
7070,952,1020
7071,952,1019
7072,953,1024
7073,955,1022
7074,955,1021
7075,954,1018
7076,954,1017
7077,952,1018
7078,950,1019
7079,955,1020
7080,952,1019
7081,951,1015
7082,950,1015
7083,949,1018
7084,951,1019
7085,952,1019
7086,951,1016
7087,953,1016
7088,948,1015
7089,949,1017
7090,950,1017
7091,951,1015
7092,952,1016
7093,951,1014
7094,950,1011
7095,949,1015
7096,952,1017
7097,953,1017
7098,951,1015
7099,952,1013
7100,948,1017
7101,949,1015
7102,951,1019
7103,954,1020
7104,953,1015
7105,955,1015
7106,958,1013
7107,961,1015
7108,962,1017
7109,967,1019
7110,966,1018
7111,968,1017
7112,966,1018
7113,967,1019
7114,971,1022
7115,976,1022
7116,974,1019
7117,973,1020
7118,972,1018
7119,973,1018
7120,977,1022
7121,977,1021
7122,974,1020
7123,972,1017
7124,969,1015
7125,966,1012
7126,964,1014
7127,963,1011
7128,964,1010
7129,966,1009
7130,965,1008
7131,966,1013
7132,969,1022
7133,967,1025
7134,960,1025
7135,954,1020
7136,952,1018
7137,949,1019
7138,953,1021
7139,952,1020
7140,947,1019
7141,948,1018
7142,943,1018
7143,942,1016
7144,944,1017
7145,945,1018
7146,943,1017
7147,940,1014
7148,939,1015
7149,939,1015
7150,940,1018
7151,942,1018
7152,941,1017
7153,939,1014
7154,938,1013
7155,936,1017
7156,940,1018
7157,945,1016
7158,942,1018
7159,941,1015
7160,940,1017
7161,939,1016
7162,940,1021
7163,943,1020
7164,941,1019
7165,932,1018
7166,919,1013
7167,909,1011
7168,907,1013
7169,918,1017
7170,933,1024
7171,953,1026
7172,990,1035
7173,1052,1058
7174,1132,1096
7175,1213,1142
7176,1282,1191
7177,1341,1237
7178,1381,1280
7179,1396,1306
7180,1376,1306
7181,1306,1268
7182,1191,1194
7183,1070,1092
7184,979,1008
7185,934,955
7186,921,939
7187,921,944
7188,927,957
7189,945,977
7190,961,1000
7191,967,1020
7192,963,1030
7193,958,1028
7194,952,1026
7195,951,1022
7196,951,1021
7197,949,1024
7198,948,1028
7199,948,1027
7200,945,1025
7201,943,1022
7202,942,1021
7203,941,1021
7204,941,1023
7205,942,1023
7206,939,1023
7207,938,1021
7208,936,1021
7209,937,1021
7210,937,1024
7211,941,1022
7212,940,1022
7213,939,1021
7214,936,1019
7215,938,1020
7216,938,1023
7217,940,1023
7218,941,1023
7219,937,1024
7220,938,1023
7221,938,1025
7222,941,1028
7223,943,1028
7224,944,1027
7225,941,1026
7226,941,1026
7227,942,1023
7228,942,1027
7229,945,1026
7230,943,1026
7231,944,1028
7232,943,1027
7233,944,1027
7234,947,1031
7235,951,1031
7236,949,1034
7237,951,1032
7238,952,1034
7239,954,1035
7240,955,1038
7241,959,1039
7242,961,1041
7243,963,1040
7244,962,1041
7245,964,1042
7246,970,1045
7247,974,1047
7248,977,1048
7249,979,1049
7250,982,1049
7251,982,1054
7252,990,1058
7253,996,1062
7254,999,1063
7255,1002,1063
7256,1005,1064
7257,1007,1066
7258,1011,1070
7259,1018,1073
7260,1022,1077
7261,1023,1079
7262,1026,1079
7263,1029,1081
7264,1032,1085
7265,1036,1090
7266,1040,1089
7267,1040,1087
7268,1042,1090
7269,1044,1090
7270,1046,1093
7271,1050,1095
7272,1051,1095
7273,1049,1094
7274,1050,1094
7275,1048,1096
7276,1049,1098
7277,1048,1097
7278,1046,1094
7279,1041,1089
7280,1038,1086
7281,1035,1087
7282,1033,1088
7283,1031,1084
7284,1026,1081
7285,1016,1074
7286,1011,1067
7287,1007,1065
7288,1006,1064
7289,1001,1062
7290,997,1057
7291,994,1052
7292,987,1049
7293,985,1047
7294,983,1047
7295,983,1045
7296,981,1041
7297,978,1038
7298,976,1038
7299,974,1036
7300,974,1037
7301,975,1037
7302,975,1036
7303,974,1032
7304,970,1033
7305,971,1030
7306,970,1033
7307,973,1033
7308,972,1034
7309,968,1031
7310,968,1027
7311,971,1030
7312,971,1032
7313,972,1033
7314,972,1033
7315,970,1029
7316,965,1030
7317,969,1032
7318,971,1035
7319,974,1035
7320,975,1036
7321,974,1033
7322,972,1029
7323,970,1033
7324,973,1034
7325,976,1035
7326,976,1036
7327,977,1034
7328,977,1035
7329,976,1037
7330,977,1039
7331,980,1038
7332,980,1037
7333,978,1037
7334,978,1039
7335,979,1040
7336,979,1041
7337,982,1038
7338,982,1037
7339,980,1037
7340,979,1036
7341,978,1039
7342,980,1042
7343,983,1040
7344,981,1041
7345,980,1037
7346,978,1035
7347,980,1037
7348,978,1037
7349,982,1038
7350,980,1039
7351,979,1037
7352,975,1034
7353,973,1035
7354,975,1037
7355,976,1035
7356,974,1034
7357,975,1032
7358,971,1030
7359,973,1031
7360,971,1032
7361,972,1031
7362,971,1032
7363,972,1030
7364,971,1026
7365,968,1029
7366,968,1032
7367,970,1030
7368,970,1031
7369,969,1027
7370,966,1025
7371,965,1026
7372,967,1027
7373,971,1028
7374,969,1026
7375,967,1024
7376,964,1021
7377,961,1023
7378,965,1024
7379,966,1023
7380,965,1024
7381,964,1024
7382,960,1020
7383,960,1022
7384,961,1023
7385,962,1023
7386,961,1021
7387,959,1021
7388,957,1018
7389,960,1022
7390,961,1023
7391,963,1022
7392,962,1021
7393,960,1019
7394,960,1016
7395,958,1016
7396,960,1021
7397,963,1019
7398,961,1020
7399,959,1019
7400,959,1018
7401,956,1019
7402,959,1022
7403,960,1022
7404,963,1022
7405,963,1020
7406,960,1016
7407,964,1018
7408,969,1022
7409,972,1020
7410,978,1022
7411,975,1020
7412,972,1018
7413,976,1019
7414,979,1023
7415,983,1025
7416,982,1023
7417,980,1022
7418,980,1019
7419,982,1020
7420,981,1023
7421,985,1021
7422,985,1019
7423,982,1019
7424,982,1017
7425,980,1017
7426,981,1020
7427,979,1015
7428,979,1015
7429,971,1012
7430,968,1008
7431,969,1010
7432,975,1012
7433,979,1011
7434,978,1014
7435,973,1017
7436,969,1019
7437,966,1020
7438,965,1021
7439,965,1022
7440,965,1023
7441,962,1023
7442,959,1022
7443,957,1023
7444,958,1021
7445,958,1022
7446,954,1021
7447,952,1016
7448,949,1015
7449,950,1017
7450,950,1018
7451,952,1017
7452,950,1020
7453,950,1016
7454,950,1017
7455,949,1018
7456,953,1022
7457,951,1020
7458,952,1020
7459,953,1019
7460,952,1018
7461,951,1019
7462,952,1019
7463,954,1021
7464,953,1022
7465,952,1019
7466,950,1019
7467,949,1020
7468,944,1022
7469,936,1020
7470,926,1017
7471,919,1010
7472,925,1013
7473,937,1023
7474,957,1032
7475,991,1042
7476,1045,1060
7477,1111,1092
7478,1183,1134
7479,1253,1181
7480,1318,1227
7481,1362,1268
7482,1382,1293
7483,1369,1295
7484,1310,1268
7485,1209,1207
7486,1095,1118
7487,1011,1038
7488,955,981
7489,931,955
7490,928,955
7491,937,971
7492,958,993
7493,975,1017
7494,977,1028
7495,968,1032
7496,961,1029
7497,957,1025
7498,957,1024
7499,959,1027
7500,957,1028
7501,954,1025
7502,949,1024
7503,948,1024
7504,947,1023
7505,949,1024
7506,947,1024
7507,945,1023
7508,943,1023
7509,943,1022
7510,945,1023
7511,947,1022
7512,947,1021
7513,943,1020
7514,941,1018
7515,944,1020
7516,946,1024
7517,948,1023
7518,947,1023
7519,948,1022
7520,944,1023
7521,944,1024
7522,946,1027
7523,948,1026
7524,949,1026
7525,948,1025
7526,946,1024
7527,948,1026
7528,950,1026
7529,951,1028
7530,952,1028
7531,952,1025
7532,950,1027
7533,952,1031
7534,955,1032
7535,958,1033
7536,959,1033
7537,960,1033
7538,958,1033
7539,958,1036
7540,963,1038
7541,967,1041
7542,966,1040
7543,969,1041
7544,967,1041
7545,971,1044
7546,975,1048
7547,979,1050
7548,983,1051
7549,984,1051
7550,988,1054
7551,990,1056
7552,995,1061
7553,1004,1065
7554,1006,1066
7555,1008,1067
7556,1013,1067
7557,1014,1073
7558,1021,1078
7559,1025,1079
7560,1028,1081
7561,1031,1081
7562,1031,1082
7563,1034,1086
7564,1038,1087
7565,1044,1091
7566,1047,1092
7567,1048,1090
7568,1048,1092
7569,1052,1094
7570,1054,1097
7571,1054,1095
7572,1056,1095
7573,1054,1094
7574,1051,1092
7575,1049,1092
7576,1051,1095
7577,1047,1091
7578,1045,1090
7579,1040,1086
7580,1034,1081
7581,1029,1082
7582,1027,1078
7583,1026,1074
7584,1020,1073
7585,1013,1068
7586,1008,1063
7587,1003,1061
7588,1002,1060
7589,998,1054
7590,996,1051
7591,992,1049
7592,987,1046
7593,985,1046
7594,985,1045
7595,985,1042
7596,981,1040
7597,979,1036
7598,978,1034
7599,976,1035
7600,977,1037
7601,976,1035
7602,974,1035
7603,973,1031
7604,973,1029
7605,973,1029
7606,975,1030
7607,978,1030
7608,978,1029
7609,976,1031
7610,974,1029
7611,975,1031
7612,976,1034
7613,980,1032
7614,978,1033
7615,979,1031
7616,975,1028
7617,976,1032
7618,979,1033
7619,982,1034
7620,982,1032
7621,980,1032
7622,980,1033
7623,982,1033
7624,980,1036
7625,983,1036
7626,982,1035
7627,983,1036
7628,981,1035
7629,982,1035
7630,983,1037
7631,983,1040
7632,984,1039
7633,982,1037
7634,981,1036
7635,978,1035
7636,983,1036
7637,983,1036
7638,981,1035
7639,982,1035
7640,984,1034
7641,982,1035
7642,984,1036
7643,984,1037
7644,985,1038
7645,982,1035
7646,983,1033
7647,981,1035
7648,983,1037
7649,986,1036
7650,983,1036
7651,979,1034
7652,978,1032
7653,979,1031
7654,978,1034
7655,977,1035
7656,981,1033
7657,978,1029
7658,976,1028
7659,978,1029
7660,978,1031
7661,977,1027
7662,978,1027
7663,976,1025
7664,975,1024
7665,973,1024
7666,974,1027
7667,976,1026
7668,975,1025
7669,974,1024
7670,969,1022
7671,969,1023
7672,968,1021
7673,970,1024
7674,969,1023
7675,968,1019
7676,966,1018
7677,965,1019
7678,967,1020
7679,968,1021
7680,969,1021
7681,966,1017
7682,966,1015
7683,963,1017
7684,967,1019
7685,968,1019
7686,966,1018
7687,966,1013
7688,964,1016
7689,963,1015
7690,964,1018
7691,967,1019
7692,966,1017
7693,964,1015
7694,963,1011
7695,963,1014
7696,964,1015
7697,966,1014
7698,964,1016
7699,964,1012
7700,963,1012
7701,963,1013
7702,966,1014
7703,970,1016
7704,972,1014
7705,974,1011
7706,975,1014
7707,978,1013
7708,980,1017
7709,982,1019
7710,982,1019
7711,980,1017
7712,980,1016
7713,982,1017
7714,985,1020
7715,987,1019
7716,986,1018
7717,985,1016
7718,985,1015
7719,987,1017
7720,989,1018
7721,988,1021
7722,988,1020
7723,984,1016
7724,980,1014
7725,978,1013
7726,975,1014
7727,977,1012
7728,978,1010
7729,979,1009
7730,979,1010
7731,979,1015
7732,979,1019
7733,975,1020
7734,973,1022
7735,972,1021
7736,966,1020
7737,966,1018
7738,965,1021
7739,964,1022
7740,963,1019
7741,960,1017
7742,957,1015
7743,954,1015
7744,957,1016
7745,958,1015
7746,955,1012
7747,953,1012
7748,950,1011
7749,952,1013
7750,954,1016
7751,954,1016
7752,953,1014
7753,953,1011
7754,948,1012
7755,951,1014
7756,953,1016
7757,953,1015
7758,954,1015
7759,952,1012
7760,952,1012
7761,950,1014
7762,954,1014
7763,955,1015
7764,954,1012
7765,953,1013
7766,947,1012
7767,939,1013
7768,930,1014
7769,920,1008
7770,919,1005
7771,923,1006
7772,937,1014
7773,958,1020
7774,995,1035
7775,1055,1051
7776,1132,1090
7777,1206,1130
7778,1277,1180
7779,1346,1232
7780,1396,1281
7781,1417,1314
7782,1404,1323
7783,1350,1293
7784,1250,1227
7785,1131,1136
7786,1031,1045
7787,966,977
7788,937,938
7789,929,927
7790,933,940
7791,948,966
7792,966,993
7793,979,1013
7794,976,1025
7795,967,1024
7796,963,1023
7797,960,1019
7798,961,1021
7799,959,1021
7800,960,1022
7801,955,1020
7802,949,1017
7803,947,1017
7804,947,1016
7805,949,1017
7806,946,1017
7807,945,1014
7808,945,1017
7809,943,1018
7810,944,1016
7811,948,1020
7812,945,1016
7813,943,1015
7814,943,1014
7815,944,1015
7816,946,1019
7817,947,1019
7818,946,1019
7819,944,1018
7820,943,1016
7821,944,1018
7822,945,1018
7823,949,1021
7824,948,1022
7825,947,1020
7826,945,1018
7827,945,1023
7828,948,1024
7829,951,1026
7830,949,1026
7831,952,1022
7832,949,1021
7833,950,1025
7834,952,1025
7835,953,1027
7836,957,1027
7837,956,1026
7838,955,1028
7839,957,1029
7840,961,1031
7841,962,1031
7842,965,1035
7843,966,1033
7844,963,1032
7845,966,1036
7846,971,1039
7847,975,1042
7848,980,1042
7849,981,1044
7850,983,1044
7851,986,1049
7852,992,1051
7853,995,1055
7854,1001,1056
7855,1005,1057
7856,1006,1056
7857,1010,1063
7858,1015,1069
7859,1018,1069
7860,1023,1069
7861,1025,1070
7862,1029,1074
7863,1033,1079
7864,1038,1081
7865,1041,1082
7866,1043,1084
7867,1044,1082
7868,1042,1083
7869,1046,1086
7870,1050,1089
7871,1053,1089
7872,1055,1089
7873,1054,1090
7874,1054,1091
7875,1055,1091
7876,1056,1093
7877,1058,1093
7878,1058,1091
7879,1054,1089
7880,1050,1086
7881,1049,1087
7882,1048,1089
7883,1045,1085
7884,1043,1084
7885,1037,1079
7886,1031,1075
7887,1026,1071
7888,1022,1074
7889,1019,1066
7890,1015,1065
7891,1009,1059
7892,1002,1054
7893,999,1051
7894,997,1049
7895,995,1046
7896,991,1043
7897,988,1040
7898,983,1038
7899,980,1035
7900,981,1035
7901,980,1035
7902,979,1033
7903,977,1028
7904,972,1027
7905,973,1026
7906,971,1027
7907,974,1028
7908,975,1027
7909,974,1024
7910,969,1022
7911,969,1023
7912,972,1026
7913,973,1025
7914,975,1025
7915,972,1024
7916,971,1021
7917,972,1024
7918,972,1025
7919,971,1024
7920,975,1023
7921,971,1023
7922,971,1022
7923,970,1025
7924,971,1025
7925,975,1024
7926,974,1025
7927,974,1025
7928,972,1023
7929,974,1024
7930,976,1028
7931,980,1027
7932,979,1027
7933,977,1027
7934,976,1026
7935,978,1028
7936,980,1030
7937,982,1029
7938,982,1029
7939,980,1031
7940,979,1030
7941,978,1028
7942,980,1033
7943,982,1033
7944,982,1031
7945,979,1030
7946,978,1028
7947,979,1031
7948,979,1034
7949,982,1032
7950,978,1033
7951,978,1030
7952,979,1028
7953,980,1031
7954,980,1032
7955,980,1033
7956,980,1030
7957,980,1028
7958,978,1028
7959,979,1029
7960,978,1031
7961,981,1032
7962,975,1030
7963,974,1024
7964,973,1024
7965,973,1025
7966,976,1027
7967,975,1028
7968,974,1025
7969,975,1023
7970,971,1020
7971,972,1023
7972,972,1027
7973,974,1025
7974,974,1024
7975,973,1019
7976,971,1018
7977,970,1022
7978,970,1021
7979,971,1023
7980,968,1019
7981,967,1017
7982,967,1016
7983,966,1018
7984,969,1019
7985,969,1018
7986,967,1017
7987,966,1016
7988,965,1013
7989,965,1014
7990,966,1015
7991,966,1017
7992,966,1016
7993,965,1014
7994,964,1011
7995,963,1013
7996,965,1014
7997,967,1015
7998,965,1015
7999,962,1011
8000,962,1010
8001,963,1011
8002,961,1015
8003,965,1015
8004,966,1013
8005,966,1011
8006,963,1008
8007,964,1011
8008,964,1013
8009,966,1012
8010,966,1012
8011,965,1011
8012,961,1008
8013,963,1010
8014,962,1011
8015,964,1010
8016,965,1012
8017,961,1010
8018,961,1008
8019,965,1011
8020,970,1013
8021,972,1011
8022,978,1013
8023,978,1012
8024,975,1011
8025,976,1013
8026,979,1014
8027,982,1014
8028,980,1015
8029,981,1011
8030,983,1012
8031,982,1015
8032,984,1015
8033,986,1018
8034,985,1015
8035,985,1013
8036,985,1012
8037,987,1015
8038,988,1017
8039,985,1015
8040,985,1015
8041,981,1012
8042,977,1009
8043,975,1008
8044,974,1006
8045,975,1005
8046,978,1006
8047,979,1006
8048,977,1008
8049,974,1013
8050,974,1018
8051,972,1020
8052,969,1015
8053,966,1015
8054,963,1014
8055,962,1013
8056,962,1017
8057,962,1014
8058,961,1012
8059,958,1010
8060,955,1010
8061,953,1009
8062,951,1012
8063,954,1013
8064,952,1009
8065,951,1007
8066,949,1007
8067,949,1010
8068,951,1013
8069,952,1011
8070,951,1010
8071,950,1007
8072,945,1007
8073,946,1010
8074,948,1010
8075,950,1014
8076,953,1010
8077,952,1010
8078,950,1009
8079,949,1008
8080,951,1013
8081,954,1011
8082,951,1011
8083,947,1009
8084,935,1008
8085,921,1008
8086,914,1006
8087,915,1006
8088,928,1010
8089,942,1015
8090,965,1020
8091,1015,1037
8092,1085,1066
8093,1165,1104
8094,1242,1150
8095,1310,1195
8096,1364,1241
8097,1400,1291
8098,1409,1316
8099,1393,1317
8100,1336,1289
8101,1235,1224
8102,1124,1134
8103,1025,1044
8104,964,975
8105,939,938
8106,934,930
8107,933,936
8108,939,953
8109,958,976
8110,972,1000
8111,977,1016
8112,970,1022
8113,961,1023
8114,958,1017
8115,957,1019
8116,957,1018
8117,959,1019
8118,955,1019
8119,951,1015
8120,948,1012
8121,944,1014
8122,946,1014
8123,946,1016
8124,946,1016
8125,945,1016
8126,941,1015
8127,940,1015
8128,942,1016
8129,943,1016
8130,943,1016
8131,941,1016
8132,939,1016
8133,938,1014
8134,942,1020
8135,945,1018
8136,944,1020
8137,943,1017
8138,941,1016
8139,941,1018
8140,943,1021
8141,945,1021
8142,945,1023
8143,944,1019
8144,941,1019
8145,944,1023
8146,947,1023
8147,951,1023
8148,951,1025
8149,950,1022
8150,949,1022
8151,950,1022
8152,951,1026
8153,953,1028
8154,956,1026
8155,955,1028
8156,953,1027
8157,955,1028
8158,958,1029
8159,964,1034
8160,963,1031
8161,964,1030
8162,965,1033
8163,967,1036
8164,971,1039
8165,975,1039
8166,978,1041
8167,979,1040
8168,979,1042
8169,984,1047
8170,991,1050
8171,997,1052
8172,999,1053
8173,1001,1054
8174,1004,1055
8175,1007,1060
8176,1014,1065
8177,1018,1067
8178,1022,1068
8179,1022,1064
8180,1023,1067
8181,1027,1072
8182,1035,1077
8183,1037,1078
8184,1041,1079
8185,1042,1081
8186,1043,1082
8187,1044,1082
8188,1048,1086
8189,1054,1088
8190,1054,1089
8191,1056,1089
8192,1054,1087
8193,1056,1089
8194,1058,1093
8195,1059,1094
8196,1059,1093
8197,1055,1091
8198,1048,1088
8199,1050,1089
8200,1050,1089
8201,1048,1087
8202,1048,1085
8203,1039,1084
8204,1035,1078
8205,1031,1077
8206,1026,1075
8207,1026,1073
8208,1020,1069
8209,1015,1065
8210,1007,1061
8211,1002,1057
8212,1001,1055
8213,999,1051
8214,995,1049
8215,990,1044
8216,983,1044
8217,980,1040
8218,980,1041
8219,980,1037
8220,979,1036
8221,974,1033
8222,973,1027
8223,973,1026
8224,972,1029
8225,976,1028
8226,975,1029
8227,972,1024
8228,971,1024
8229,968,1025
8230,970,1025
8231,972,1024
8232,972,1022
8233,969,1021
8234,966,1019
8235,965,1022
8236,968,1024
8237,972,1024
8238,972,1023
8239,970,1020
8240,971,1020
8241,971,1022
8242,971,1025
8243,975,1023
8244,973,1026
8245,972,1022
8246,970,1024
8247,971,1024
8248,976,1027
8249,977,1028
8250,978,1027
8251,976,1025
8252,972,1024
8253,976,1028
8254,978,1030
8255,980,1030
8256,979,1032
8257,978,1029
8258,977,1028
8259,976,1028
8260,980,1028
8261,980,1030
8262,980,1029
8263,978,1028
8264,976,1027
8265,976,1029
8266,980,1033
8267,979,1029
8268,978,1030
8269,979,1026
8270,977,1027
8271,977,1030
8272,977,1034
8273,977,1032
8274,977,1032
8275,976,1028
8276,974,1030
8277,976,1031
8278,978,1034
8279,977,1032
8280,978,1031
8281,975,1028
8282,972,1029
8283,971,1028
8284,973,1030
8285,974,1028
8286,974,1026
8287,970,1024
8288,970,1024
8289,971,1025
8290,971,1026
8291,971,1026
8292,972,1024
8293,968,1023
8294,964,1022
8295,967,1022
8296,965,1024
8297,967,1021
8298,966,1023
8299,963,1021
8300,961,1019
8301,962,1017
8302,962,1020
8303,964,1020
8304,967,1021
8305,963,1016
8306,962,1017
8307,963,1018
8308,963,1020
8309,965,1018
8310,964,1017
8311,961,1013
8312,958,1015
8313,957,1014
8314,958,1017
8315,960,1017
8316,958,1016
8317,955,1013
8318,955,1012
8319,957,1015
8320,957,1016
8321,960,1017
8322,960,1013
8323,957,1011
8324,955,1011
8325,955,1009
8326,957,1014
8327,960,1010
8328,960,1013
8329,957,1012
8330,958,1009
8331,957,1010
8332,958,1014
8333,958,1013
8334,959,1013
8335,958,1013
8336,958,1011
8337,958,1012
8338,959,1016
8339,961,1014
8340,965,1014
8341,969,1013
8342,970,1013
8343,973,1015
8344,971,1017
8345,975,1017
8346,975,1018
8347,974,1016
8348,971,1013
8349,972,1016
8350,976,1016
8351,978,1016
8352,979,1016
8353,979,1012
8354,976,1012
8355,979,1014
8356,982,1016
8357,985,1018
8358,984,1017
8359,981,1014
8360,978,1014
8361,975,1014
8362,974,1012
8363,973,1008
8364,972,1006
8365,970,1004
8366,970,1002
8367,972,1004
8368,971,1007
8369,973,1014
8370,972,1017
8371,966,1016
8372,962,1016
8373,958,1018
8374,961,1018
8375,962,1019
8376,957,1016
8377,954,1014
8378,950,1012
8379,950,1014
8380,954,1015
8381,952,1015
8382,952,1014
8383,947,1011
8384,947,1009
8385,946,1009
8386,948,1010
8387,950,1013
8388,949,1014
8389,948,1013
8390,948,1011
8391,947,1011
8392,946,1013
8393,949,1009
8394,948,1009
8395,948,1007
8396,947,1009
8397,948,1007
8398,949,1012
8399,951,1014
8400,951,1014
8401,951,1012
8402,945,1012
8403,946,1013
8404,942,1013
8405,932,1013
8406,918,1009
8407,915,1004
8408,920,1008
8409,933,1016
8410,952,1024
8411,986,1035
8412,1045,1053
8413,1121,1087
8414,1194,1129
8415,1267,1178
8416,1334,1224
8417,1372,1268
8418,1385,1294
8419,1365,1291
8420,1301,1262
8421,1200,1202
8422,1093,1117
8423,1009,1030
8424,954,968
8425,929,937
8426,923,938
8427,929,953
8428,948,973
8429,967,1000
8430,973,1013
8431,967,1022
8432,960,1022
8433,958,1023
8434,957,1021
8435,959,1022
8436,958,1019
8437,955,1020
8438,949,1017
8439,948,1017
8440,945,1020
8441,948,1017
8442,947,1019
8443,945,1012
8444,943,1013
8445,942,1015
8446,942,1019
8447,945,1018
8448,944,1017
8449,941,1017
8450,941,1016
8451,940,1019
8452,944,1017
8453,943,1020
8454,942,1016
8455,941,1016
8456,939,1018
8457,942,1019
8458,944,1022
8459,946,1022
8460,945,1020
8461,943,1018
8462,942,1017
8463,943,1020
8464,946,1022
8465,948,1023
8466,946,1022
8467,945,1021
8468,946,1017
8469,945,1021
8470,949,1024
8471,948,1024
8472,948,1027
8473,948,1024
8474,949,1025
8475,950,1026
8476,952,1027
8477,955,1028
8478,959,1028
8479,958,1027
8480,956,1030
8481,959,1031
8482,965,1035
8483,970,1036
8484,969,1036
8485,968,1037
8486,969,1036
8487,972,1038
8488,978,1042
8489,981,1045
8490,983,1046
8491,984,1044
8492,985,1046
8493,989,1052
8494,994,1055
8495,999,1059
8496,1000,1061
8497,1006,1060
8498,1007,1062
8499,1012,1065
8500,1018,1070
8501,1022,1071
8502,1020,1073
8503,1023,1074
8504,1024,1075
8505,1029,1075
8506,1033,1080
8507,1038,1083
8508,1039,1084
8509,1039,1084
8510,1041,1084
8511,1043,1087
8512,1047,1089
8513,1050,1090
8514,1050,1090
8515,1050,1089
8516,1050,1087
8517,1053,1090
8518,1051,1093
8519,1053,1092
8520,1050,1089
8521,1049,1084
8522,1045,1084
8523,1044,1086
8524,1042,1087
8525,1038,1085
8526,1034,1082
8527,1028,1075
8528,1021,1070
8529,1019,1070
8530,1015,1069
8531,1014,1067
8532,1010,1062
8533,1004,1056
8534,1000,1054
8535,997,1052
8536,995,1053
8537,993,1051
8538,990,1046
8539,985,1042
8540,980,1041
8541,978,1038
8542,983,1038
8543,983,1037
8544,982,1036
8545,979,1033
8546,977,1028
8547,973,1030
8548,977,1034
8549,978,1030
8550,976,1030
8551,972,1029
8552,972,1026
8553,974,1025
8554,975,1026
8555,977,1026
8556,977,1029
8557,976,1025
8558,975,1026
8559,975,1032
8560,977,1031
8561,977,1031
8562,978,1030
8563,977,1024
8564,977,1026
8565,976,1026
8566,978,1030
8567,980,1030
8568,981,1029
8569,979,1028
8570,976,1028
8571,976,1029
8572,978,1032
8573,981,1032
8574,981,1032
8575,979,1031
8576,979,1031
8577,980,1032
8578,983,1036
8579,983,1035
8580,986,1037
8581,982,1035
8582,982,1035
8583,982,1036
8584,985,1037
8585,984,1036
8586,984,1035
8587,981,1034
8588,983,1033
8589,982,1033
8590,981,1038
8591,983,1036
8592,983,1038
8593,981,1035
8594,980,1034
8595,980,1033
8596,980,1035
8597,982,1033
8598,980,1033
8599,979,1031
8600,977,1029
8601,977,1030
8602,976,1033
8603,980,1031
8604,980,1031
8605,981,1029
8606,975,1027
8607,975,1031
8608,977,1032
8609,978,1033
8610,978,1030
8611,975,1028
8612,972,1026
8613,972,1027
8614,971,1026
8615,973,1025
8616,972,1024
8617,971,1024
8618,968,1022
8619,969,1022
8620,966,1023
8621,972,1024
8622,971,1021
8623,968,1019
8624,964,1019
8625,964,1021
8626,964,1023
8627,967,1021
8628,966,1022
8629,964,1019
8630,961,1018
8631,963,1020
8632,963,1021
8633,962,1018
8634,962,1017
8635,963,1017
8636,962,1016
8637,962,1018
8638,965,1020
8639,967,1018
8640,966,1020
8641,965,1016
8642,961,1016
8643,961,1018
8644,965,1020
8645,966,1019
8646,962,1018
8647,963,1014
8648,962,1015
8649,961,1015
8650,963,1018
8651,963,1018
8652,964,1018
8653,961,1016
8654,962,1014
8655,962,1014
8656,965,1016
8657,968,1019
8658,968,1018
8659,972,1016
8660,973,1017
8661,974,1019
8662,976,1021
8663,980,1023
8664,981,1019
8665,979,1019
8666,978,1019
8667,978,1021
8668,983,1022
8669,986,1021
8670,987,1018
8671,983,1017
8672,979,1014
8673,981,1018
8674,984,1019
8675,988,1021
8676,986,1020
8677,984,1018
8678,982,1015
8679,978,1018
8680,978,1017
8681,978,1014
8682,974,1011
8683,975,1008
8684,974,1006
8685,976,1009
8686,978,1012
8687,979,1013
8688,979,1018
8689,974,1019
8690,968,1020
8691,966,1021
8692,967,1024
8693,967,1023
8694,967,1022
8695,962,1020
8696,960,1019
8697,955,1018
8698,960,1020
8699,960,1020
8700,959,1019
8701,956,1016
8702,954,1014
8703,955,1015
8704,953,1017
8705,956,1017
8706,956,1016
8707,954,1015
8708,952,1015
8709,950,1015
8710,953,1018
8711,955,1018
8712,955,1016
8713,953,1017
8714,952,1014
8715,953,1017
8716,955,1019
8717,956,1019
8718,959,1018
8719,956,1016
8720,952,1017
8721,952,1019
8722,953,1020
8723,953,1021
8724,949,1021
8725,939,1016
8726,929,1012
8727,927,1013
8728,933,1018
8729,945,1023
8730,960,1028
8731,981,1035
8732,1016,1045
8733,1075,1067
8734,1141,1104
