'sample #','MLII','V1'
0,935,1076
1,935,1076
2,935,1076
3,935,1076
4,935,1076
5,935,1076
6,935,1076
7,935,1076
8,934,1076
9,938,1074
10,937,1074
11,943,1076
12,947,1078
13,951,1074
14,953,1075
15,956,1071
16,959,1071
17,963,1073
18,967,1077
19,972,1074
20,975,1071
21,979,1069
22,976,1067
23,979,1069
24,982,1070
25,985,1070
26,986,1068
27,985,1065
28,983,1065
29,983,1067
30,984,1067
31,983,1067
32,982,1064
33,981,1062
34,977,1062
35,977,1063
36,980,1064
37,977,1063
38,976,1063
39,973,1061
40,968,1060
41,969,1060
42,971,1063
43,970,1064
44,970,1062
45,967,1059
46,963,1058
47,963,1057
48,965,1061
49,966,1058
50,964,1062
51,963,1060
52,961,1059
53,962,1061
54,961,1064
55,965,1062
56,964,1058
57,962,1059
58,961,1058
59,961,1062
60,960,1063
61,961,1057
62,963,1059
63,962,1054
64,958,1055
65,959,1058
66,958,1060
67,960,1059
68,960,1056
69,962,1053
70,959,1052
71,958,1056
72,958,1059
73,959,1056
74,959,1055
75,957,1053
76,957,1054
77,958,1055
78,960,1058
79,960,1058
80,957,1055
81,957,1052
82,955,1052
83,956,1055
84,959,1056
85,960,1055
86,959,1052
87,954,1052
88,952,1051
89,954,1051
90,959,1055
91,962,1051
92,959,1053
93,957,1051
94,956,1052
95,956,1054
96,958,1054
97,959,1054
98,957,1052
99,956,1050
100,955,1050
101,958,1054
102,957,1055
103,959,1054
104,959,1053
105,957,1050
106,956,1051
107,959,1052
108,959,1053
109,960,1052
110,959,1052
111,958,1052
112,955,1051
113,959,1054
114,959,1058
115,959,1055
116,960,1054
117,959,1051
118,958,1052
119,957,1052
120,963,1059
121,962,1063
122,965,1066
123,967,1066
124,966,1067
125,975,1067
126,978,1069
127,982,1069
128,978,1068
129,975,1068
130,975,1065
131,979,1063
132,986,1061
133,993,1058
134,995,1056
135,994,1056
136,993,1058
137,994,1057
138,996,1060
139,998,1057
140,1000,1053
141,999,1051
142,996,1051
143,995,1056
144,994,1057
145,993,1053
146,994,1052
147,989,1049
148,984,1049
149,976,1048
150,968,1048
151,959,1049
152,952,1046
153,948,1044
154,946,1043
155,948,1046
156,948,1049
157,950,1047
158,948,1044
159,945,1043
160,941,1042
161,945,1045
162,945,1045
163,948,1045
164,950,1045
165,949,1046
166,946,1046
167,947,1045
168,948,1049
169,951,1047
170,949,1046
171,950,1043
172,944,1043
173,947,1045
174,950,1046
175,949,1046
176,950,1041
177,950,1041
178,952,1036
179,953,1034
180,953,1036
181,951,1038
182,950,1035
183,950,1030
184,953,1024
185,964,1019
186,982,1010
187,1007,998
188,1034,981
189,1071,962
190,1104,949
191,1142,939
192,1179,941
193,1207,945
194,1229,955
195,1244,963
196,1256,969
197,1260,975
198,1242,984
199,1216,991
200,1189,999
201,1166,1005
202,1139,1013
203,1106,1023
204,1075,1032
205,1053,1032
206,1043,1037
207,1025,1041
208,1003,1043
209,985,1049
210,975,1053
211,967,1052
212,959,1055
213,949,1057
214,938,1057
215,930,1063
216,925,1063
217,923,1060
218,920,1058
219,914,1056
220,912,1055
221,914,1058
222,916,1063
223,920,1063
224,916,1062
225,916,1060
226,914,1058
227,915,1059
228,918,1063
229,921,1064
230,918,1062
231,918,1061
232,917,1063
233,915,1064
234,919,1065
235,921,1066
236,922,1065
237,919,1064
238,917,1065
239,920,1065
240,922,1068
241,923,1069
242,922,1067
243,919,1062
244,917,1065
245,917,1065
246,921,1067
247,922,1067
248,921,1069
249,920,1068
250,918,1065
251,915,1068
252,917,1070
253,919,1069
254,921,1068
255,918,1069
256,917,1069
257,918,1074
258,921,1073
259,920,1074
260,918,1071
261,919,1068
262,921,1070
263,920,1072
264,925,1073
265,928,1075
266,926,1072
267,927,1072
268,925,1071
269,930,1074
270,930,1078
271,934,1077
272,935,1077
273,938,1074
274,937,1074
275,940,1076
276,944,1079
277,949,1074
278,950,1073
279,952,1076
280,954,1076
281,958,1078
282,964,1080
283,972,1077
284,974,1075
285,976,1072
286,977,1072
287,978,1071
288,982,1073
289,983,1072
290,988,1070
291,989,1067
292,987,1066
293,990,1067
294,991,1067
295,992,1067
296,993,1067
297,990,1061
298,990,1063
299,989,1065
300,989,1065
301,987,1063
302,987,1061
303,985,1059
304,984,1059
305,981,1060
306,980,1065
307,981,1061
308,978,1063
309,971,1059
310,968,1057
311,971,1058
312,972,1062
313,971,1061
314,973,1060
315,968,1059
316,962,1057
317,963,1062
318,966,1062
319,967,1061
320,964,1060
321,967,1060
322,966,1058
323,966,1061
324,966,1063
325,965,1059
326,965,1057
327,962,1056
328,962,1057
329,962,1058
330,961,1059
331,961,1061
332,961,1060
333,959,1058
334,958,1057
335,959,1056
336,962,1058
337,961,1057
338,960,1055
339,959,1052
340,952,1055
341,957,1057
342,960,1057
343,962,1056
344,960,1054
345,960,1053
346,958,1053
347,958,1053
348,962,1057
349,966,1055
350,964,1054
351,959,1050
352,958,1049
353,955,1050
354,959,1052
355,960,1053
356,960,1050
357,962,1053
358,961,1053
359,960,1055
360,960,1055
361,961,1053
362,962,1050
363,958,1049
364,956,1049
365,957,1052
366,959,1054
367,960,1053
368,960,1051
369,959,1049
370,955,1050
371,957,1050
372,960,1052
373,960,1053
374,960,1053
375,958,1051
376,952,1049
377,955,1052
378,960,1053
379,960,1053
380,958,1051
381,956,1049
382,953,1053
383,955,1053
384,958,1062
385,963,1063
386,964,1063
387,965,1067
388,963,1067
389,967,1070
390,975,1071
391,979,1071
392,979,1070
393,975,1067
394,972,1063
395,974,1064
396,980,1064
397,983,1063
398,989,1063
399,988,1059
400,989,1057
401,990,1057
402,995,1055
403,1000,1054
404,995,1053
405,994,1050
406,991,1052
407,990,1054
408,991,1059
409,990,1055
410,987,1054
411,983,1050
412,976,1047
413,970,1049
414,959,1052
415,952,1051
416,946,1050
417,945,1051
418,943,1046
419,943,1050
420,941,1050
421,942,1049
422,944,1047
423,942,1047
424,940,1047
425,940,1050
426,944,1053
427,945,1050
428,945,1048
429,944,1046
430,946,1046
431,946,1050
432,947,1050
433,948,1053
434,946,1049
435,944,1048
436,945,1046
437,947,1050
438,949,1050
439,950,1048
440,951,1045
441,947,1043
442,946,1043
443,947,1046
444,946,1048
445,946,1044
446,947,1040
447,950,1032
448,958,1021
449,979,1014
450,1006,1000
451,1042,979
452,1078,961
453,1116,948
454,1152,948
455,1190,956
456,1220,970
457,1241,980
458,1259,981
459,1259,984
460,1237,989
461,1206,999
462,1180,1011
463,1156,1013
464,1130,1021
465,1101,1029
466,1073,1034
467,1059,1040
468,1055,1046
469,1043,1049
470,1024,1052
471,1001,1052
472,986,1055
473,974,1059
474,965,1063
475,954,1067
476,941,1068
477,933,1062
478,926,1063
479,925,1062
480,925,1065
481,922,1065
482,920,1064
483,916,1065
484,912,1065
485,914,1065
486,916,1066
487,920,1068
488,921,1067
489,920,1063
490,918,1064
491,919,1065
492,925,1068
493,929,1067
494,927,1067
495,925,1063
496,922,1063
497,921,1064
498,923,1066
499,925,1065
500,924,1064
501,926,1068
502,925,1068
503,926,1071
504,926,1072
505,927,1071
506,924,1068
507,923,1069
508,921,1069
509,921,1071
510,922,1071
511,923,1070
512,923,1069
513,924,1066
514,923,1066
515,922,1068
516,924,1070
517,924,1070
518,924,1068
519,923,1064
520,919,1066
521,921,1067
522,921,1068
523,921,1071
524,925,1071
525,924,1069
526,922,1067
527,925,1069
528,926,1074
529,930,1071
530,929,1073
531,928,1069
532,929,1071
533,934,1072
534,936,1071
535,941,1074
536,942,1071
537,940,1072
538,944,1071
539,947,1073
540,955,1074
541,959,1074
542,960,1071
543,957,1071
544,959,1069
545,963,1070
546,967,1069
547,973,1069
548,976,1069
549,977,1066
550,977,1066
551,978,1064
552,983,1067
553,986,1064
554,984,1065
555,984,1065
556,980,1062
557,983,1062
558,980,1063
559,983,1065
560,981,1060
561,975,1059
562,972,1061
563,974,1062
564,973,1062
565,974,1060
566,971,1057
567,968,1055
568,964,1057
569,965,1060
570,964,1063
571,964,1060
572,963,1060
573,962,1059
574,958,1060
575,958,1061
576,960,1062
577,961,1062
578,960,1062
579,958,1061
580,955,1060
581,955,1063
582,956,1064
583,957,1063
584,957,1062
585,956,1061
586,953,1058
587,956,1059
588,955,1059
589,956,1058
590,954,1058
591,954,1055
592,951,1058
593,951,1061
594,954,1063
595,957,1058
596,957,1060
597,954,1056
598,952,1056
599,950,1057
600,952,1058
601,955,1058
602,954,1056
603,951,1055
604,951,1053
605,950,1056
606,953,1057
607,953,1056
608,952,1056
609,951,1053
610,951,1054
611,953,1056
612,957,1056
613,956,1054
614,953,1053
615,949,1053
616,947,1055
617,949,1055
618,952,1058
619,954,1056
620,953,1056
621,951,1053
622,949,1053
623,950,1055
624,952,1057
625,953,1056
626,953,1056
627,951,1052
628,951,1052
629,953,1054
630,957,1055
631,959,1057
632,957,1055
633,952,1055
634,949,1053
635,953,1057
636,957,1061
637,960,1062
638,960,1066
639,966,1067
640,964,1068
641,969,1070
642,974,1070
643,980,1065
644,976,1067
645,973,1064
646,975,1062
647,981,1062
648,988,1063
649,990,1062
650,991,1061
651,995,1058
652,997,1061
653,999,1059
654,1001,1059
655,1003,1055
656,1001,1056
657,998,1055
658,990,1054
659,990,1054
660,988,1057
661,988,1057
662,982,1052
663,973,1049
664,961,1050
665,954,1052
666,950,1053
667,949,1050
668,950,1048
669,946,1045
670,943,1045
671,944,1047
672,946,1050
673,949,1049
674,948,1048
675,947,1046
676,943,1046
677,947,1048
678,949,1049
679,949,1049
680,948,1049
681,949,1046
682,948,1046
683,950,1050
684,953,1052
685,954,1052
686,953,1051
687,951,1047
688,949,1044
689,952,1046
690,954,1044
691,956,1044
692,956,1039
693,953,1039
694,948,1041
695,948,1042
696,952,1042
697,960,1036
698,978,1028
699,1004,1016
700,1035,1002
701,1072,988
702,1107,979
703,1146,967
704,1179,960
705,1209,960
706,1230,974
707,1245,989
708,1255,996
709,1252,993
710,1231,996
711,1201,1001
712,1175,1008
713,1154,1016
714,1132,1025
715,1098,1031
716,1062,1038
717,1040,1040
718,1021,1044
719,1008,1048
720,989,1053
721,975,1051
722,963,1054
723,951,1057
724,942,1059
725,934,1065
726,930,1068
727,926,1068
728,925,1066
729,917,1061
730,912,1061
731,910,1062
732,911,1065
733,913,1065
734,912,1063
735,911,1058
736,907,1059
737,910,1064
738,913,1066
739,914,1065
740,915,1063
741,913,1062
742,910,1061
743,912,1066
744,914,1067
745,915,1064
746,919,1062
747,918,1063
748,915,1065
749,917,1066
750,918,1068
751,918,1065
752,920,1065
753,919,1062
754,917,1061
755,917,1066
756,919,1069
757,917,1067
758,919,1065
759,918,1063
760,914,1062
761,917,1064
762,918,1066
763,920,1067
764,917,1066
765,915,1065
766,914,1065
767,916,1065
768,919,1069
769,919,1066
770,917,1068
771,916,1063
772,918,1066
773,920,1070
774,922,1072
775,924,1071
776,923,1067
777,921,1066
778,920,1064
779,922,1068
780,923,1072
781,925,1074
782,928,1071
783,929,1068
784,929,1066
785,933,1069
786,939,1069
787,944,1069
788,942,1069
789,943,1067
790,944,1066
791,947,1068
792,950,1070
793,955,1069
794,961,1067
795,962,1066
796,961,1068
797,966,1069
798,972,1069
799,974,1068
800,977,1065
801,978,1066
802,976,1064
803,979,1064
804,980,1067
805,983,1064
806,984,1062
807,988,1061
808,987,1061
809,988,1058
810,987,1062
811,990,1060
812,986,1062
813,982,1061
814,979,1059
815,978,1059
816,981,1060
817,981,1060
818,978,1060
819,974,1060
820,972,1060
821,970,1061
822,973,1063
823,973,1063
824,971,1061
825,969,1057
826,969,1057
827,968,1058
828,967,1060
829,970,1062
830,970,1060
831,965,1058
832,964,1057
833,962,1056
834,962,1059
835,965,1057
836,965,1057
837,965,1053
838,961,1054
839,961,1056
840,959,1058
841,961,1058
842,961,1059
843,961,1054
844,959,1053
845,957,1055
846,958,1057
847,958,1053
848,960,1052
849,960,1051
850,959,1053
851,959,1052
852,962,1057
853,962,1055
854,961,1055
855,963,1051
856,962,1053
857,960,1050
858,960,1053
859,960,1053
860,960,1053
861,960,1051
862,958,1051
863,960,1051
864,961,1051
865,963,1049
866,961,1048
867,961,1048
868,956,1048
869,957,1049
870,959,1051
871,961,1052
872,962,1048
873,958,1049
874,956,1046
875,960,1052
876,963,1055
877,965,1053
878,964,1051
879,961,1052
880,958,1049
881,958,1049
882,962,1051
883,965,1053
884,964,1052
885,960,1049
886,958,1048
887,959,1050
888,962,1051
889,965,1052
890,962,1052
891,960,1051
892,961,1054
893,965,1057
894,968,1063
895,971,1065
896,975,1065
897,975,1064
898,975,1061
899,976,1063
900,980,1067
901,981,1066
902,978,1066
903,982,1060
904,985,1057
905,988,1056
906,992,1057
907,997,1057
908,999,1058
909,998,1054
910,998,1051
911,1000,1051
912,1005,1051
913,1003,1051
914,1003,1050
915,998,1049
916,994,1048
917,996,1047
918,995,1049
919,990,1047
920,978,1046
921,968,1043
922,959,1040
923,956,1043
924,956,1044
925,957,1043
926,952,1042
927,951,1039
928,949,1041
929,950,1041
930,953,1041
931,956,1040
932,955,1040
933,954,1038
934,955,1039
935,954,1041
936,954,1042
937,958,1040
938,961,1039
939,959,1036
940,956,1037
941,958,1039
942,957,1041
943,961,1040
944,962,1039
945,962,1035
946,960,1035
947,961,1032
948,963,1033
949,963,1029
950,961,1029
951,959,1031
952,957,1030
953,958,1030
954,969,1024
955,991,1014
956,1022,997
957,1061,980
958,1095,963
959,1136,950
960,1178,948
961,1213,953
962,1234,963
963,1252,970
964,1260,976
965,1252,976
966,1231,983
967,1203,991
968,1178,1000
969,1159,1001
970,1138,1006
971,1116,1014
972,1086,1024
973,1058,1026
974,1037,1027
975,1018,1029
976,1002,1035
977,985,1040
978,970,1044
979,958,1045
980,951,1047
981,940,1049
982,927,1053
983,924,1057
984,922,1060
985,924,1055
986,923,1052
987,921,1051
988,917,1048
989,915,1052
990,916,1055
991,916,1056
992,916,1054
993,917,1054
994,920,1055
995,921,1055
996,921,1055
997,922,1054
998,922,1053
999,923,1054
1000,924,1055
1001,925,1058
1002,926,1055
1003,926,1054
1004,925,1053
1005,925,1053
1006,927,1055
1007,931,1055
1008,930,1054
1009,930,1054
1010,929,1052
1011,925,1052
1012,926,1052
1013,930,1055
1014,930,1056
1015,927,1055
1016,928,1052
1017,924,1052
1018,927,1053
1019,929,1055
1020,927,1054
1021,928,1052
1022,926,1053
1023,925,1054
1024,923,1055
1025,922,1057
1026,929,1057
1027,928,1056
1028,927,1053
1029,924,1054
1030,925,1054
1031,927,1060
1032,929,1057
1033,931,1058
1034,930,1055
1035,927,1056
1036,931,1056
1037,934,1058
1038,939,1057
1039,940,1055
1040,944,1054
1041,941,1057
1042,945,1058
1043,947,1059
1044,948,1059
1045,949,1059
1046,950,1056
1047,950,1056
1048,955,1055
1049,961,1059
1050,967,1060
1051,968,1059
1052,973,1056
1053,972,1054
1054,977,1054
1055,981,1056
1056,985,1055
1057,986,1054
1058,988,1051
1059,989,1051
1060,991,1053
1061,993,1053
1062,996,1052
1063,995,1051
1064,994,1047
1065,993,1046
1066,989,1051
1067,989,1052
1068,992,1048
1069,989,1046
1070,984,1044
1071,981,1043
1072,980,1044
1073,981,1046
1074,979,1047
1075,978,1044
1076,978,1044
1077,976,1045
1078,977,1046
1079,976,1048
1080,975,1044
1081,973,1041
1082,975,1041
1083,975,1040
1084,973,1045
1085,975,1046
1086,976,1045
1087,973,1042
1088,971,1040
1089,968,1041
1090,969,1045
1091,970,1046
1092,972,1046
1093,972,1046
1094,970,1042
1095,968,1039
1096,967,1046
1097,968,1043
1098,970,1043
1099,970,1043
1100,969,1042
1101,970,1040
1102,970,1043
1103,970,1044
1104,971,1041
1105,973,1041
1106,969,1038
1107,966,1039
1108,968,1039
1109,970,1042
1110,968,1041
1111,967,1039
1112,968,1037
1113,968,1036
1114,969,1039
1115,969,1039
1116,972,1039
1117,971,1037
1118,968,1035
1119,967,1032
1120,968,1035
1121,970,1037
1122,974,1035
1123,970,1037
1124,966,1036
1125,968,1036
1126,966,1035
1127,971,1040
1128,972,1039
1129,973,1037
1130,970,1036
1131,967,1035
1132,967,1036
1133,969,1041
1134,972,1038
1135,970,1036
1136,971,1036
1137,968,1034
1138,968,1036
1139,972,1038
1140,971,1037
1141,969,1036
1142,968,1033
1143,965,1035
1144,969,1039
1145,974,1038
1146,975,1036
1147,973,1036
1148,970,1036
1149,967,1036
1150,967,1042
1151,971,1047
1152,976,1048
1153,977,1052
1154,979,1051
1155,983,1053
1156,990,1054
1157,995,1054
1158,994,1052
1159,988,1051
1160,989,1048
1161,990,1044
1162,998,1041
1163,1004,1044
1164,1007,1042
1165,1006,1042
1166,1009,1039
1167,1007,1038
1168,1006,1041
1169,1009,1037
1170,1013,1034
1171,1011,1035
1172,1009,1036
1173,1006,1039
1174,1002,1039
1175,1002,1037
1176,1000,1032
1177,998,1031
1178,986,1028
1179,972,1030
1180,964,1030
1181,959,1031
1182,958,1034
1183,957,1031
1184,956,1029
1185,957,1029
1186,958,1030
1187,956,1033
1188,956,1030
1189,957,1031
1190,957,1029
1191,956,1030
1192,959,1031
1193,957,1032
1194,959,1031
1195,960,1030
1196,959,1033
1197,959,1031
1198,959,1033
1199,962,1034
1200,965,1034
1201,963,1031
1202,963,1027
1203,963,1028
1204,968,1028
1205,970,1029
1206,969,1027
1207,966,1028
1208,961,1022
1209,962,1021
1210,966,1018
1211,975,1007
1212,992,997
1213,1015,979
1214,1047,960
1215,1084,942
1216,1127,931
1217,1172,931
1218,1211,942
1219,1239,953
1220,1263,964
1221,1271,964
1222,1263,964
1223,1240,973
1224,1216,983
1225,1191,987
1226,1172,994
1227,1149,1002
1228,1117,1012
1229,1086,1022
1230,1067,1023
1231,1052,1027
1232,1029,1029
1233,1008,1030
1234,992,1038
1235,978,1040
1236,970,1046
1237,959,1047
1238,947,1048
1239,935,1046
1240,932,1047
1241,932,1048
1242,927,1047
1243,927,1046
1244,925,1045
1245,924,1046
1246,925,1047
1247,922,1048
1248,921,1050
1249,923,1047
1250,925,1045
1251,925,1047
1252,925,1050
1253,929,1050
1254,929,1051
1255,928,1051
1256,927,1048
1257,926,1046
1258,924,1049
1259,927,1050
1260,930,1051
1261,930,1050
1262,931,1051
1263,930,1050
1264,931,1050
1265,931,1053
1266,928,1050
1267,929,1051
1268,928,1050
1269,928,1051
1270,928,1054
1271,931,1055
1272,930,1055
1273,930,1053
1274,929,1053
1275,927,1053
1276,931,1055
1277,932,1056
1278,933,1057
1279,934,1056
1280,932,1055
1281,928,1054
1282,932,1054
1283,934,1057
1284,936,1057
1285,935,1059
1286,934,1055
1287,931,1057
1288,931,1058
1289,931,1061
1290,933,1059
1291,936,1057
1292,938,1058
1293,937,1059
1294,940,1059
1295,942,1062
1296,946,1060
1297,950,1056
1298,951,1057
1299,952,1057
1300,958,1058
1301,961,1061
1302,965,1060
1303,969,1060
1304,968,1059
1305,970,1060
1306,976,1059
1307,980,1061
1308,984,1058
1309,987,1056
1310,988,1055
1311,989,1053
1312,992,1056
1313,997,1054
1314,1001,1054
1315,999,1053
1316,998,1052
1317,993,1050
1318,994,1050
1319,996,1052
1320,997,1052
1321,996,1049
1322,992,1044
1323,989,1044
1324,989,1046
1325,988,1047
1326,990,1049
1327,987,1045
1328,984,1047
1329,981,1047
1330,980,1046
1331,979,1048
1332,977,1048
1333,977,1046
1334,976,1045
1335,974,1045
1336,974,1044
1337,976,1048
1338,977,1048
1339,974,1047
1340,974,1047
1341,968,1044
1342,970,1047
1343,970,1048
1344,972,1048
1345,969,1046
1346,969,1046
1347,964,1046
1348,967,1045
1349,969,1048
1350,971,1048
1351,970,1048
1352,968,1044
1353,965,1043
1354,966,1046
1355,967,1047
1356,971,1048
1357,967,1045
1358,965,1043
1359,965,1043
1360,962,1045
1361,966,1047
1362,968,1045
1363,967,1043
1364,966,1042
1365,966,1039
1366,965,1046
1367,966,1045
1368,967,1047
1369,966,1046
1370,967,1041
1371,962,1043
1372,964,1042
1373,963,1043
1374,965,1042
1375,966,1043
1376,966,1042
1377,966,1043
1378,965,1041
1379,964,1043
1380,968,1043
1381,968,1042
1382,967,1042
1383,964,1041
1384,966,1045
1385,967,1044
1386,969,1041
1387,970,1042
1388,969,1040
1389,964,1042
1390,966,1041
1391,969,1046
1392,969,1044
1393,970,1044
1394,967,1044
1395,965,1042
1396,967,1044
1397,968,1043
1398,971,1045
1399,970,1044
1400,970,1043
1401,970,1045
1402,969,1047
1403,973,1049
1404,973,1050
1405,973,1052
1406,971,1049
1407,970,1056
1408,979,1060
1409,983,1059
1410,985,1060
1411,987,1059
1412,985,1054
1413,984,1055
1414,985,1055
1415,989,1055
1416,995,1052
1417,998,1050
1418,998,1047
1419,999,1047
1420,1002,1050
1421,1005,1051
1422,1012,1049
1423,1010,1043
1424,1009,1042
1425,1003,1041
1426,1004,1045
1427,1007,1048
1428,1007,1047
1429,1006,1044
1430,1001,1040
1431,998,1042
1432,993,1039
1433,988,1042
1434,980,1040
1435,969,1039
1436,963,1039
1437,953,1038
1438,954,1039
1439,957,1040
1440,958,1039
1441,956,1039
1442,954,1038
1443,950,1038
1444,955,1040
1445,956,1038
1446,958,1038
1447,958,1038
1448,956,1034
1449,956,1035
1450,958,1038
1451,959,1041
1452,960,1040
1453,960,1038
1454,958,1036
1455,956,1036
1456,960,1039
1457,963,1040
1458,965,1039
1459,966,1037
1460,964,1037
1461,960,1032
1462,964,1030
1463,962,1034
1464,962,1034
1465,961,1035
1466,962,1031
1467,964,1033
1468,977,1025
1469,996,1018
1470,1024,1001
1471,1060,983
1472,1097,965
1473,1135,953
1474,1175,952
1475,1212,959
1476,1239,971
1477,1256,981
1478,1266,979
1479,1257,981
1480,1237,988
1481,1212,997
1482,1191,1002
1483,1175,1005
1484,1155,1008
1485,1129,1015
1486,1096,1029
1487,1068,1035
1488,1051,1038
1489,1038,1035
1490,1020,1039
1491,998,1044
1492,981,1046
1493,969,1053
1494,961,1055
1495,952,1057
1496,942,1057
1497,935,1056
1498,933,1057
1499,931,1059
1500,931,1057
1501,930,1055
1502,927,1057
1503,925,1057
1504,923,1058
1505,924,1058
1506,925,1060
1507,924,1058
1508,925,1057
1509,924,1059
1510,925,1062
1511,928,1062
1512,930,1061
1513,929,1057
1514,930,1056
1515,927,1059
1516,929,1062
1517,931,1063
1518,931,1060
1519,930,1060
1520,925,1057
1521,925,1059
1522,927,1059
1523,929,1061
1524,930,1061
1525,928,1059
1526,927,1058
1527,923,1056
1528,925,1058
1529,929,1058
1530,932,1059
1531,931,1058
1532,928,1056
1533,927,1058
1534,925,1061
1535,929,1064
1536,927,1061
1537,927,1060
1538,929,1059
1539,925,1059
1540,923,1064
1541,926,1066
1542,927,1064
1543,930,1065
1544,930,1061
1545,930,1062
1546,927,1065
1547,931,1064
1548,931,1064
1549,931,1064
1550,932,1065
1551,934,1065
1552,933,1066
1553,938,1066
1554,942,1066
1555,942,1065
1556,942,1063
1557,943,1065
1558,948,1068
1559,954,1067
1560,956,1065
1561,958,1062
1562,959,1063
1563,964,1062
1564,970,1063
1565,975,1067
1566,976,1066
1567,979,1066
1568,978,1062
1569,978,1062
1570,982,1061
1571,985,1062
1572,989,1064
1573,989,1060
1574,989,1060
1575,989,1058
1576,990,1061
1577,993,1063
1578,996,1061
1579,993,1057
1580,989,1056
1581,986,1055
1582,988,1056
1583,985,1057
1584,983,1059
1585,984,1059
1586,983,1055
1587,978,1053
1588,978,1054
1589,979,1057
1590,982,1056
1591,979,1057
1592,976,1055
1593,975,1057
1594,974,1057
1595,975,1058
1596,975,1059
1597,975,1059
1598,972,1055
1599,968,1056
1600,966,1058
1601,968,1060
1602,972,1058
1603,972,1057
1604,967,1056
1605,965,1056
1606,967,1059
1607,968,1059
1608,971,1058
1609,970,1057
1610,969,1054
1611,963,1055
1612,964,1056
1613,965,1054
1614,969,1054
1615,968,1054
1616,965,1055
1617,964,1053
1618,965,1053
1619,966,1055
1620,967,1054
1621,966,1053
1622,964,1053
1623,964,1052
1624,966,1053
1625,967,1054
1626,965,1052
1627,968,1053
1628,967,1050
1629,965,1051
1630,967,1052
1631,966,1054
1632,969,1053
1633,967,1052
1634,963,1050
1635,963,1052
1636,963,1052
1637,967,1051
1638,967,1051
1639,966,1050
1640,965,1049
1641,963,1049
1642,963,1051
1643,965,1052
1644,967,1053
1645,968,1052
1646,968,1051
1647,965,1049
1648,966,1051
1649,967,1052
1650,969,1052
1651,967,1052
1652,968,1049
1653,965,1049
1654,966,1050
1655,966,1051
1656,967,1049
1657,968,1048
1658,966,1048
1659,964,1048
1660,969,1049
1661,969,1053
1662,969,1050
1663,969,1050
1664,966,1052
1665,967,1054
1666,970,1057
1667,971,1062
1668,975,1062
1669,978,1065
1670,980,1065
1671,980,1063
1672,982,1064
1673,988,1064
1674,988,1064
1675,986,1064
1676,986,1058
1677,986,1055
1678,994,1057
1679,999,1056
1680,1003,1056
1681,1005,1052
1682,1006,1053
1683,1006,1051
1684,1009,1051
1685,1012,1051
1686,1011,1050
1687,1008,1050
1688,1005,1049
1689,1002,1047
1690,1003,1048
1691,1004,1050
1692,1004,1047
1693,999,1046
1694,990,1043
1695,979,1044
1696,970,1045
1697,965,1045
1698,963,1044
1699,959,1042
1700,955,1040
1701,956,1041
1702,957,1041
1703,959,1042
1704,960,1042
1705,958,1040
1706,956,1039
1707,954,1038
1708,956,1042
1709,960,1045
1710,960,1042
1711,960,1043
1712,960,1039
1713,959,1040
1714,959,1041
1715,960,1043
1716,964,1042
1717,965,1040
1718,963,1037
1719,962,1038
1720,962,1039
1721,963,1041
1722,966,1039
1723,968,1036
1724,963,1031
1725,962,1031
1726,961,1036
1727,959,1037
1728,962,1036
1729,964,1031
1730,973,1023
1731,988,1014
1732,1015,1004
1733,1051,989
1734,1088,970
1735,1123,955
1736,1159,947
1737,1195,948
1738,1227,961
1739,1251,974
1740,1264,978
1741,1265,978
1742,1244,982
1743,1214,991
1744,1188,998
1745,1173,1005
1746,1156,1006
1747,1128,1013
1748,1095,1018
1749,1072,1024
1750,1055,1029
1751,1052,1033
1752,1040,1035
1753,1020,1039
1754,999,1045
1755,980,1046
1756,966,1051
1757,959,1055
1758,953,1057
1759,945,1060
1760,937,1057
1761,933,1056
1762,932,1060
1763,929,1060
1764,928,1058
1765,925,1058
1766,924,1053
1767,922,1056
1768,924,1059
1769,927,1060
1770,929,1059
1771,928,1058
1772,925,1058
1773,926,1057
1774,927,1058
1775,929,1059
1776,935,1060
1777,932,1058
1778,927,1057
1779,925,1059
1780,926,1060
1781,928,1059
1782,931,1058
1783,931,1060
1784,930,1058
1785,928,1058
1786,929,1058
1787,932,1063
1788,930,1061
1789,932,1060
1790,930,1059
1791,930,1058
1792,928,1061
1793,927,1062
1794,929,1060
1795,929,1060
1796,926,1058
1797,922,1057
1798,922,1060
1799,922,1063
1800,925,1062
1801,924,1059
1802,922,1059
1803,923,1059
1804,925,1061
1805,923,1065
1806,926,1064
1807,926,1062
1808,925,1061
1809,925,1059
1810,927,1060
1811,930,1063
1812,931,1062
1813,927,1064
1814,928,1063
1815,927,1063
1816,930,1062
1817,936,1064
1818,938,1064
1819,936,1062
1820,937,1060
1821,939,1061
1822,943,1064
1823,944,1066
1824,947,1064
1825,951,1062
1826,953,1060
1827,954,1061
1828,958,1062
1829,961,1063
1830,966,1064
1831,969,1062
1832,970,1062
1833,971,1061
1834,974,1060
1835,975,1063
1836,981,1061
1837,984,1060
1838,986,1058
1839,985,1057
1840,989,1055
1841,992,1059
1842,993,1057
1843,994,1057
1844,992,1052
1845,991,1052
1846,992,1052
1847,993,1054
1848,993,1055
1849,990,1054
1850,987,1054
1851,984,1050
1852,982,1051
1853,985,1051
1854,984,1052
1855,982,1050
1856,977,1049
1857,976,1051
1858,975,1052
1859,977,1052
1860,980,1050
1861,978,1047
1862,973,1047
1863,970,1050
1864,969,1049
1865,971,1052
1866,972,1052
1867,971,1053
1868,971,1050
1869,969,1048
1870,967,1051
1871,969,1051
1872,971,1048
1873,972,1049
1874,969,1048
1875,966,1046
1876,968,1048
1877,965,1053
1878,968,1048
1879,967,1049
1880,966,1046
1881,962,1047
1882,965,1046
1883,967,1048
1884,967,1048
1885,965,1047
1886,962,1043
1887,959,1043
1888,962,1044
1889,965,1046
1890,967,1046
1891,965,1043
1892,963,1041
1893,963,1040
1894,962,1045
1895,965,1044
1896,966,1042
1897,966,1043
1898,964,1039
1899,963,1037
1900,965,1041
1901,964,1042
1902,964,1042
1903,965,1043
1904,967,1039
1905,965,1038
1906,966,1041
1907,968,1042
1908,969,1040
1909,966,1041
1910,963,1038
1911,963,1039
1912,965,1040
1913,967,1041
1914,969,1039
1915,966,1040
1916,965,1037
1917,962,1035
1918,964,1040
1919,965,1040
1920,969,1039
1921,969,1038
1922,966,1036
1923,964,1038
1924,963,1038
1925,966,1039
1926,966,1040
1927,967,1039
1928,968,1037
1929,967,1035
1930,966,1039
1931,967,1041
1932,968,1040
1933,967,1039
1934,969,1038
1935,967,1038
1936,969,1042
1937,971,1045
1938,971,1048
1939,971,1054
1940,971,1054
1941,973,1056
1942,980,1055
1943,987,1057
1944,989,1058
1945,988,1059
1946,984,1056
1947,981,1053
1948,986,1053
1949,992,1050
1950,999,1047
1951,1001,1045
1952,1002,1044
1953,1001,1045
1954,1001,1046
1955,1004,1047
1956,1009,1042
1957,1009,1041
1958,1007,1037
1959,1004,1038
1960,1005,1042
1961,1007,1043
1962,1004,1044
1963,1000,1043
1964,999,1039
1965,995,1036
1966,991,1037
1967,985,1036
1968,975,1036
1969,964,1034
1970,959,1031
1971,954,1033
1972,954,1034
1973,956,1037
1974,956,1037
1975,954,1034
1976,952,1033
1977,950,1032
1978,953,1033
1979,956,1036
1980,957,1033
1981,955,1034
1982,957,1031
1983,954,1031
1984,954,1035
1985,956,1036
1986,956,1032
1987,957,1032
1988,957,1032
1989,954,1034
1990,956,1035
1991,959,1036
1992,962,1035
1993,965,1030
1994,959,1029
1995,959,1030
1996,962,1031
1997,960,1031
1998,961,1030
1999,961,1028
2000,958,1027
2001,957,1026
2002,960,1021
2003,969,1016
2004,981,1004
2005,1004,990
2006,1026,972
2007,1057,955
2008,1092,941
2009,1129,937
2010,1165,936
2011,1196,940
2012,1220,947
2013,1240,957
2014,1260,966
2015,1265,969
2016,1255,973
2017,1229,980
2018,1200,988
2019,1178,994
2020,1161,997
2021,1143,1008
2022,1120,1014
2023,1090,1021
2024,1068,1022
2025,1057,1027
2026,1042,1032
2027,1027,1039
2028,1008,1042
2029,989,1042
2030,974,1042
2031,962,1049
2032,952,1054
2033,941,1057
2034,931,1058
2035,926,1056
2036,923,1053
2037,920,1053
2038,919,1055
2039,917,1054
2040,918,1056
2041,918,1055
2042,919,1053
2043,914,1055
2044,914,1056
2045,913,1059
2046,918,1058
2047,919,1057
2048,918,1056
2049,918,1057
2050,919,1059
2051,919,1061
2052,920,1060
2053,919,1059
2054,918,1057
2055,920,1057
2056,923,1058
2057,922,1061
2058,923,1064
2059,923,1063
2060,920,1060
2061,919,1058
2062,920,1060
2063,923,1063
2064,923,1062
2065,923,1062
2066,920,1061
2067,919,1061
2068,917,1063
2069,918,1065
2070,919,1063
2071,919,1063
2072,919,1062
2073,918,1062
2074,919,1063
2075,919,1066
2076,920,1065
2077,919,1066
2078,917,1064
2079,918,1065
2080,918,1066
2081,920,1068
2082,921,1067
2083,918,1069
2084,919,1065
2085,918,1066
2086,918,1068
2087,922,1071
2088,925,1071
2089,925,1069
2090,925,1067
2091,923,1068
2092,926,1069
2093,931,1070
2094,936,1071
2095,937,1070
2096,937,1068
2097,935,1070
2098,938,1070
2099,943,1072
2100,949,1072
2101,951,1071
2102,955,1070
2103,957,1069
2104,957,1073
2105,961,1075
2106,966,1074
2107,964,1070
2108,969,1069
2109,969,1071
2110,974,1070
2111,978,1074
2112,980,1072
2113,980,1068
2114,982,1068
2115,981,1066
2116,986,1067
2117,988,1066
2118,991,1063
2119,990,1064
2120,987,1062
2121,983,1061
2122,985,1061
2123,986,1062
2124,987,1062
2125,987,1060
2126,984,1060
2127,982,1058
2128,979,1059
2129,980,1061
2130,980,1063
2131,977,1060
2132,976,1058
2133,972,1058
2134,970,1061
2135,969,1061
2136,970,1060
2137,969,1060
2138,968,1057
2139,966,1059
2140,967,1061
2141,969,1063
2142,969,1059
2143,966,1058
2144,965,1056
2145,962,1057
2146,962,1059
2147,965,1061
2148,969,1061
2149,965,1058
2150,964,1059
2151,961,1060
2152,960,1060
2153,962,1060
2154,965,1059
2155,964,1057
2156,961,1059
2157,957,1057
2158,960,1057
2159,961,1060
2160,963,1058
2161,961,1058
2162,960,1054
2163,959,1053
2164,960,1056
2165,961,1057
2166,961,1056
2167,962,1056
2168,958,1053
2169,957,1054
2170,961,1054
2171,960,1054
2172,962,1051
2173,962,1054
2174,959,1051
2175,957,1048
2176,959,1053
2177,962,1055
2178,963,1052
2179,964,1052
2180,961,1048
2181,960,1047
2182,962,1050
2183,963,1053
2184,966,1052
2185,964,1052
2186,961,1052
2187,962,1048
2188,961,1048
2189,963,1053
2190,963,1051
2191,962,1050
2192,961,1049
2193,961,1047
2194,962,1048
2195,964,1052
2196,966,1051
2197,962,1051
2198,961,1048
2199,958,1049
2200,961,1052
2201,965,1054
2202,965,1054
2203,964,1054
2204,964,1051
2205,961,1051
2206,964,1051
2207,966,1054
2208,967,1054
2209,967,1054
2210,965,1052
2211,963,1052
2212,962,1055
2213,965,1060
2214,968,1063
2215,970,1065
2216,973,1066
2217,974,1068
2218,980,1070
2219,983,1071
2220,986,1071
2221,985,1069
2222,982,1068
2223,980,1063
2224,985,1060
2225,989,1061
2226,992,1056
2227,993,1057
2228,994,1056
2229,995,1058
2230,998,1057
2231,1002,1058
2232,1005,1055
2233,1002,1053
2234,1003,1051
2235,999,1051
2236,997,1055
2237,998,1056
2238,999,1055
2239,996,1050
2240,993,1046
2241,984,1045
2242,976,1048
2243,969,1053
2244,964,1049
2245,960,1048
2246,955,1046
2247,948,1045
2248,947,1048
2249,950,1048
2250,953,1046
2251,951,1041
2252,949,1042
2253,948,1044
2254,951,1049
2255,953,1051
2256,953,1049
2257,952,1047
2258,952,1045
2259,950,1046
2260,953,1047
2261,955,1048
2262,955,1046
2263,957,1043
2264,956,1045
2265,956,1045
2266,956,1045
2267,959,1045
2268,961,1043
2269,960,1041
2270,957,1038
2271,955,1035
2272,959,1040
2273,955,1039
2274,959,1036
2275,961,1029
2276,967,1020
2277,987,1006
2278,1019,990
2279,1057,973
2280,1099,952
2281,1143,943
2282,1176,941
2283,1213,949
2284,1242,962
2285,1264,973
2286,1280,980
2287,1275,980
2288,1253,982
2289,1223,991
2290,1194,1002
2291,1170,1009
2292,1149,1017
2293,1118,1027
2294,1085,1034
2295,1059,1037
2296,1044,1043
2297,1031,1048
2298,1012,1048
2299,995,1049
2300,977,1051
2301,966,1054
2302,957,1058
2303,947,1062
2304,937,1064
2305,932,1062
2306,926,1062
2307,925,1061
2308,922,1063
2309,919,1065
2310,917,1065
2311,916,1065
2312,917,1061
2313,913,1063
2314,912,1064
2315,918,1066
2316,920,1066
2317,920,1063
2318,919,1063
2319,916,1063
2320,918,1066
2321,919,1066
2322,920,1066
2323,920,1065
2324,921,1063
2325,919,1062
2326,921,1064
2327,924,1068
2328,924,1069
2329,923,1068
2330,922,1065
2331,918,1066
2332,918,1066
2333,922,1068
2334,922,1070
2335,923,1067
2336,923,1067
2337,922,1068
2338,918,1069
2339,922,1070
2340,924,1070
2341,923,1068
2342,921,1068
2343,919,1064
2344,920,1071
2345,924,1072
2346,925,1071
2347,925,1071
2348,921,1070
2349,920,1068
2350,919,1072
2351,922,1077
2352,922,1075
2353,922,1073
2354,924,1068
2355,924,1070
2356,926,1073
2357,928,1074
2358,927,1073
2359,930,1070
2360,932,1073
2361,931,1071
2362,934,1074
2363,937,1076
2364,940,1076
2365,941,1073
2366,942,1070
2367,942,1070
2368,944,1074
2369,952,1076
2370,956,1074
2371,958,1073
2372,962,1072
2373,962,1071
2374,964,1075
2375,969,1075
2376,973,1074
2377,977,1076
2378,978,1073
2379,977,1072
2380,982,1072
2381,986,1072
2382,989,1068
2383,992,1067
2384,992,1066
2385,992,1066
2386,991,1067
2387,990,1070
2388,988,1069
2389,989,1066
2390,987,1063
2391,983,1060
2392,983,1060
2393,984,1062
2394,982,1061
2395,980,1062
2396,979,1057
2397,974,1059
2398,974,1062
2399,974,1062
2400,972,1062
2401,972,1060
2402,970,1060
2403,965,1059
2404,967,1061
2405,972,1063
2406,972,1062
2407,970,1060
2408,969,1060
2409,963,1057
2410,964,1060
2411,965,1062
2412,965,1065
2413,966,1061
2414,967,1060
2415,964,1060
2416,963,1060
2417,964,1061
2418,965,1062
2419,964,1059
2420,962,1061
2421,961,1059
2422,961,1060
2423,963,1061
2424,964,1061
2425,963,1061
2426,964,1058
2427,960,1059
2428,960,1060
2429,961,1060
2430,960,1062
2431,959,1059
2432,960,1055
2433,958,1054
2434,958,1056
2435,960,1059
2436,963,1058
2437,962,1057
2438,961,1056
2439,960,1053
2440,961,1055
2441,963,1057
2442,964,1056
2443,963,1054
2444,963,1051
2445,958,1050
2446,960,1053
2447,963,1057
2448,964,1055
2449,963,1054
2450,965,1053
2451,964,1050
2452,959,1053
2453,963,1053
2454,966,1053
2455,965,1053
2456,964,1051
2457,961,1051
2458,960,1053
2459,962,1054
2460,963,1054
2461,964,1053
2462,962,1049
2463,960,1050
2464,962,1051
2465,963,1055
2466,965,1055
2467,965,1050
2468,962,1050
2469,961,1050
2470,960,1051
2471,962,1054
2472,962,1054
2473,963,1056
2474,962,1056
2475,963,1055
2476,963,1061
2477,966,1067
2478,972,1068
2479,974,1067
2480,976,1066
2481,974,1066
2482,977,1063
2483,980,1065
2484,982,1064
2485,979,1064
2486,980,1061
2487,979,1058
2488,988,1059
2489,992,1058
2490,995,1059
2491,999,1059
2492,997,1055
2493,999,1054
2494,1002,1054
2495,1003,1050
2496,1002,1051
2497,1001,1051
2498,997,1052
2499,993,1051
2500,993,1051
2501,990,1053
2502,989,1051
2503,985,1048
2504,977,1046
2505,968,1042
2506,959,1046
2507,958,1047
2508,955,1046
2509,952,1047
2510,949,1041
2511,948,1040
2512,949,1041
2513,948,1047
2514,948,1046
2515,948,1044
2516,946,1042
2517,949,1042
2518,953,1045
2519,953,1048
2520,954,1044
2521,955,1044
2522,955,1044
2523,954,1045
2524,955,1048
2525,956,1048
2526,958,1044
2527,959,1044
2528,957,1044
2529,956,1042
2530,956,1045
2531,960,1046
2532,962,1042
2533,959,1036
2534,960,1035
2535,957,1035
2536,956,1041
2537,960,1041
2538,961,1040
2539,969,1035
2540,985,1027
2541,1014,1017
2542,1047,1007
2543,1087,994
2544,1120,979
2545,1158,964
2546,1190,955
2547,1215,957
2548,1240,973
2549,1257,986
2550,1268,989
2551,1264,987
2552,1242,988
2553,1210,998
2554,1186,1005
2555,1168,1010
2556,1147,1016
2557,1112,1023
2558,1076,1028
2559,1049,1034
2560,1031,1037
2561,1018,1041
2562,1005,1044
2563,985,1044
2564,968,1046
2565,958,1048
2566,951,1053
2567,947,1059
2568,940,1059
2569,931,1059
2570,925,1055
2571,921,1056
2572,919,1059
2573,918,1059
2574,919,1057
2575,918,1056
2576,919,1056
2577,916,1055
2578,917,1058
2579,919,1060
2580,920,1059
2581,920,1058
2582,917,1056
2583,921,1056
2584,921,1058
2585,924,1059
2586,920,1060
2587,920,1057
2588,922,1055
2589,919,1055
2590,920,1059
2591,925,1062
2592,926,1059
2593,920,1056
2594,922,1056
2595,921,1055
2596,922,1057
2597,923,1060
2598,923,1057
2599,922,1058
2600,924,1053
2601,921,1055
2602,920,1057
2603,921,1057
2604,921,1056
2605,919,1055
2606,922,1055
2607,920,1057
2608,923,1055
2609,924,1060
2610,924,1060
2611,922,1059
2612,922,1057
2613,922,1059
2614,922,1059
2615,924,1062
2616,924,1060
2617,924,1057
2618,924,1057
2619,925,1058
2620,927,1061
2621,933,1064
2622,932,1063
2623,936,1061
2624,932,1060
2625,933,1058
2626,937,1062
2627,943,1062
2628,944,1061
2629,945,1061
2630,944,1060
2631,944,1060
2632,950,1061
2633,955,1063
2634,959,1060
2635,961,1059
2636,963,1057
2637,966,1057
2638,970,1060
2639,975,1061
2640,979,1057
2641,979,1057
2642,983,1053
2643,980,1049
2644,985,1053
2645,987,1058
2646,989,1056
2647,988,1055
2648,986,1050
2649,985,1050
2650,987,1050
2651,986,1053
2652,984,1053
2653,985,1052
2654,980,1049
2655,976,1048
2656,976,1052
2657,976,1052
2658,978,1051
2659,977,1051
2660,976,1051
2661,971,1050
2662,971,1051
2663,973,1054
2664,973,1052
2665,972,1050
2666,971,1049
2667,970,1049
2668,968,1050
2669,971,1052
2670,974,1052
2671,970,1052
2672,968,1047
2673,966,1048
2674,968,1049
2675,969,1053
2676,968,1052
2677,969,1048
2678,968,1049
2679,966,1048
2680,965,1049
2681,966,1051
2682,964,1048
2683,968,1048
2684,964,1045
2685,965,1047
2686,965,1048
2687,968,1052
2688,968,1047
2689,968,1046
2690,966,1042
2691,964,1042
2692,969,1047
2693,970,1046
2694,969,1045
2695,967,1045
2696,967,1042
2697,966,1040
2698,969,1044
2699,968,1042
2700,971,1044
2701,970,1041
2702,966,1039
2703,964,1043
2704,969,1042
2705,967,1043
2706,970,1041
2707,969,1043
2708,968,1040
2709,967,1039
2710,968,1042
2711,971,1046
2712,970,1044
2713,972,1041
2714,969,1039
2715,968,1039
2716,969,1043
2717,973,1043
2718,975,1040
2719,975,1040
2720,971,1040
2721,967,1039
2722,969,1042
2723,969,1042
2724,973,1041
2725,973,1042
2726,973,1039
2727,970,1040
2728,971,1042
2729,973,1041
2730,977,1042
2731,978,1045
2732,977,1045
2733,974,1048
2734,977,1053
2735,983,1057
2736,989,1057
2737,993,1056
2738,992,1054
2739,992,1053
2740,992,1055
2741,993,1055
2742,994,1052
2743,996,1048
2744,1001,1044
2745,1003,1042
2746,1008,1045
2747,1010,1046
2748,1013,1045
2749,1015,1041
2750,1015,1038
2751,1013,1037
2752,1014,1039
2753,1011,1042
2754,1010,1043
2755,1010,1042
2756,1008,1039
2757,1004,1036
2758,1000,1035
2759,992,1036
2760,985,1036
2761,974,1033
2762,966,1032
2763,961,1031
2764,961,1033
2765,960,1035
2766,965,1033
2767,962,1032
2768,960,1029
2769,961,1029
2770,961,1030
2771,965,1035
2772,969,1035
2773,968,1032
2774,966,1031
2775,961,1031
2776,965,1034
2777,966,1034
2778,966,1034
2779,969,1034
2780,966,1031
2781,964,1031
2782,966,1033
2783,969,1033
2784,971,1028
2785,973,1024
2786,971,1022
2787,966,1024
2788,965,1025
2789,967,1026
2790,973,1023
2791,980,1015
2792,993,1005
2793,1009,996
2794,1036,983
2795,1066,970
2796,1100,952
2797,1135,938
2798,1173,933
2799,1207,938
2800,1237,950
2801,1257,961
2802,1274,965
2803,1268,967
2804,1243,973
2805,1210,986
2806,1183,994
2807,1160,1001
2808,1138,1011
2809,1106,1015
2810,1079,1015
2811,1063,1019
2812,1050,1023
2813,1031,1030
2814,1013,1034
2815,998,1036
2816,985,1038
2817,973,1039
2818,962,1046
2819,955,1051
2820,950,1050
2821,943,1048
2822,939,1045
2823,936,1046
2824,934,1046
2825,934,1047
2826,934,1045
2827,931,1044
2828,932,1044
2829,928,1046
2830,932,1048
2831,935,1049
2832,938,1048
2833,937,1047
2834,934,1045
2835,931,1041
2836,932,1047
2837,934,1052
2838,935,1049
2839,938,1049
2840,936,1045
2841,936,1045
2842,933,1048
2843,938,1050
2844,936,1050
2845,937,1049
2846,937,1048
2847,935,1047
2848,935,1051
2849,937,1050
2850,937,1051
2851,937,1047
2852,935,1046
2853,936,1049
2854,937,1052
2855,938,1053
2856,938,1054
2857,936,1051
2858,936,1049
2859,937,1049
2860,937,1051
2861,938,1057
2862,940,1055
2863,938,1054
2864,936,1051
2865,936,1053
2866,935,1055
2867,937,1057
2868,942,1053
2869,941,1055
2870,941,1053
2871,938,1055
2872,941,1056
2873,943,1058
2874,946,1061
2875,948,1059
2876,947,1055
2877,945,1057
2878,947,1061
2879,952,1060
2880,958,1061
2881,960,1059
2882,962,1059
2883,962,1055
2884,962,1056
2885,968,1060
2886,975,1059
2887,979,1059
2888,982,1056
2889,983,1055
2890,985,1055
2891,991,1055
2892,994,1057
2893,996,1055
2894,997,1054
2895,1001,1053
2896,1002,1053
2897,1005,1055
2898,1005,1054
2899,1003,1051
2900,1002,1048
2901,1001,1048
2902,1003,1050
2903,1002,1051
2904,1002,1047
2905,999,1046
2906,996,1046
2907,994,1045
2908,993,1047
2909,994,1047
2910,993,1047
2911,990,1044
2912,989,1043
2913,986,1044
2914,988,1045
2915,990,1046
2916,989,1045
2917,989,1043
2918,986,1043
2919,982,1044
2920,984,1046
2921,984,1049
2922,985,1047
2923,984,1044
2924,981,1042
2925,980,1044
2926,979,1044
2927,981,1048
2928,985,1047
2929,980,1045
2930,983,1043
2931,978,1041
2932,978,1044
2933,980,1044
2934,981,1045
2935,981,1044
2936,978,1040
2937,974,1039
2938,976,1040
2939,978,1043
2940,980,1041
2941,981,1039
2942,978,1039
2943,978,1038
2944,980,1040
2945,979,1041
2946,978,1041
2947,978,1037
2948,980,1037
2949,978,1036
2950,978,1038
2951,979,1041
2952,981,1039
2953,980,1038
2954,980,1035
2955,979,1033
2956,979,1039
2957,982,1038
2958,981,1039
2959,982,1038
2960,981,1037
2961,981,1033
2962,981,1034
2963,982,1038
2964,984,1038
2965,981,1037
2966,979,1035
2967,978,1035
2968,981,1037
2969,984,1037
2970,983,1038
2971,983,1036
2972,984,1034
2973,981,1037
2974,985,1039
2975,986,1039
2976,989,1038
2977,986,1037
2978,982,1035
2979,980,1034
2980,981,1039
2981,985,1044
2982,986,1046
2983,987,1047
2984,989,1053
2985,994,1055
2986,1001,1053
2987,1005,1054
2988,1006,1056
2989,1002,1054
2990,1000,1054
2991,998,1050
2992,1002,1050
2993,1010,1049
2994,1014,1046
2995,1016,1042
2996,1017,1042
2997,1014,1040
2998,1016,1041
2999,1023,1040
3000,1026,1038
3001,1024,1038
3002,1020,1037
3003,1015,1037
3004,1015,1039
3005,1016,1038
3006,1013,1037
3007,1006,1033
3008,992,1031
3009,980,1032
3010,970,1034
3011,972,1036
3012,971,1033
3013,971,1032
3014,969,1031
3015,966,1031
3016,968,1033
3017,967,1033
3018,970,1033
3019,973,1030
3020,971,1031
3021,971,1030
3022,972,1032
3023,972,1033
3024,972,1032
3025,972,1031
3026,971,1030
3027,971,1030
3028,975,1031
3029,977,1032
3030,978,1032
3031,980,1030
3032,979,1030
3033,975,1027
3034,979,1024
3035,981,1027
3036,983,1025
3037,983,1025
3038,978,1022
3039,975,1018
3040,979,1014
3041,986,1009
3042,1003,994
3043,1029,981
3044,1064,960
3045,1102,942
3046,1147,932
3047,1190,929
3048,1225,933
3049,1250,942
3050,1266,950
3051,1278,955
3052,1288,962
3053,1279,969
3054,1253,978
3055,1218,984
3056,1192,992
3057,1167,1000
3058,1134,1008
3059,1106,1019
3060,1086,1023
3061,1071,1026
3062,1055,1026
3063,1032,1032
3064,1012,1036
3065,996,1040
3066,987,1041
3067,976,1044
3068,966,1048
3069,954,1050
3070,950,1052
3071,950,1051
3072,947,1047
3073,943,1048
3074,938,1047
3075,937,1045
3076,938,1050
3077,938,1052
3078,938,1049
3079,940,1049
3080,937,1049
3081,937,1049
3082,938,1053
3083,940,1055
3084,945,1056
3085,943,1053
3086,943,1055
3087,940,1053
3088,941,1054
3089,946,1055
3090,948,1053
3091,945,1053
3092,942,1052
3093,940,1052
3094,941,1053
3095,943,1055
3096,947,1056
3097,946,1053
3098,941,1052
3099,940,1051
3100,941,1054
3101,945,1056
3102,946,1056
3103,946,1055
3104,944,1054
3105,936,1054
3106,935,1057
3107,940,1060
3108,943,1055
3109,941,1052
3110,942,1055
3111,939,1056
3112,939,1059
3113,940,1059
3114,943,1059
3115,940,1061
3116,938,1057
3117,938,1058
3118,938,1058
3119,940,1061
3120,943,1062
3121,944,1062
3122,942,1058
3123,943,1057
3124,946,1057
3125,948,1064
3126,951,1062
3127,955,1063
3128,957,1063
3129,958,1060
3130,961,1060
3131,963,1062
3132,968,1064
3133,969,1062
3134,970,1061
3135,970,1062
3136,974,1063
3137,979,1064
3138,983,1063
3139,985,1060
3140,988,1059
3141,987,1058
3142,992,1058
3143,997,1061
3144,1002,1059
3145,1004,1058
3146,1004,1055
3147,1003,1051
3148,1002,1053
3149,1004,1053
3150,1008,1053
3151,1005,1052
3152,1005,1052
3153,999,1052
3154,1001,1051
3155,1002,1054
3156,1001,1051
3157,1001,1048
3158,999,1047
3159,993,1047
3160,994,1051
3161,997,1054
3162,995,1051
3163,995,1051
3164,994,1048
3165,991,1048
3166,989,1052
3167,990,1054
3168,988,1053
3169,987,1051
3170,984,1049
3171,984,1049
3172,985,1051
3173,986,1051
3174,984,1050
3175,986,1050
3176,984,1051
3177,983,1051
3178,983,1052
3179,983,1053
3180,985,1049
3181,984,1051
3182,981,1047
3183,979,1048
3184,979,1050
3185,980,1049
3186,979,1050
3187,977,1048
3188,977,1046
3189,978,1047
3190,981,1047
3191,981,1048
3192,982,1049
3193,982,1048
3194,981,1046
3195,979,1046
3196,982,1047
3197,983,1046
3198,984,1042
3199,981,1043
3200,979,1042
3201,977,1042
3202,978,1043
3203,981,1046
3204,985,1042
3205,985,1043
3206,983,1043
3207,978,1042
3208,979,1046
3209,981,1048
3210,983,1044
3211,982,1045
3212,979,1040
3213,978,1040
3214,981,1043
3215,980,1046
3216,979,1044
3217,978,1043
3218,979,1042
3219,980,1040
3220,980,1042
3221,983,1043
3222,983,1046
3223,982,1044
3224,981,1042
3225,979,1044
3226,980,1046
3227,980,1048
3228,980,1046
3229,981,1044
3230,980,1043
3231,978,1043
3232,981,1047
3233,984,1050
3234,983,1050
3235,983,1050
3236,981,1055
3237,983,1058
3238,988,1062
3239,995,1063
3240,1000,1062
3241,1000,1061
3242,997,1057
3243,995,1053
3244,999,1054
3245,1005,1054
3246,1011,1050
3247,1015,1051
3248,1014,1049
3249,1014,1049
3250,1017,1047
3251,1020,1047
3252,1024,1043
3253,1022,1040
3254,1017,1042
3255,1014,1044
3256,1011,1045
3257,1014,1047
3258,1012,1042
3259,1006,1039
3260,998,1038
3261,986,1036
3262,977,1043
3263,972,1042
3264,968,1041
3265,967,1038
3266,964,1035
3267,964,1035
3268,965,1039
3269,965,1038
3270,970,1040
3271,971,1039
3272,970,1038
3273,966,1037
3274,966,1038
3275,967,1039
3276,969,1037
3277,970,1038
3278,970,1036
3279,967,1037
3280,969,1038
3281,973,1037
3282,974,1036
3283,975,1034
3284,973,1034
3285,970,1032
3286,972,1033
3287,973,1035
3288,973,1032
3289,974,1031
3290,970,1030
3291,968,1027
3292,976,1025
3293,990,1017
3294,1018,1001
3295,1050,984
3296,1085,961
3297,1124,945
3298,1169,941
3299,1212,948
3300,1244,963
3301,1267,972
3302,1276,975
3303,1264,978
3304,1237,991
3305,1210,997
3306,1184,1002
3307,1156,1006
3308,1123,1014
3309,1092,1023
3310,1071,1030
3311,1063,1037
3312,1058,1038
3313,1041,1040
3314,1019,1042
3315,998,1047
3316,985,1050
3317,974,1056
3318,963,1059
3319,953,1057
3320,945,1056
3321,940,1056
3322,940,1057
3323,939,1056
3324,936,1060
3325,936,1059
3326,932,1057
3327,933,1056
3328,932,1056
3329,934,1059
3330,937,1057
3331,936,1057
3332,934,1056
3333,934,1057
3334,936,1059
3335,939,1061
3336,942,1060
3337,940,1058
3338,937,1057
3339,936,1057
3340,938,1059
3341,939,1063
3342,941,1062
3343,939,1060
3344,939,1061
3345,939,1059
3346,940,1062
3347,942,1062
3348,943,1062
3349,941,1059
3350,940,1059
3351,939,1058
3352,937,1061
3353,938,1063
3354,939,1061
3355,942,1059
3356,939,1058
3357,939,1061
3358,939,1064
3359,939,1066
3360,938,1063
3361,936,1061
3362,936,1058
3363,938,1059
3364,939,1063
3365,940,1067
3366,943,1066
3367,942,1064
3368,939,1063
3369,942,1064
3370,941,1065
3371,943,1066
3372,942,1067
3373,945,1065
3374,944,1064
3375,943,1066
3376,947,1069
3377,951,1068
3378,955,1067
3379,958,1066
3380,959,1063
3381,960,1064
3382,962,1068
3383,966,1068
3384,968,1069
3385,971,1066
3386,972,1067
3387,970,1064
3388,975,1067
3389,980,1068
3390,986,1067
3391,990,1067
3392,992,1063
3393,990,1062
3394,993,1066
3395,996,1066
3396,999,1064
3397,998,1063
3398,999,1063
3399,999,1060
3400,1002,1062
3401,1003,1063
3402,1002,1062
3403,1002,1060
3404,1000,1059
3405,999,1057
3406,996,1061
3407,997,1060
3408,998,1059
3409,994,1056
3410,993,1056
3411,988,1055
3412,987,1058
3413,988,1060
3414,991,1056
3415,989,1056
3416,984,1055
3417,984,1057
3418,984,1059
3419,982,1060
3420,986,1058
3421,982,1058
3422,982,1054
3423,982,1053
3424,980,1057
3425,982,1060
3426,982,1058
3427,979,1058
3428,980,1057
3429,977,1054
3430,979,1055
3431,981,1058
3432,980,1052
3433,977,1051
3434,975,1053
3435,972,1053
3436,974,1052
3437,975,1058
3438,973,1052
3439,973,1051
3440,973,1050
3441,973,1051
3442,974,1053
3443,974,1054
3444,976,1052
3445,975,1048
3446,975,1047
3447,975,1050
3448,974,1050
3449,975,1050
3450,977,1048
3451,977,1048
3452,975,1047
3453,975,1047
3454,975,1050
3455,975,1053
3456,976,1049
3457,971,1047
3458,974,1045
3459,971,1047
3460,975,1048
3461,978,1050
3462,978,1048
3463,976,1047
3464,974,1048
3465,971,1044
3466,973,1047
3467,975,1048
3468,978,1048
3469,977,1049
3470,977,1045
3471,974,1043
3472,975,1046
3473,977,1049
3474,976,1046
3475,976,1046
3476,973,1043
3477,970,1042
3478,974,1046
3479,975,1048
3480,974,1046
3481,976,1045
3482,972,1045
3483,972,1046
3484,971,1047
3485,975,1049
3486,976,1046
3487,975,1048
3488,976,1047
3489,976,1046
3490,976,1054
3491,980,1059
3492,982,1061
3493,986,1064
3494,990,1064
3495,988,1060
3496,991,1063
3497,994,1063
3498,994,1062
3499,989,1061
3500,989,1060
3501,991,1056
3502,999,1058
3503,1005,1055
3504,1010,1056
3505,1011,1055
3506,1009,1051
3507,1010,1051
3508,1012,1050
3509,1018,1051
3510,1019,1051
3511,1017,1048
3512,1013,1049
3513,1009,1046
3514,1011,1049
3515,1010,1048
3516,1005,1043
3517,1001,1041
3518,992,1040
3519,980,1041
3520,973,1042
3521,968,1044
3522,968,1042
3523,966,1041
3524,962,1038
3525,960,1041
3526,962,1040
3527,965,1043
3528,965,1042
3529,965,1038
3530,963,1038
3531,963,1035
3532,965,1038
3533,968,1041
3534,969,1040
3535,968,1039
3536,966,1038
3537,963,1038
3538,967,1039
3539,969,1040
3540,969,1041
3541,971,1038
3542,973,1036
3543,971,1035
3544,971,1036
3545,972,1037
3546,975,1033
3547,975,1032
3548,972,1030
3549,970,1032
3550,971,1036
3551,978,1035
3552,990,1028
3553,1010,1020
3554,1038,1010
3555,1070,999
3556,1106,985
3557,1140,973
3558,1174,957
3559,1200,951
3560,1225,955
3561,1245,968
3562,1262,981
3563,1273,985
3564,1264,985
3565,1237,988
3566,1205,993
3567,1176,1000
3568,1156,1009
3569,1130,1018
3570,1099,1024
3571,1071,1025
3572,1051,1027
3573,1039,1030
3574,1024,1035
3575,1007,1040
3576,993,1043
3577,980,1041
3578,972,1042
3579,964,1046
3580,958,1050
3581,953,1056
3582,946,1055
3583,942,1052
3584,935,1052
3585,934,1050
3586,934,1053
3587,935,1054
3588,932,1054
3589,933,1053
3590,931,1049
3591,930,1049
3592,935,1054
3593,937,1055
3594,937,1054
3595,938,1054
3596,935,1051
3597,937,1051
3598,937,1051
3599,941,1053
3600,944,1054
3601,943,1051
3602,940,1051
3603,937,1053
3604,939,1052
3605,940,1053
3606,938,1052
3607,937,1053
3608,934,1051
3609,934,1053
3610,937,1053
3611,939,1057
3612,941,1057
3613,939,1055
3614,935,1049
3615,932,1050
3616,933,1054
3617,938,1055
3618,938,1056
3619,938,1055
3620,937,1053
3621,935,1055
3622,936,1056
3623,939,1060
3624,939,1057
3625,936,1058
3626,937,1056
3627,933,1057
3628,935,1058
3629,937,1063
3630,938,1063
3631,938,1061
3632,940,1057
3633,938,1056
3634,939,1059
3635,939,1063
3636,942,1061
3637,943,1059
3638,944,1059
3639,945,1058
3640,947,1059
3641,953,1061
3642,952,1061
3643,956,1060
3644,956,1058
3645,956,1057
3646,958,1059
3647,962,1062
3648,964,1059
3649,966,1058
3650,967,1056
3651,968,1058
3652,974,1061
3653,977,1062
3654,984,1063
3655,986,1059
3656,986,1058
3657,987,1057
3658,991,1056
3659,993,1056
3660,998,1056
3661,1000,1055
3662,999,1054
3663,999,1055
3664,1001,1054
3665,1001,1056
3666,1002,1053
3667,1003,1052
3668,1001,1050
3669,999,1050
3670,996,1051
3671,997,1053
3672,997,1052
3673,992,1049
3674,989,1047
3675,989,1046
3676,991,1050
3677,990,1049
3678,988,1049
3679,989,1049
3680,985,1050
3681,982,1047
3682,984,1049
3683,985,1049
3684,985,1049
3685,983,1049
3686,982,1046
3687,978,1046
3688,979,1048
3689,980,1051
3690,982,1049
3691,980,1048
3692,978,1047
3693,973,1046
3694,978,1047
3695,978,1050
3696,980,1047
3697,979,1050
3698,978,1046
3699,975,1044
3700,975,1045
3701,975,1047
3702,977,1048
3703,976,1045
3704,976,1043
3705,977,1041
3706,975,1045
3707,978,1047
3708,979,1048
3709,979,1043
3710,976,1041
3711,974,1040
3712,978,1041
3713,978,1043
3714,981,1043
3715,976,1040
3716,975,1040
3717,975,1041
3718,979,1040
3719,979,1042
3720,979,1039
3721,979,1039
3722,977,1038
3723,976,1039
3724,978,1041
3725,978,1043
3726,980,1042
3727,979,1039
3728,978,1036
3729,973,1037
3730,976,1040
3731,976,1040
3732,977,1041
3733,977,1041
3734,975,1037
3735,972,1038
3736,976,1038
3737,979,1040
3738,979,1039
3739,978,1037
3740,972,1038
3741,977,1037
3742,976,1039
3743,977,1040
3744,976,1039
3745,976,1039
3746,979,1034
3747,978,1037
3748,978,1039
3749,981,1040
3750,978,1043
3751,978,1039
3752,976,1037
3753,974,1036
3754,977,1037
3755,977,1040
3756,979,1042
3757,979,1042
3758,978,1045
3759,978,1050
3760,982,1053
3761,981,1059
3762,991,1056
3763,992,1057
3764,998,1053
3765,996,1053
3766,996,1056
3767,992,1057
3768,995,1053
3769,998,1048
3770,1001,1045
3771,1001,1043
3772,1006,1044
3773,1009,1046
3774,1012,1044
3775,1012,1043
3776,1013,1040
3777,1013,1037
3778,1016,1036
3779,1019,1039
3780,1017,1038
3781,1013,1037
3782,1010,1036
3783,1006,1036
3784,1005,1037
3785,1004,1036
3786,1000,1034
3787,992,1032
3788,979,1031
3789,967,1029
3790,964,1030
3791,964,1033
3792,966,1034
3793,966,1030
3794,964,1029
3795,961,1029
3796,957,1030
3797,960,1028
3798,960,1030
3799,963,1027
3800,962,1029
3801,959,1027
3802,963,1029
3803,964,1032
3804,964,1031
3805,963,1031
3806,962,1027
3807,960,1026
3808,961,1032
3809,964,1033
3810,968,1031
3811,968,1030
3812,966,1029
3813,965,1030
3814,965,1031
3815,967,1030
3816,973,1028
3817,970,1024
3818,969,1020
3819,966,1019
3820,969,1019
3821,970,1020
3822,969,1018
3823,971,1009
3824,978,998
3825,993,988
3826,1021,978
3827,1054,961
3828,1091,945
3829,1128,932
3830,1165,925
3831,1199,930
3832,1231,944
3833,1253,958
3834,1268,964
3835,1271,962
3836,1257,961
3837,1231,967
3838,1211,979
3839,1197,988
3840,1182,992
3841,1162,998
3842,1136,1004
3843,1103,1010
3844,1077,1016
3845,1063,1024
3846,1053,1026
3847,1036,1026
3848,1015,1029
3849,999,1031
3850,988,1033
3851,978,1042
3852,968,1043
3853,958,1046
3854,948,1043
3855,940,1043
3856,940,1045
3857,937,1048
3858,934,1047
3859,931,1044
3860,928,1042
3861,927,1042
3862,929,1043
3863,932,1047
3864,931,1046
3865,929,1045
3866,929,1041
3867,928,1042
3868,931,1044
3869,935,1046
3870,935,1046
3871,935,1046
3872,933,1044
3873,931,1044
3874,932,1048
3875,935,1049
3876,937,1048
3877,933,1046
3878,932,1045
3879,930,1046
3880,932,1048
3881,935,1053
3882,935,1051
3883,937,1050
3884,935,1047
3885,933,1047
3886,932,1048
3887,935,1050
3888,936,1050
3889,935,1048
3890,935,1050
3891,933,1049
3892,931,1050
3893,932,1051
3894,934,1052
3895,934,1052
3896,931,1050
3897,930,1052
3898,934,1054
3899,932,1056
3900,933,1056
3901,932,1054
3902,932,1052
3903,931,1054
3904,931,1056
3905,935,1057
3906,936,1058
3907,936,1056
3908,935,1056
3909,935,1055
3910,935,1056
3911,939,1059
3912,941,1056
3913,942,1056
3914,942,1053
3915,941,1056
3916,948,1058
3917,952,1061
3918,954,1059
3919,958,1056
3920,960,1055
3921,960,1056
3922,964,1059
3923,969,1063
3924,973,1058
3925,975,1056
3926,976,1056
3927,977,1054
3928,978,1056
3929,981,1058
3930,986,1055
3931,989,1053
3932,989,1052
3933,992,1051
3934,995,1052
3935,998,1051
3936,1001,1051
3937,1000,1048
3938,999,1047
3939,996,1048
3940,998,1049
3941,997,1049
3942,996,1047
3943,996,1044
3944,993,1043
3945,990,1044
3946,990,1045
3947,991,1046
3948,989,1048
3949,987,1046
3950,984,1044
3951,983,1042
3952,983,1044
3953,983,1046
3954,982,1047
3955,980,1043
3956,976,1044
3957,973,1046
3958,974,1047
3959,976,1048
3960,975,1047
3961,975,1043
3962,975,1045
3963,971,1045
3964,973,1046
3965,974,1048
3966,975,1046
3967,974,1046
3968,973,1044
3969,969,1046
3970,971,1046
3971,970,1049
3972,967,1046
3973,971,1044
3974,970,1043
3975,968,1043
3976,969,1043
3977,969,1047
3978,972,1043
3979,970,1043
3980,969,1041
3981,966,1041
3982,970,1042
3983,969,1044
3984,970,1041
3985,969,1039
3986,968,1039
3987,968,1036
3988,967,1039
3989,970,1040
3990,970,1041
3991,971,1039
3992,969,1038
3993,965,1038
3994,970,1039
3995,972,1040
3996,972,1039
3997,971,1038
3998,969,1037
3999,965,1038
4000,968,1039
4001,972,1041
4002,974,1039
4003,971,1036
4004,970,1034
4005,967,1035
4006,967,1038
4007,969,1041
4008,973,1041
4009,971,1038
4010,969,1036
4011,967,1037
4012,966,1038
4013,968,1040
4014,969,1040
4015,970,1038
4016,971,1037
4017,968,1037
4018,970,1038
4019,972,1040
4020,971,1039
4021,972,1037
4022,974,1037
4023,972,1038
4024,971,1043
4025,973,1046
4026,973,1050
4027,977,1051
4028,980,1053
4029,982,1056
4030,989,1059
4031,994,1060
4032,994,1058
4033,990,1056
4034,989,1057
4035,983,1055
4036,985,1054
4037,990,1053
4038,997,1049
4039,1001,1047
4040,1000,1045
4041,1004,1047
4042,1004,1050
4043,1008,1050
4044,1012,1043
4045,1012,1041
4046,1010,1041
4047,1006,1041
4048,1005,1044
4049,1006,1044
4050,1006,1044
4051,1003,1040
4052,998,1035
4053,991,1033
4054,984,1034
4055,976,1036
4056,969,1038
4057,961,1036
4058,958,1035
4059,956,1034
4060,957,1036
4061,959,1034
4062,958,1034
4063,959,1032
4064,955,1032
4065,953,1029
4066,958,1032
4067,959,1035
4068,960,1036
4069,959,1030
4070,961,1033
4071,957,1030
4072,959,1032
4073,961,1037
4074,959,1037
4075,960,1032
4076,960,1031
4077,960,1033
4078,962,1032
4079,965,1035
4080,964,1034
4081,964,1030
4082,965,1027
4083,961,1028
4084,964,1030
4085,967,1031
4086,968,1028
4087,966,1025
4088,962,1022
4089,964,1016
4090,973,1010
4091,992,1003
4092,1018,990
4093,1047,973
4094,1082,955
4095,1118,942
4096,1154,932
4097,1186,932
4098,1213,935
4099,1230,944
4100,1245,955
4101,1258,964
4102,1270,969
4103,1256,976
4104,1232,982
4105,1204,989
4106,1180,993
4107,1153,1001
4108,1127,1014
4109,1099,1023
4110,1075,1024
4111,1059,1030
4112,1044,1031
4113,1026,1034
4114,1008,1037
4115,994,1041
4116,981,1043
4117,969,1044
4118,958,1046
4119,948,1049
4120,940,1054
4121,938,1055
4122,936,1052
4123,931,1049
4124,927,1048
4125,924,1045
4126,919,1049
4127,920,1052
4128,922,1052
4129,924,1052
4130,921,1050
4131,919,1050
4132,919,1049
4133,922,1054
4134,924,1052
4135,926,1054
4136,925,1051
4137,923,1050
4138,924,1056
4139,926,1057
4140,928,1054
4141,926,1057
4142,924,1052
4143,926,1052
4144,926,1058
4145,927,1060
4146,928,1056
4147,926,1058
4148,928,1056
4149,925,1054
4150,925,1055
4151,927,1058
4152,928,1059
4153,928,1058
4154,928,1057
4155,923,1057
4156,922,1061
4157,925,1063
4158,927,1060
4159,927,1060
4160,925,1056
4161,922,1058
4162,920,1062
4163,925,1066
4164,924,1065
4165,927,1062
4166,926,1060
4167,925,1058
4168,924,1060
4169,927,1063
4170,927,1064
4171,926,1062
4172,924,1062
4173,925,1063
4174,928,1066
4175,928,1065
4176,929,1063
4177,929,1061
4178,929,1060
4179,927,1062
4180,932,1068
4181,935,1067
4182,939,1066
4183,938,1066
4184,939,1061
4185,940,1063
4186,945,1064
4187,948,1066
4188,949,1064
4189,951,1066
4190,952,1066
4191,953,1063
4192,957,1064
4193,963,1066
4194,967,1066
4195,969,1064
4196,971,1063
4197,973,1062
4198,976,1063
4199,981,1063
4200,985,1061
4201,988,1061
4202,989,1059
4203,985,1058
4204,988,1055
4205,988,1060
4206,993,1059
4207,993,1060
4208,991,1055
4209,988,1055
4210,988,1058
4211,984,1061
4212,982,1055
4213,980,1056
4214,980,1052
4215,978,1054
4216,979,1056
4217,977,1056
4218,974,1054
4219,972,1053
4220,970,1051
4221,968,1052
4222,970,1054
4223,970,1059
4224,970,1057
4225,968,1055
4226,964,1052
4227,962,1053
4228,963,1055
4229,967,1055
4230,966,1056
4231,964,1056
4232,958,1054
4233,956,1053
4234,958,1055
4235,962,1057
4236,964,1054
4237,962,1054
4238,960,1053
4239,957,1049
4240,958,1052
4241,960,1056
4242,959,1053
4243,958,1051
4244,958,1048
4245,953,1048
4246,955,1052
4247,955,1054
4248,955,1053
4249,957,1051
4250,955,1049
4251,954,1049
4252,955,1050
4253,957,1051
4254,958,1052
4255,957,1050
4256,956,1049
4257,956,1051
4258,957,1052
4259,955,1051
4260,958,1051
4261,956,1048
4262,953,1045
4263,953,1048
4264,955,1048
4265,958,1051
4266,955,1051
4267,957,1049
4268,957,1046
4269,956,1047
4270,955,1049
4271,957,1052
4272,959,1050
4273,958,1049
4274,957,1046
4275,954,1046
4276,956,1047
4277,957,1049
4278,961,1050
4279,962,1048
4280,957,1046
4281,955,1045
4282,956,1048
4283,957,1049
4284,957,1049
4285,957,1048
4286,955,1045
4287,953,1045
4288,956,1047
4289,958,1050
4290,960,1050
4291,959,1050
4292,958,1048
4293,956,1048
4294,957,1050
4295,958,1054
4296,959,1057
4297,959,1061
4298,959,1062
4299,963,1061
4300,967,1065
4301,974,1068
4302,976,1064
4303,976,1061
4304,974,1057
4305,972,1057
4306,976,1058
4307,983,1060
4308,988,1056
4309,989,1054
4310,989,1055
4311,988,1053
4312,992,1054
4313,995,1058
4314,997,1051
4315,998,1050
4316,997,1049
4317,994,1047
4318,992,1052
4319,990,1052
4320,992,1047
4321,991,1047
4322,988,1044
4323,978,1042
4324,970,1045
4325,961,1046
4326,953,1046
4327,951,1046
4328,946,1041
4329,943,1042
4330,945,1041
4331,946,1042
4332,945,1042
4333,946,1039
4334,946,1040
4335,944,1040
4336,946,1041
4337,947,1044
4338,948,1043
4339,949,1038
4340,945,1039
4341,943,1041
4342,946,1042
4343,948,1044
4344,952,1041
4345,951,1038
4346,951,1036
4347,948,1038
4348,950,1040
4349,952,1040
4350,955,1039
4351,955,1038
4352,954,1034
4353,951,1030
4354,954,1030
4355,953,1032
4356,954,1030
4357,953,1032
4358,952,1031
4359,954,1030
4360,967,1026
4361,987,1019
4362,1018,1002
4363,1056,985
4364,1090,967
4365,1127,953
4366,1167,953
4367,1204,961
4368,1232,975
4369,1251,986
4370,1259,987
4371,1249,986
4372,1224,984
4373,1199,995
4374,1181,1001
4375,1163,1004
4376,1150,1008
4377,1123,1015
4378,1090,1023
4379,1060,1031
4380,1043,1031
4381,1028,1031
4382,1011,1034
4383,990,1039
4384,974,1045
4385,962,1048
4386,955,1051
4387,942,1052
4388,931,1051
4389,922,1049
4390,922,1050
4391,922,1053
4392,921,1052
4393,917,1053
4394,914,1051
4395,911,1051
4396,911,1051
4397,915,1055
4398,916,1052
4399,916,1052
4400,915,1052
4401,912,1053
4402,915,1054
4403,917,1056
4404,923,1054
4405,921,1054
4406,919,1050
4407,918,1050
4408,917,1054
4409,920,1056
4410,921,1057
4411,923,1055
4412,922,1051
4413,921,1052
4414,921,1053
4415,922,1056
4416,921,1053
4417,920,1053
4418,918,1052
4419,918,1052
4420,919,1055
4421,919,1055
4422,920,1053
4423,917,1050
4424,914,1049
4425,914,1050
4426,916,1054
4427,920,1056
4428,922,1051
4429,920,1051
4430,918,1051
4431,917,1052
4432,918,1055
4433,919,1057
4434,919,1056
4435,920,1057
4436,918,1054
4437,917,1054
4438,916,1057
4439,918,1056
4440,920,1057
4441,922,1057
4442,919,1059
4443,918,1058
4444,922,1060
4445,924,1062
4446,928,1060
4447,928,1060
4448,929,1057
4449,931,1058
4450,936,1062
4451,939,1063
4452,943,1061
4453,946,1057
4454,949,1058
4455,948,1057
4456,951,1060
4457,953,1062
4458,956,1060
4459,958,1059
4460,959,1054
4461,963,1055
4462,968,1055
4463,973,1057
4464,977,1055
4465,981,1054
4466,980,1051
4467,978,1054
4468,982,1054
4469,982,1055
4470,985,1055
4471,983,1051
4472,982,1048
4473,981,1048
4474,980,1052
4475,979,1053
4476,979,1055
4477,976,1050
4478,974,1048
4479,974,1050
4480,972,1049
4481,971,1053
4482,973,1051
4483,970,1049
4484,968,1050
4485,967,1051
4486,966,1052
4487,967,1053
4488,965,1051
4489,966,1052
4490,964,1047
4491,962,1048
4492,960,1051
4493,965,1055
4494,967,1052
4495,966,1050
4496,964,1046
4497,960,1047
4498,963,1049
4499,964,1050
4500,962,1052
4501,962,1049
4502,959,1048
4503,959,1047
4504,962,1048
4505,961,1051
4506,963,1047
4507,962,1047
4508,963,1045
4509,961,1045
4510,963,1047
4511,961,1049
4512,963,1047
4513,963,1043
4514,962,1043
4515,961,1041
4516,962,1045
4517,962,1048
4518,963,1047
4519,962,1044
4520,962,1042
4521,962,1043
4522,965,1043
4523,967,1046
4524,965,1042
4525,965,1042
4526,961,1042
4527,959,1040
4528,961,1042
4529,965,1042
4530,966,1045
4531,965,1039
4532,963,1039
4533,961,1039
4534,962,1043
4535,963,1044
4536,965,1042
4537,965,1042
4538,963,1039
4539,959,1039
4540,959,1039
4541,960,1043
4542,961,1041
4543,963,1041
4544,963,1039
4545,960,1040
4546,962,1039
4547,965,1042
4548,965,1040
4549,966,1040
4550,965,1039
4551,963,1039
4552,964,1043
4553,966,1045
4554,966,1040
4555,966,1040
4556,965,1040
4557,960,1038
4558,960,1040
4559,965,1046
4560,970,1044
4561,967,1048
4562,970,1049
4563,970,1049
4564,971,1056
4565,977,1057
4566,980,1056
4567,985,1054
4568,983,1053
4569,981,1051
4570,980,1054
4571,985,1057
4572,988,1049
4573,992,1046
4574,995,1042
4575,996,1044
4576,996,1045
4577,1001,1044
4578,1004,1044
4579,1008,1039
4580,1009,1037
4581,1005,1035
4582,1002,1038
4583,1002,1042
4584,1002,1039
4585,1002,1037
4586,999,1034
4587,999,1034
4588,996,1034
4589,990,1033
4590,979,1033
4591,970,1031
4592,961,1030
4593,955,1032
4594,957,1032
4595,956,1036
4596,956,1035
4597,951,1031
4598,950,1030
4599,949,1028
4600,953,1030
4601,957,1034
4602,958,1035
4603,956,1031
4604,955,1031
4605,953,1030
4606,955,1033
4607,956,1035
4608,957,1031
4609,958,1030
4610,958,1030
4611,958,1031
4612,955,1031
4613,960,1035
4614,962,1031
4615,961,1026
4616,961,1025
4617,960,1023
4618,961,1024
4619,963,1026
4620,959,1025
4621,961,1022
4622,959,1018
4623,964,1014
4624,976,1007
4625,995,1003
4626,1021,995
4627,1048,984
4628,1078,964
4629,1103,947
4630,1136,934
4631,1169,932
4632,1200,938
4633,1228,948
4634,1246,959
4635,1257,963
4636,1253,968
4637,1235,979
4638,1206,986
4639,1181,990
4640,1159,995
4641,1131,1001
4642,1103,1011
4643,1079,1017
4644,1063,1020
4645,1047,1021
4646,1028,1024
4647,1006,1029
4648,989,1031
4649,979,1036
4650,970,1037
4651,963,1040
4652,955,1041
4653,946,1046
4654,939,1047
4655,933,1048
4656,930,1046
4657,928,1045
4658,921,1043
4659,916,1043
4660,918,1044
4661,920,1048
4662,920,1046
4663,923,1046
4664,919,1046
4665,917,1042
4666,920,1047
4667,921,1049
4668,925,1049
4669,926,1047
4670,925,1046
4671,925,1046
4672,925,1047
4673,924,1052
4674,924,1050
4675,923,1048
4676,922,1047
4677,921,1046
4678,921,1047
4679,924,1050
4680,926,1049
4681,924,1048
4682,923,1047
4683,922,1046
4684,921,1047
4685,925,1049
4686,922,1049
4687,921,1048
4688,921,1049
4689,916,1048
4690,919,1051
4691,923,1053
4692,924,1051
4693,921,1049
4694,921,1047
4695,920,1049
4696,921,1051
4697,922,1054
4698,926,1054
4699,921,1051
4700,921,1052
4701,920,1048
4702,921,1051
4703,926,1053
4704,925,1055
4705,921,1055
4706,923,1053
4707,921,1053
4708,924,1053
4709,929,1057
4710,930,1054
4711,933,1056
4712,933,1052
4713,934,1052
4714,935,1057
4715,938,1058
4716,941,1057
4717,944,1057
4718,947,1055
4719,947,1053
4720,949,1056
4721,952,1058
4722,957,1058
4723,956,1054
4724,961,1052
4725,965,1052
4726,968,1054
4727,973,1054
4728,978,1053
4729,978,1050
4730,980,1048
4731,978,1048
4732,986,1048
4733,989,1049
4734,990,1046
4735,988,1045
4736,987,1042
4737,986,1043
4738,988,1046
4739,988,1049
4740,990,1047
4741,987,1044
4742,985,1041
4743,982,1041
4744,981,1044
4745,982,1043
4746,980,1044
4747,978,1042
4748,975,1041
4749,972,1039
4750,972,1042
4751,972,1043
4752,973,1045
4753,972,1043
4754,971,1041
4755,967,1043
4756,968,1045
4757,969,1045
4758,971,1043
4759,969,1040
4760,968,1041
4761,965,1041
4762,966,1047
4763,966,1045
4764,967,1044
4765,964,1043
4766,962,1043
4767,962,1039
4768,963,1042
4769,967,1045
4770,966,1045
4771,966,1041
4772,963,1040
4773,963,1039
4774,963,1040
4775,965,1043
4776,963,1041
4777,960,1040
4778,961,1037
4779,961,1036
4780,962,1039
4781,961,1040
4782,964,1038
4783,964,1036
4784,961,1034
4785,961,1035
4786,961,1037
4787,963,1039
4788,964,1037
4789,964,1034
4790,961,1035
4791,959,1034
4792,960,1035
4793,963,1039
4794,962,1037
4795,966,1036
4796,964,1036
4797,964,1036
4798,966,1038
4799,966,1039
4800,967,1036
4801,966,1036
4802,966,1034
4803,964,1033
4804,962,1035
4805,963,1038
4806,963,1035
4807,967,1036
4808,962,1034
4809,963,1033
4810,965,1035
4811,966,1037
4812,967,1038
4813,962,1035
4814,965,1035
4815,963,1034
4816,965,1036
4817,962,1038
4818,964,1037
4819,965,1037
4820,964,1034
4821,963,1036
4822,967,1039
4823,970,1041
4824,970,1041
4825,970,1043
4826,967,1044
4827,965,1047
4828,971,1053
4829,976,1057
4830,983,1055
4831,987,1051
4832,988,1051
4833,985,1050
4834,982,1050
4835,985,1050
4836,990,1047
4837,993,1042
4838,994,1040
4839,997,1042
4840,998,1045
4841,1002,1047
4842,1004,1042
4843,1006,1040
4844,1008,1037
4845,1005,1035
4846,1004,1038
4847,1005,1039
4848,1005,1041
4849,1002,1040
4850,999,1035
4851,997,1036
4852,994,1036
4853,990,1033
4854,984,1034
4855,972,1031
4856,964,1031
4857,956,1030
4858,954,1031
4859,954,1032
4860,954,1028
4861,953,1029
4862,951,1028
4863,951,1031
4864,954,1033
4865,956,1032
4866,958,1034
4867,957,1032
4868,956,1031
4869,955,1029
4870,956,1029
4871,957,1032
4872,960,1031
4873,958,1030
4874,957,1032
4875,954,1031
4876,956,1031
4877,960,1034
4878,962,1031
4879,963,1028
4880,962,1026
4881,959,1025
4882,959,1026
4883,961,1027
4884,962,1025
4885,960,1025
4886,956,1022
4887,951,1021
4888,957,1018
4889,967,1015
4890,981,1004
4891,994,991
4892,1019,973
4893,1047,956
4894,1085,942
4895,1125,933
4896,1163,930
4897,1198,938
4898,1227,950
4899,1249,960
4900,1265,967
4901,1259,974
4902,1234,983
4903,1205,988
4904,1175,992
4905,1153,997
4906,1129,1007
4907,1099,1019
4908,1076,1022
4909,1060,1024
4910,1046,1024
4911,1033,1027
4912,1015,1032
4913,1002,1038
4914,992,1038
4915,981,1043
4916,969,1044
4917,954,1047
4918,944,1051
4919,939,1050
4920,935,1047
4921,932,1046
4922,928,1046
4923,923,1045
4924,924,1047
4925,926,1048
4926,925,1046
4927,925,1045
4928,924,1044
4929,923,1043
4930,926,1051
4931,928,1053
4932,929,1051
4933,928,1047
4934,925,1046
4935,923,1049
4936,924,1048
4937,927,1050
4938,930,1053
4939,929,1052
4940,927,1051
4941,925,1050
4942,926,1053
4943,928,1053
4944,927,1049
4945,927,1048
4946,927,1052
4947,924,1050
4948,923,1052
4949,926,1053
4950,927,1052
4951,929,1049
4952,927,1050
4953,922,1050
4954,925,1051
4955,926,1054
4956,926,1056
4957,927,1055
4958,926,1054
4959,924,1056
4960,924,1055
4961,924,1057
4962,925,1058
4963,925,1056
4964,924,1055
4965,921,1057
4966,924,1058
4967,926,1062
4968,928,1060
4969,928,1058
4970,930,1054
4971,929,1057
4972,931,1059
4973,935,1062
4974,936,1059
4975,937,1057
4976,936,1056
4977,940,1057
4978,942,1060
4979,947,1064
4980,951,1063
4981,956,1062
4982,955,1058
4983,957,1057
4984,961,1057
4985,965,1060
4986,969,1060
4987,972,1057
4988,974,1055
4989,976,1054
4990,983,1055
4991,986,1057
4992,990,1057
4993,990,1055
4994,988,1050
4995,985,1051
4996,986,1052
4997,989,1054
4998,991,1053
4999,990,1050
5000,987,1048
5001,984,1046
5002,984,1047
5003,984,1049
5004,985,1050
5005,983,1045
5006,978,1044
5007,975,1046
5008,973,1046
5009,976,1050
5010,976,1046
5011,973,1044
5012,971,1043
5013,968,1044
5014,967,1048
5015,969,1050
5016,970,1046
5017,970,1045
5018,968,1044
5019,965,1044
5020,964,1045
5021,964,1048
5022,964,1047
5023,963,1042
5024,961,1043
5025,961,1041
5026,960,1045
5027,961,1050
5028,962,1049
5029,961,1045
5030,958,1046
5031,959,1044
5032,959,1044
5033,960,1043
5034,961,1042
5035,960,1044
5036,960,1042
5037,960,1042
5038,959,1044
5039,960,1046
5040,959,1043
5041,958,1042
5042,957,1039
5043,957,1042
5044,961,1044
5045,963,1046
5046,963,1045
5047,960,1041
5048,958,1039
5049,953,1039
5050,955,1044
5051,961,1047
5052,963,1043
5053,963,1044
5054,959,1040
5055,957,1038
5056,957,1043
5057,960,1039
5058,960,1040
5059,960,1040
5060,958,1040
5061,959,1040
5062,958,1041
5063,960,1042
5064,962,1041
5065,963,1042
5066,961,1040
5067,958,1037
5068,959,1039
5069,962,1042
5070,961,1043
5071,961,1039
5072,961,1039
5073,959,1037
5074,960,1040
5075,963,1041
5076,966,1043
5077,964,1043
5078,966,1040
5079,963,1040
5080,964,1042
5081,964,1045
5082,964,1043
5083,963,1047
5084,963,1050
5085,967,1054
5086,974,1055
5087,978,1057
5088,981,1055
5089,981,1052
5090,978,1051
5091,972,1051
5092,977,1051
5093,983,1052
5094,987,1050
5095,991,1046
5096,991,1043
5097,990,1044
5098,997,1044
5099,1002,1048
5100,1005,1044
5101,1003,1039
5102,1001,1039
5103,995,1041
5104,994,1041
5105,996,1044
5106,994,1042
5107,995,1037
5108,990,1033
5109,980,1034
5110,972,1037
5111,962,1038
5112,956,1036
5113,955,1033
5114,950,1032
5115,948,1032
5116,949,1034
5117,949,1037
5118,950,1033
5119,948,1031
5120,949,1033
5121,947,1030
5122,951,1034
5123,952,1035
5124,955,1034
5125,955,1032
5126,955,1031
5127,951,1032
5128,951,1030
5129,953,1034
5130,956,1033
5131,954,1032
5132,955,1031
5133,955,1031
5134,959,1033
5135,959,1037
5136,960,1030
5137,961,1027
5138,961,1023
5139,959,1023
5140,960,1027
5141,960,1027
5142,962,1029
5143,962,1023
5144,970,1016
5145,991,1003
5146,1023,992
5147,1059,978
5148,1098,959
5149,1137,948
5150,1177,945
5151,1208,952
5152,1235,966
5153,1255,975
5154,1256,972
5155,1242,970
5156,1211,975
5157,1183,984
5158,1169,995
5159,1158,999
5160,1141,1003
5161,1116,1009
5162,1080,1012
5163,1051,1019
5164,1034,1022
5165,1023,1027
5166,1006,1031
5167,989,1032
5168,971,1036
5169,959,1037
5170,950,1043
5171,942,1044
5172,938,1046
5173,933,1045
5174,932,1042
5175,927,1043
5176,926,1046
5177,925,1048
5178,925,1046
5179,924,1043
5180,924,1042
5181,922,1044
5182,922,1047
5183,923,1050
5184,925,1047
5185,925,1047
5186,924,1041
5187,923,1045
5188,924,1046
5189,927,1048
5190,929,1047
5191,930,1046
5192,928,1043
5193,928,1044
5194,926,1043
5195,927,1044
5196,930,1044
5197,931,1043
5198,929,1043
5199,924,1047
5200,927,1047
5201,929,1046
5202,930,1045
5203,928,1042
5204,926,1043
5205,926,1042
5206,926,1045
5207,926,1048
5208,926,1046
5209,928,1046
5210,923,1044
5211,922,1046
5212,924,1047
5213,924,1049
5214,924,1046
5215,921,1046
5216,922,1048
5217,922,1048
5218,926,1048
5219,929,1050
5220,930,1048
5221,928,1046
5222,925,1047
5223,924,1047
5224,926,1049
5225,930,1054
5226,933,1053
5227,932,1050
5228,933,1047
5229,931,1048
5230,935,1052
5231,938,1055
5232,944,1049
5233,944,1049
5234,943,1047
5235,942,1045
5236,947,1048
5237,952,1049
5238,958,1047
5239,960,1047
5240,961,1048
5241,961,1048
5242,965,1050
5243,968,1051
5244,972,1051
5245,974,1047
5246,978,1045
5247,979,1045
5248,983,1046
5249,985,1045
5250,989,1047
5251,989,1042
5252,990,1041
5253,987,1040
5254,988,1041
5255,989,1043
5256,991,1043
5257,988,1043
5258,988,1041
5259,984,1038
5260,985,1042
5261,985,1044
5262,983,1041
5263,980,1041
5264,978,1037
5265,975,1037
5266,976,1039
5267,978,1041
5268,979,1039
5269,975,1039
5270,973,1037
5271,973,1039
5272,974,1041
5273,973,1043
5274,973,1042
5275,969,1040
5276,968,1038
5277,967,1036
5278,969,1039
5279,971,1039
5280,971,1040
5281,969,1039
5282,967,1036
5283,965,1038
5284,965,1037
5285,965,1041
5286,968,1039
5287,967,1034
5288,965,1033
5289,962,1033
5290,963,1036
5291,967,1035
5292,969,1034
5293,966,1035
5294,965,1031
5295,965,1031
5296,966,1033
5297,966,1034
5298,967,1032
5299,969,1030
5300,967,1026
5301,966,1027
5302,967,1029
5303,969,1031
5304,970,1029
5305,970,1031
5306,967,1028
5307,964,1029
5308,964,1034
5309,967,1033
5310,969,1030
5311,966,1029
5312,966,1028
5313,963,1027
5314,967,1028
5315,966,1030
5316,969,1028
5317,967,1029
5318,965,1027
5319,963,1024
5320,967,1027
5321,969,1030
5322,969,1029
5323,970,1028
5324,968,1027
5325,965,1027
5326,966,1028
5327,969,1030
5328,971,1027
5329,970,1027
5330,967,1027
5331,966,1024
5332,968,1028
5333,971,1031
5334,972,1030
5335,972,1028
5336,970,1029
5337,969,1031
5338,970,1033
5339,974,1041
5340,975,1041
5341,976,1042
5342,979,1042
5343,981,1041
5344,986,1043
5345,989,1044
5346,992,1042
5347,990,1040
5348,985,1037
5349,985,1036
5350,993,1034
5351,1001,1038
5352,1004,1036
5353,1008,1034
5354,1009,1033
5355,1008,1029
5356,1010,1026
5357,1012,1030
5358,1009,1030
5359,1007,1033
5360,1002,1032
5361,997,1028
5362,1002,1028
5363,1001,1029
5364,998,1024
5365,987,1023
5366,975,1020
5367,964,1021
5368,958,1025
5369,957,1026
5370,959,1023
5371,957,1023
5372,957,1021
5373,957,1022
5374,958,1021
5375,961,1025
5376,960,1024
5377,960,1022
5378,960,1021
5379,959,1020
5380,960,1023
5381,963,1024
5382,963,1022
5383,963,1023
5384,962,1023
5385,964,1023
5386,966,1025
5387,967,1025
5388,967,1025
5389,965,1021
5390,965,1017
5391,963,1015
5392,966,1016
5393,969,1019
5394,966,1020
5395,967,1017
5396,970,1013
5397,981,1008
5398,1006,999
5399,1037,989
5400,1064,972
5401,1094,952
5402,1130,935
5403,1170,930
5404,1213,939
5405,1242,954
5406,1259,963
5407,1262,963
5408,1251,967
5409,1216,977
5410,1186,985
5411,1164,993
5412,1140,998
5413,1107,1006
5414,1074,1011
5415,1054,1012
5416,1044,1016
5417,1032,1021
5418,1015,1024
5419,999,1025
5420,986,1027
5421,972,1030
5422,963,1037
5423,955,1042
5424,948,1042
5425,943,1038
5426,935,1036
5427,930,1036
5428,927,1038
5429,928,1041
5430,932,1039
5431,931,1039
5432,929,1039
5433,927,1038
5434,931,1037
5435,934,1042
5436,933,1041
5437,934,1040
5438,934,1039
5439,930,1038
5440,932,1043
5441,932,1043
5442,934,1041
5443,936,1040
5444,935,1038
5445,930,1039
5446,932,1041
5447,934,1043
5448,935,1041
5449,937,1041
5450,932,1036
5451,930,1039
5452,931,1039
5453,932,1044
5454,937,1044
5455,935,1040
5456,932,1039
5457,932,1039
5458,933,1039
5459,930,1043
5460,932,1043
5461,931,1044
5462,931,1040
5463,929,1042
5464,931,1042
5465,931,1045
5466,931,1044
5467,932,1042
5468,929,1042
5469,928,1042
5470,929,1046
5471,933,1049
5472,932,1046
5473,934,1045
5474,935,1042
5475,936,1043
5476,939,1044
5477,942,1048
5478,944,1044
5479,943,1046
5480,944,1043
5481,945,1042
5482,948,1042
5483,953,1048
5484,957,1045
5485,958,1045
5486,961,1042
5487,961,1040
5488,967,1045
5489,972,1047
5490,976,1045
5491,978,1045
5492,979,1043
5493,982,1041
5494,989,1042
5495,994,1042
5496,997,1042
5497,994,1039
5498,992,1035
5499,995,1034
5500,995,1036
5501,998,1037
5502,997,1035
5503,998,1033
5504,995,1034
5505,992,1031
5506,994,1032
5507,992,1034
5508,994,1034
5509,990,1032
5510,986,1029
5511,983,1031
5512,986,1031
5513,984,1034
5514,985,1032
5515,985,1030
5516,985,1031
5517,982,1030
5518,979,1032
5519,981,1035
5520,981,1032
5521,980,1031
5522,976,1031
5523,975,1027
5524,976,1033
5525,977,1033
5526,979,1036
5527,977,1031
5528,978,1030
5529,974,1029
5530,974,1029
5531,973,1028
5532,972,1028
5533,970,1025
5534,970,1021
5535,965,1020
5536,964,1021
5537,966,1018
5538,968,1014
5539,969,1005
5540,969,1001
5541,970,997
5542,973,997
5543,974,1000
5544,980,998
5545,987,989
5546,994,984
5547,1008,971
5548,1029,960
5549,1047,949
5550,1070,941
5551,1099,941
5552,1128,945
5553,1157,953
5554,1180,964
5555,1203,975
5556,1234,988
5557,1263,1009
5558,1292,1033
5559,1315,1064
5560,1340,1098
5561,1363,1129
5562,1378,1154
5563,1377,1170
5564,1342,1173
5565,1283,1162
5566,1218,1147
5567,1167,1136
5568,1116,1113
5569,1060,1095
5570,1008,1079
5571,965,1070
5572,938,1059
5573,922,1051
5574,917,1040
5575,912,1030
5576,907,1023
5577,904,1024
5578,906,1026
5579,909,1027
5580,910,1024
5581,907,1021
5582,907,1019
5583,903,1017
5584,907,1018
5585,907,1017
5586,908,1017
5587,906,1013
5588,903,1013
5589,899,1014
5590,897,1015
5591,898,1018
5592,895,1013
5593,894,1009
5594,889,1008
5595,883,1006
5596,882,1008
5597,884,1005
5598,890,1002
5599,896,998
5600,897,996
5601,897,997
5602,898,1000
5603,898,1003
5604,897,1003
5605,897,1002
5606,901,1003
5607,899,1006
5608,902,1013
5609,904,1018
5610,905,1017
5611,906,1016
5612,906,1015
5613,901,1013
5614,899,1017
5615,898,1020
5616,906,1021
5617,903,1019
5618,902,1017
5619,899,1016
5620,898,1017
5621,899,1019
5622,901,1019
5623,901,1020
5624,898,1019
5625,897,1017
5626,897,1020
5627,897,1021
5628,898,1021
5629,900,1019
5630,899,1018
5631,902,1022
5632,903,1023
5633,904,1026
5634,909,1024
5635,909,1023
5636,911,1019
5637,911,1020
5638,915,1023
5639,919,1026
5640,923,1023
5641,926,1024
5642,925,1021
5643,927,1021
5644,930,1024
5645,937,1026
5646,940,1026
5647,944,1026
5648,947,1027
5649,949,1027
5650,955,1029
5651,961,1030
5652,967,1030
5653,969,1029
5654,968,1031
5655,969,1033
5656,974,1034
5657,975,1036
5658,977,1035
5659,981,1034
5660,979,1031
5661,979,1031
5662,979,1033
5663,982,1038
5664,983,1034
5665,982,1032
5666,983,1031
5667,979,1033
5668,980,1035
5669,983,1037
5670,985,1035
5671,983,1034
5672,983,1031
5673,980,1032
5674,979,1032
5675,980,1034
5676,982,1033
5677,984,1032
5678,982,1032
5679,982,1030
5680,981,1033
5681,982,1035
5682,984,1032
5683,982,1031
5684,983,1029
5685,980,1027
5686,982,1033
5687,981,1032
5688,983,1030
5689,983,1028
5690,981,1026
5691,979,1026
5692,979,1027
5693,981,1030
5694,980,1030
5695,979,1030
5696,977,1029
5697,974,1026
5698,974,1029
5699,977,1028
5700,980,1028
5701,981,1025
5702,979,1024
5703,975,1023
5704,974,1025
5705,976,1028
5706,975,1026
5707,975,1023
5708,973,1023
5709,969,1022
5710,974,1025
5711,975,1027
5712,976,1025
5713,974,1023
5714,971,1018
5715,969,1019
5716,972,1021
5717,974,1023
5718,975,1024
5719,974,1023
5720,972,1023
5721,970,1021
5722,970,1024
5723,970,1022
5724,969,1024
5725,970,1019
5726,970,1017
5727,966,1021
5728,971,1020
5729,973,1020
5730,973,1020
5731,972,1017
5732,968,1015
5733,969,1017
5734,969,1019
5735,970,1022
5736,973,1020
5737,972,1021
5738,970,1017
5739,966,1017
5740,969,1018
5741,972,1021
5742,972,1020
5743,972,1018
5744,969,1016
5745,968,1016
5746,968,1019
5747,970,1022
5748,970,1019
5749,972,1019
5750,968,1017
5751,966,1018
5752,967,1019
5753,969,1023
5754,970,1022
5755,970,1020
5756,970,1018
5757,966,1017
5758,970,1022
5759,970,1021
5760,968,1022
5761,968,1022
5762,968,1018
5763,966,1020
5764,969,1021
5765,972,1020
5766,972,1019
5767,970,1018
5768,970,1016
5769,967,1019
5770,971,1023
5771,970,1024
5772,973,1022
5773,973,1019
5774,970,1017
5775,969,1016
5776,969,1018
5777,971,1022
5778,971,1020
5779,970,1020
5780,969,1020
5781,967,1018
5782,965,1018
5783,967,1020
5784,972,1018
5785,974,1018
5786,969,1016
5787,968,1017
5788,969,1018
5789,968,1021
5790,973,1018
5791,973,1016
5792,971,1016
5793,968,1015
5794,969,1018
5795,971,1020
5796,972,1019
5797,969,1017
5798,970,1017
5799,969,1016
5800,968,1016
5801,972,1018
5802,972,1020
5803,971,1016
5804,971,1017
5805,971,1017
5806,975,1019
5807,977,1021
5808,977,1021
5809,974,1017
5810,970,1016
5811,968,1016
5812,969,1021
5813,972,1022
5814,974,1019
5815,974,1017
5816,972,1017
5817,971,1011
5818,970,1017
5819,974,1018
5820,976,1019
5821,972,1018
5822,972,1016
5823,968,1016
5824,970,1018
5825,971,1022
5826,973,1020
5827,973,1018
5828,972,1018
5829,971,1015
5830,971,1018
5831,974,1022
5832,972,1020
5833,971,1018
5834,970,1016
5835,969,1015
5836,973,1018
5837,974,1020
5838,975,1020
5839,972,1018
5840,973,1018
5841,971,1016
5842,973,1018
5843,973,1022
5844,973,1018
5845,971,1017
5846,973,1016
5847,971,1017
5848,972,1019
5849,975,1026
5850,980,1028
5851,980,1028
5852,979,1030
5853,982,1033
5854,985,1031
5855,990,1034
5856,992,1031
5857,994,1032
5858,988,1030
5859,989,1028
5860,992,1025
5861,999,1023
5862,1004,1021
5863,1004,1020
5864,1004,1016
5865,1003,1017
5866,1005,1022
5867,1007,1024
5868,1008,1021
5869,1008,1017
5870,1010,1017
5871,1008,1016
5872,1006,1018
5873,1005,1024
5874,1003,1023
5875,1004,1020
5876,1002,1015
5877,992,1013
5878,988,1013
5879,979,1016
5880,969,1015
5881,962,1016
5882,960,1015
5883,961,1014
5884,961,1017
5885,962,1017
5886,964,1014
5887,961,1014
5888,958,1011
5889,957,1011
5890,960,1014
5891,961,1018
5892,961,1019
5893,961,1013
5894,959,1012
5895,958,1014
5896,957,1015
5897,961,1019
5898,962,1019
5899,964,1017
5900,964,1012
5901,965,1013
5902,965,1014
5903,966,1015
5904,971,1013
5905,969,1009
5906,965,1009
5907,963,1009
5908,964,1013
5909,964,1015
5910,965,1013
5911,970,1007
5912,979,995
5913,998,987
5914,1030,971
5915,1064,958
5916,1098,939
5917,1135,925
5918,1175,916
5919,1206,924
5920,1235,936
5921,1254,946
5922,1267,952
5923,1260,949
5924,1236,950
5925,1203,961
5926,1181,973
5927,1166,980
5928,1152,987
5929,1125,995
5930,1093,999
5931,1064,1003
5932,1046,1011
5933,1031,1018
5934,1012,1020
5935,991,1022
5936,974,1025
5937,960,1025
5938,950,1033
5939,944,1036
5940,938,1037
5941,932,1034
5942,930,1036
5943,925,1033
5944,920,1034
5945,920,1037
5946,917,1034
5947,922,1035
5948,919,1033
5949,918,1032
5950,916,1035
5951,918,1038
5952,922,1037
5953,922,1035
5954,922,1035
5955,923,1034
5956,922,1037
5957,921,1039
5958,924,1037
5959,923,1037
5960,925,1036
5961,922,1034
5962,925,1036
5963,924,1038
5964,927,1038
5965,923,1037
5966,922,1035
5967,920,1036
5968,922,1039
5969,922,1041
5970,929,1040
5971,926,1036
5972,925,1036
5973,922,1037
5974,923,1038
5975,927,1040
5976,926,1038
5977,927,1039
5978,927,1037
5979,925,1037
5980,926,1040
5981,930,1044
5982,930,1042
5983,932,1042
5984,931,1042
5985,929,1042
5986,931,1045
5987,934,1044
5988,934,1045
5989,934,1042
5990,933,1042
5991,932,1042
5992,937,1045
5993,940,1047
5994,944,1047
5995,943,1045
5996,942,1043
5997,944,1043
5998,949,1048
5999,954,1053
6000,960,1050
6001,960,1049
6002,960,1047
6003,958,1045
6004,966,1048
6005,970,1050
6006,973,1047
6007,975,1048
6008,977,1047
6009,978,1049
6010,982,1049
6011,988,1052
6012,991,1049
6013,995,1049
6014,997,1047
6015,997,1048
6016,1000,1051
6017,1003,1052
6018,1006,1052
6019,1008,1049
6020,1008,1044
6021,1008,1044
6022,1013,1045
6023,1016,1049
6024,1016,1047
6025,1017,1046
6026,1015,1041
6027,1013,1041
6028,1013,1042
6029,1015,1044
6030,1010,1043
6031,1010,1040
6032,1007,1039
6033,1005,1037
6034,1004,1040
6035,1004,1042
6036,1002,1039
6037,999,1034
6038,995,1034
6039,990,1034
6040,989,1035
6041,989,1038
6042,988,1038
6043,986,1035
6044,984,1035
6045,979,1037
6046,979,1038
6047,979,1041
6048,978,1038
6049,976,1035
6050,974,1035
6051,972,1033
6052,969,1037
6053,968,1035
6054,968,1035
6055,968,1035
6056,967,1030
6057,963,1030
6058,964,1032
6059,964,1036
6060,964,1035
6061,962,1034
6062,960,1030
6063,961,1032
6064,960,1033
6065,962,1033
6066,959,1030
6067,955,1029
6068,957,1027
6069,959,1027
6070,960,1028
6071,960,1027
6072,960,1026
6073,958,1027
6074,958,1024
6075,954,1024
6076,958,1025
6077,959,1027
6078,959,1024
6079,958,1025
6080,956,1022
6081,955,1023
6082,955,1020
6083,958,1027
6084,959,1023
6085,955,1024
6086,955,1023
6087,955,1020
6088,955,1022
6089,959,1026
6090,958,1023
6091,957,1020
6092,957,1019
6093,955,1021
6094,957,1023
6095,959,1027
6096,961,1023
6097,959,1023
6098,960,1021
6099,960,1019
6100,960,1021
6101,960,1026
6102,960,1021
6103,959,1021
6104,959,1018
6105,959,1020
6106,961,1022
6107,963,1024
6108,962,1024
6109,960,1021
6110,960,1020
6111,957,1021
6112,959,1021
6113,961,1026
6114,964,1023
6115,962,1024
6116,961,1024
6117,962,1026
6118,963,1030
6119,969,1034
6120,972,1035
6121,974,1035
6122,976,1034
6123,977,1032
6124,977,1035
6125,978,1036
6126,980,1034
6127,983,1031
6128,987,1027
6129,988,1027
6130,989,1026
6131,995,1029
6132,995,1028
6133,997,1028
6134,1000,1023
6135,1001,1020
6136,1004,1020
6137,1005,1020
6138,1004,1022
6139,1003,1021
6140,997,1019
6141,996,1020
6142,992,1018
6143,997,1017
6144,994,1017
6145,987,1013
6146,978,1012
6147,966,1011
6148,960,1014
6149,958,1017
6150,957,1016
6151,956,1014
6152,952,1014
6153,947,1015
6154,948,1015
6155,949,1016
6156,952,1013
6157,952,1013
6158,950,1011
6159,949,1011
6160,950,1013
6161,950,1015
6162,949,1014
6163,952,1012
6164,953,1011
6165,950,1012
6166,953,1014
6167,954,1013
6168,956,1014
6169,956,1013
6170,957,1010
6171,955,1011
6172,955,1012
6173,960,1013
6174,960,1013
6175,961,1009
6176,956,1005
6177,956,1004
6178,956,1006
6179,957,1008
6180,957,1006
6181,956,1006
6182,958,1004
6183,962,1000
6184,978,996
6185,1006,988
6186,1036,973
6187,1067,960
6188,1100,944
6189,1136,930
6190,1171,927
6191,1206,929
6192,1227,938
6193,1246,948
6194,1255,955
6195,1260,958
6196,1251,959
6197,1228,966
6198,1197,971
6199,1172,976
6200,1152,977
6201,1129,985
6202,1098,994
6203,1066,999
6204,1046,1000
6205,1032,1003
6206,1019,1004
6207,1001,1009
6208,985,1013
6209,973,1017
6210,965,1018
6211,957,1019
6212,946,1023
6213,939,1024
6214,932,1027
6215,931,1031
6216,927,1029
6217,923,1024
6218,920,1024
6219,916,1024
6220,916,1026
6221,916,1026
6222,915,1027
6223,918,1022
6224,916,1021
6225,916,1023
6226,916,1026
6227,921,1026
6228,922,1027
6229,922,1025
6230,920,1021
6231,918,1021
6232,917,1024
6233,918,1025
6234,922,1025
6235,923,1023
6236,920,1023
6237,917,1024
6238,922,1028
6239,922,1030
6240,924,1026
6241,924,1027
6242,920,1025
6243,919,1023
6244,919,1026
6245,926,1029
6246,927,1029
6247,924,1027
6248,923,1025
6249,922,1024
6250,921,1026
6251,923,1028
6252,924,1027
6253,923,1029
6254,919,1027
6255,917,1025
6256,920,1030
6257,920,1031
6258,918,1034
6259,921,1032
6260,920,1028
6261,920,1031
6262,922,1033
6263,923,1035
6264,923,1034
6265,924,1031
6266,923,1031
6267,920,1031
6268,922,1034
6269,925,1035
6270,929,1034
6271,929,1034
6272,928,1034
6273,926,1033
6274,928,1036
6275,929,1035
6276,933,1035
6277,933,1034
6278,934,1035
6279,938,1034
6280,940,1036
6281,944,1037
6282,947,1039
6283,950,1036
6284,949,1035
6285,948,1032
6286,954,1036
6287,959,1036
6288,963,1036
6289,964,1034
6290,968,1032
6291,965,1032
6292,970,1031
6293,973,1032
6294,978,1032
6295,979,1029
6296,981,1029
6297,978,1031
6298,983,1031
6299,984,1032
6300,983,1029
6301,982,1027
6302,981,1026
6303,981,1027
6304,980,1030
6305,980,1031
6306,979,1031
6307,978,1027
6308,973,1027
6309,973,1026
6310,973,1027
6311,975,1028
6312,975,1028
6313,974,1028
6314,969,1027
6315,965,1028
6316,967,1027
6317,967,1029
6318,969,1029
6319,968,1026
6320,966,1024
6321,961,1025
6322,963,1028
6323,964,1030
6324,966,1028
6325,965,1027
6326,965,1024
6327,964,1026
6328,965,1025
6329,968,1028
6330,969,1026
6331,967,1026
6332,966,1026
6333,963,1022
6334,964,1027
6335,966,1027
6336,964,1025
6337,963,1023
6338,964,1023
6339,962,1019
6340,964,1025
6341,966,1026
6342,965,1024
6343,966,1024
6344,965,1022
6345,964,1020
6346,966,1020
6347,967,1023
6348,968,1021
6349,968,1021
6350,966,1019
6351,965,1021
6352,965,1020
6353,966,1022
6354,967,1020
6355,967,1018
6356,966,1018
6357,963,1018
6358,963,1021
6359,966,1022
6360,966,1021
6361,966,1019
6362,964,1018
6363,963,1018
6364,962,1019
6365,967,1022
6366,965,1020
6367,964,1018
6368,966,1017
6369,965,1018
6370,968,1019
6371,967,1019
6372,968,1019
6373,966,1017
6374,965,1017
6375,966,1017
6376,968,1020
6377,967,1021
6378,965,1019
6379,964,1019
6380,964,1016
6381,964,1017
6382,967,1018
6383,970,1020
6384,970,1020
6385,970,1018
6386,967,1019
6387,964,1017
6388,964,1018
6389,963,1020
6390,964,1020
6391,966,1020
6392,968,1023
6393,967,1025
6394,971,1032
6395,975,1037
6396,978,1037
6397,982,1037
6398,986,1031
6399,985,1031
6400,987,1033
6401,985,1037
6402,985,1035
6403,986,1028
6404,991,1025
6405,992,1022
6406,998,1025
6407,1003,1028
6408,1004,1027
6409,1004,1025
6410,1004,1019
6411,1006,1019
6412,1007,1020
6413,1008,1023
6414,1007,1023
6415,1006,1020
6416,1001,1018
6417,1000,1019
6418,996,1020
6419,996,1020
6420,988,1020
6421,980,1016
6422,970,1016
6423,959,1014
6424,954,1014
6425,956,1015
6426,957,1013
6427,955,1013
6428,953,1010
6429,949,1013
6430,951,1015
6431,954,1017
6432,957,1015
6433,957,1015
6434,956,1014
6435,952,1012
6436,954,1014
6437,955,1018
6438,957,1016
6439,958,1013
6440,957,1011
6441,955,1012
6442,956,1016
6443,958,1016
6444,960,1019
6445,959,1016
6446,959,1014
6447,958,1014
6448,958,1013
6449,961,1016
6450,961,1011
6451,962,1006
6452,961,1004
6453,958,1003
6454,956,1006
6455,956,1005
6456,962,1001
6457,969,992
6458,982,979
6459,1006,963
6460,1040,950
6461,1077,938
6462,1118,920
6463,1160,914
6464,1193,915
6465,1217,922
6466,1241,934
6467,1256,949
6468,1266,949
6469,1263,949
6470,1240,953
6471,1212,963
6472,1192,970
6473,1176,979
6474,1159,985
6475,1132,988
6476,1100,996
6477,1073,999
6478,1059,1006
6479,1047,1011
6480,1032,1014
6481,1011,1015
6482,990,1016
6483,973,1020
6484,963,1023
6485,958,1031
6486,949,1032
6487,939,1033
6488,932,1032
6489,928,1035
6490,927,1034
6491,924,1035
6492,922,1035
6493,916,1030
6494,917,1029
6495,914,1028
6496,915,1033
6497,917,1035
6498,917,1035
6499,918,1032
6500,914,1032
6501,914,1034
6502,917,1034
6503,919,1037
6504,921,1037
6505,920,1033
6506,919,1033
6507,917,1033
6508,919,1037
6509,922,1037
6510,923,1036
6511,924,1034
6512,922,1034
6513,918,1035
6514,923,1038
6515,920,1038
6516,923,1037
6517,921,1037
6518,918,1034
6519,916,1034
6520,919,1035
6521,920,1038
6522,922,1038
6523,921,1036
6524,920,1035
6525,918,1035
6526,921,1039
6527,922,1039
6528,921,1038
6529,917,1035
6530,916,1035
6531,916,1035
6532,917,1039
6533,923,1043
6534,922,1040
6535,920,1038
6536,919,1037
6537,915,1037
6538,915,1042
6539,919,1041
6540,923,1043
6541,924,1043
6542,923,1041
6543,920,1040
6544,922,1043
6545,924,1045
6546,927,1045
6547,928,1040
6548,929,1041
6549,930,1041
6550,935,1045
6551,937,1048
6552,942,1043
6553,941,1044
6554,942,1044
6555,941,1043
6556,946,1046
6557,950,1047
6558,953,1046
6559,954,1042
6560,955,1043
6561,957,1044
6562,964,1045
6563,967,1047
6564,974,1044
6565,975,1042
6566,974,1040
6567,975,1040
6568,979,1042
6569,983,1044
6570,989,1040
6571,990,1038
6572,990,1036
6573,989,1035
6574,990,1035
6575,992,1036
6576,988,1034
6577,990,1034
6578,987,1032
6579,984,1031
6580,984,1031
6581,984,1031
6582,984,1029
6583,984,1028
6584,980,1029
6585,980,1030
6586,978,1032
6587,977,1033
6588,977,1031
6589,973,1032
6590,974,1026
6591,971,1026
6592,971,1027
6593,975,1030
6594,975,1029
6595,971,1030
6596,967,1026
6597,965,1027
6598,964,1030
6599,968,1033
6600,967,1032
6601,967,1031
6602,964,1028
6603,962,1027
6604,964,1031
6605,965,1031
6606,966,1030
6607,963,1030
6608,961,1027
6609,960,1029
6610,965,1031
6611,967,1032
6612,968,1030
6613,966,1028
6614,962,1026
6615,961,1023
6616,961,1026
6617,962,1030
6618,962,1027
6619,959,1026
6620,962,1025
6621,957,1024
6622,960,1026
6623,964,1026
6624,965,1024
6625,960,1023
6626,958,1021
6627,957,1022
6628,958,1024
6629,962,1025
6630,960,1024
6631,961,1024
6632,957,1021
6633,958,1020
6634,960,1024
6635,963,1024
6636,963,1024
6637,963,1025
6638,960,1022
6639,958,1022
6640,958,1023
6641,960,1024
6642,964,1024
6643,962,1024
6644,961,1023
6645,959,1022
6646,964,1023
6647,964,1026
6648,964,1026
6649,962,1024
6650,961,1023
6651,959,1020
6652,959,1024
6653,966,1026
6654,966,1027
6655,963,1024
6656,964,1022
6657,961,1021
6658,961,1023
6659,965,1024
6660,967,1023
6661,966,1025
6662,963,1026
6663,964,1029
6664,966,1035
6665,970,1041
6666,973,1042
6667,976,1043
6668,981,1041
6669,981,1041
6670,982,1039
6671,983,1045
6672,983,1040
6673,982,1036
6674,983,1030
6675,986,1027
6676,993,1030
6677,997,1035
6678,999,1035
6679,1001,1033
6680,1001,1026
6681,1001,1023
6682,1003,1020
6683,1004,1026
6684,1002,1028
6685,1000,1029
6686,998,1026
6687,995,1024
6688,996,1024
6689,997,1025
6690,990,1021
6691,980,1021
6692,967,1018
6693,955,1018
6694,952,1022
6695,952,1023
6696,953,1020
6697,952,1019
6698,951,1017
6699,948,1016
6700,948,1019
6701,951,1025
6702,954,1021
6703,954,1022
6704,952,1018
6705,950,1019
6706,952,1020
6707,955,1023
6708,955,1020
6709,953,1019
6710,953,1020
6711,952,1021
6712,954,1020
6713,955,1023
6714,955,1019
6715,956,1017
6716,957,1014
6717,959,1013
6718,958,1015
6719,959,1015
6720,958,1014
6721,955,1013
6722,954,1013
6723,952,1011
6724,955,1012
6725,961,1010
6726,974,1003
6727,996,990
6728,1022,973
6729,1056,954
6730,1096,939
6731,1135,929
6732,1176,925
6733,1212,933
6734,1236,945
6735,1255,955
6736,1266,959
6737,1259,963
6738,1232,970
6739,1204,976
6740,1176,979
6741,1149,983
6742,1119,992
6743,1088,1003
6744,1066,1007
6745,1052,1011
6746,1043,1012
6747,1030,1013
6748,1011,1020
6749,996,1024
6750,983,1025
6751,972,1027
6752,958,1028
6753,946,1035
6754,935,1035
6755,929,1035
6756,926,1033
6757,924,1031
6758,918,1031
6759,919,1030
6760,917,1033
6761,918,1037
6762,919,1035
6763,919,1034
6764,919,1032
6765,917,1033
6766,918,1034
6767,917,1038
6768,920,1035
6769,922,1037
6770,919,1036
6771,918,1033
6772,921,1036
6773,923,1037
6774,924,1035
6775,922,1034
6776,921,1034
6777,918,1036
6778,921,1037
6779,925,1037
6780,925,1037
6781,924,1037
6782,923,1036
6783,922,1034
6784,924,1039
6785,924,1041
6786,926,1038
6787,923,1040
6788,920,1039
6789,919,1037
6790,917,1040
6791,922,1042
6792,924,1040
6793,923,1040
6794,922,1040
6795,917,1041
6796,918,1043
6797,920,1043
6798,922,1045
6799,925,1044
6800,923,1043
6801,918,1043
6802,921,1044
6803,922,1046
6804,924,1046
6805,924,1046
6806,921,1043
6807,922,1044
6808,925,1046
6809,926,1048
6810,930,1049
6811,932,1046
6812,931,1045
6813,933,1044
6814,934,1043
6815,937,1050
6816,943,1046
6817,944,1047
6818,945,1047
6819,947,1046
6820,953,1049
6821,960,1049
6822,962,1048
6823,959,1046
6824,960,1044
6825,963,1043
6826,967,1046
6827,972,1050
6828,975,1046
6829,981,1045
6830,980,1043
6831,980,1041
6832,983,1043
6833,988,1045
6834,989,1042
6835,991,1042
6836,991,1037
6837,987,1038
6838,987,1040
6839,987,1043
6840,985,1041
6841,986,1038
6842,982,1038
6843,982,1036
6844,983,1038
6845,983,1039
6846,981,1038
6847,980,1036
6848,977,1034
6849,974,1034
6850,977,1038
6851,974,1040
6852,976,1039
6853,974,1033
6854,971,1033
6855,968,1033
6856,968,1033
6857,968,1037
6858,966,1036
6859,966,1035
6860,966,1032
6861,967,1032
6862,966,1037
6863,966,1039
6864,966,1037
6865,967,1034
6866,966,1033
6867,964,1033
6868,965,1036
6869,965,1039
6870,965,1036
6871,961,1035
6872,961,1032
6873,955,1031
6874,956,1035
6875,962,1034
6876,964,1034
6877,963,1034
6878,962,1030
6879,961,1033
6880,963,1033
6881,965,1035
6882,965,1031
6883,962,1030
6884,961,1030
6885,958,1029
6886,957,1031
6887,961,1033
6888,963,1033
6889,962,1030
6890,962,1026
6891,960,1027
6892,960,1031
6893,961,1033
6894,965,1031
6895,962,1030
6896,961,1029
6897,961,1027
6898,962,1028
6899,961,1030
6900,963,1031
6901,963,1029
6902,961,1028
6903,960,1026
6904,959,1030
6905,965,1031
6906,963,1032
6907,964,1027
6908,963,1026
6909,962,1027
6910,963,1029
6911,966,1030
6912,966,1030
6913,963,1027
6914,961,1027
6915,958,1025
6916,962,1026
6917,963,1030
6918,964,1029
6919,963,1027
6920,963,1028
6921,961,1026
6922,965,1028
6923,965,1031
6924,967,1032
6925,968,1033
6926,968,1036
6927,965,1039
6928,972,1043
6929,977,1043
6930,980,1040
6931,982,1037
6932,979,1038
6933,977,1036
6934,977,1038
6935,982,1037
6936,986,1034
6937,990,1033
6938,993,1030
6939,994,1031
6940,996,1034
6941,1004,1034
6942,1004,1031
6943,1008,1027
6944,1006,1025
6945,1002,1025
6946,1000,1028
6947,998,1029
6948,998,1029
6949,997,1026
6950,997,1024
6951,988,1020
6952,984,1022
6953,974,1025
6954,964,1024
6955,957,1020
6956,952,1017
6957,950,1016
6958,951,1021
6959,952,1021
6960,953,1022
6961,953,1019
6962,953,1016
6963,950,1017
6964,951,1018
6965,953,1022
6966,955,1020
6967,954,1020
6968,953,1018
6969,953,1020
6970,954,1020
6971,956,1022
6972,955,1019
6973,955,1019
6974,955,1019
6975,955,1018
6976,955,1022
6977,959,1021
6978,960,1015
6979,959,1012
6980,955,1009
6981,952,1010
6982,952,1017
6983,952,1019
6984,957,1016
6985,966,1011
6986,978,1004
6987,1001,992
6988,1031,980
6989,1064,965
6990,1104,947
6991,1147,937
6992,1185,935
6993,1218,946
6994,1242,959
6995,1255,966
6996,1251,967
6997,1223,971
6998,1191,978
6999,1164,981
7000,1143,987
7001,1119,994
7002,1088,1000
7003,1056,1007
7004,1041,1009
7005,1027,1011
7006,1011,1017
7007,994,1024
7008,975,1027
7009,965,1030
7010,953,1031
7011,940,1033
7012,935,1035
7013,932,1037
7014,928,1037
7015,927,1036
7016,922,1036
7017,921,1032
7018,919,1033
7019,921,1036
7020,923,1034
7021,922,1034
7022,921,1036
7023,919,1036
7024,923,1036
7025,927,1040
7026,927,1036
7027,924,1035
7028,925,1033
7029,923,1036
7030,927,1038
7031,929,1039
7032,929,1038
7033,927,1036
7034,928,1033
7035,929,1034
7036,929,1036
7037,928,1039
7038,930,1039
7039,928,1036
7040,925,1035
7041,925,1034
7042,928,1035
7043,932,1037
7044,932,1037
7045,929,1035
7046,927,1033
7047,926,1035
7048,926,1037
7049,928,1037
7050,928,1035
7051,928,1034
7052,926,1033
7053,925,1034
7054,925,1037
7055,928,1040
7056,930,1039
7057,931,1037
7058,928,1036
7059,926,1037
7060,929,1038
7061,930,1040
7062,930,1040
7063,930,1039
7064,931,1040
7065,929,1039
7066,932,1041
7067,936,1041
7068,935,1039
7069,939,1039
7070,940,1038
7071,943,1040
7072,946,1042
7073,949,1042
7074,951,1043
7075,952,1038
7076,954,1035
7077,958,1037
7078,963,1042
7079,968,1043
7080,971,1042
7081,975,1036
7082,978,1034
7083,980,1033
7084,984,1035
7085,986,1037
7086,991,1035
7087,991,1034
7088,991,1031
7089,988,1029
7090,989,1032
7091,991,1036
7092,991,1031
7093,990,1031
7094,989,1029
7095,984,1028
7096,985,1031
7097,983,1031
7098,984,1030
7099,982,1027
7100,979,1026
7101,978,1028
7102,980,1030
7103,977,1031
7104,976,1031
7105,977,1027
7106,975,1027
7107,972,1026
7108,973,1028
7109,974,1030
7110,971,1030
7111,971,1027
7112,971,1027
7113,969,1027
7114,969,1028
7115,968,1033
7116,968,1030
7117,966,1028
7118,965,1029
7119,963,1029
7120,965,1030
7121,968,1033
7122,968,1030
7123,967,1027
7124,966,1026
7125,963,1027
7126,967,1029
7127,969,1028
7128,968,1029
7129,968,1025
7130,966,1024
7131,964,1022
7132,967,1023
7133,968,1027
7134,969,1027
7135,969,1023
7136,967,1024
7137,967,1023
7138,968,1023
7139,969,1024
7140,970,1023
7141,966,1022
7142,966,1023
7143,965,1021
7144,965,1024
7145,969,1024
7146,969,1022
7147,968,1018
7148,966,1021
7149,966,1023
7150,967,1023
7151,968,1025
7152,969,1022
7153,968,1019
7154,966,1020
7155,964,1022
7156,965,1021
7157,968,1025
7158,968,1024
7159,968,1023
7160,964,1021
7161,963,1022
7162,962,1023
7163,967,1023
7164,972,1022
7165,970,1022
7166,967,1020
7167,965,1020
7168,967,1023
7169,966,1023
7170,970,1023
7171,972,1024
7172,967,1023
7173,964,1024
7174,965,1030
7175,969,1034
7176,974,1036
7177,976,1039
7178,978,1039
7179,982,1039
7180,987,1040
7181,990,1044
7182,990,1040
7183,989,1040
7184,987,1033
7185,988,1032
7186,992,1029
7187,996,1032
7188,1002,1028
7189,1001,1029
7190,1001,1027
7191,1003,1024
7192,1008,1024
7193,1012,1025
7194,1011,1025
7195,1009,1027
7196,1006,1023
7197,1003,1023
7198,1004,1025
7199,1003,1024
7200,998,1022
7201,991,1017
7202,979,1015
7203,969,1017
7204,963,1019
7205,959,1019
7206,959,1018
7207,958,1017
7208,955,1013
7209,953,1012
7210,951,1015
7211,955,1017
7212,956,1016
7213,957,1015
7214,953,1013
7215,950,1011
7216,953,1012
7217,957,1016
7218,956,1013
7219,957,1012
7220,955,1013
7221,954,1014
7222,956,1016
7223,962,1016
7224,962,1016
7225,963,1012
7226,964,1010
7227,959,1008
7228,962,1009
7229,960,1009
7230,963,1008
7231,961,1006
7232,957,1003
7233,954,1001
7234,957,1001
7235,967,994
7236,984,986
7237,1008,973
7238,1038,956
7239,1068,935
7240,1103,918
7241,1145,914
7242,1184,913
7243,1217,919
7244,1243,933
7245,1260,942
7246,1266,945
7247,1251,953
7248,1222,961
7249,1190,968
7250,1163,971
7251,1144,980
7252,1114,990
7253,1086,1001
7254,1066,1004
7255,1053,1005
7256,1037,1008
7257,1018,1010
7258,999,1013
7259,987,1022
7260,978,1024
7261,967,1027
7262,953,1030
7263,938,1030
7264,932,1035
7265,931,1036
7266,928,1034
7267,924,1032
7268,921,1028
7269,918,1030
7270,920,1034
7271,923,1035
7272,926,1032
7273,924,1032
7274,921,1032
7275,918,1028
7276,920,1032
7277,921,1035
7278,921,1035
7279,923,1033
7280,924,1031
7281,923,1032
7282,922,1032
7283,924,1035
7284,927,1034
7285,927,1036
7286,924,1032
7287,922,1035
7288,921,1036
7289,926,1035
7290,926,1034
7291,925,1035
7292,927,1032
7293,924,1034
7294,924,1036
7295,928,1036
7296,925,1039
7297,924,1036
7298,921,1033
7299,920,1033
7300,925,1037
7301,924,1038
7302,923,1038
7303,924,1036
7304,920,1037
7305,922,1036
7306,924,1036
7307,925,1040
7308,925,1041
7309,924,1040
7310,922,1038
7311,921,1039
7312,923,1044
7313,926,1043
7314,926,1040
7315,929,1040
7316,928,1039
7317,926,1039
7318,929,1043
7319,931,1046
7320,936,1046
7321,939,1043
7322,939,1041
7323,940,1039
7324,945,1041
7325,950,1044
7326,951,1044
7327,956,1044
7328,954,1042
7329,955,1042
7330,961,1044
7331,969,1043
7332,974,1041
7333,977,1039
7334,978,1039
7335,977,1038
7336,981,1039
7337,985,1040
7338,989,1037
7339,988,1037
7340,988,1035
7341,987,1033
7342,988,1033
7343,992,1035
7344,992,1031
7345,992,1029
7346,989,1028
7347,986,1025
7348,985,1027
7349,988,1031
7350,987,1030
7351,984,1029
7352,982,1027
7353,979,1025
7354,980,1027
7355,980,1030
7356,979,1027
7357,975,1027
7358,971,1026
7359,971,1027
7360,971,1028
7361,973,1033
7362,975,1030
7363,973,1028
7364,972,1023
7365,970,1027
7366,968,1025
7367,969,1031
7368,971,1030
7369,969,1027
7370,967,1027
7371,966,1027
7372,966,1027
7373,970,1029
7374,970,1031
7375,969,1029
7376,968,1027
7377,965,1026
7378,966,1027
7379,966,1029
7380,966,1025
7381,964,1024
7382,965,1023
7383,961,1023
7384,963,1027
7385,965,1029
7386,966,1023
7387,967,1024
7388,965,1020
7389,963,1019
7390,962,1021
7391,963,1024
7392,965,1022
7393,962,1022
7394,960,1023
7395,959,1020
7396,961,1019
7397,963,1022
7398,962,1023
7399,963,1019
7400,962,1019
7401,961,1018
7402,958,1021
7403,963,1024
7404,963,1020
7405,963,1020
7406,964,1019
7407,964,1020
7408,963,1018
7409,965,1022
7410,966,1022
7411,966,1020
7412,964,1019
7413,962,1017
7414,962,1020
7415,966,1021
7416,967,1020
7417,965,1021
7418,964,1019
7419,961,1019
7420,962,1021
7421,964,1024
7422,965,1022
7423,966,1018
7424,963,1017
7425,962,1017
7426,963,1020
7427,962,1020
7428,964,1021
7429,968,1018
7430,966,1019
7431,963,1018
7432,968,1024
7433,969,1025
7434,972,1032
7435,972,1032
7436,974,1036
7437,977,1036
7438,980,1034
7439,982,1036
7440,984,1036
7441,984,1035
7442,984,1034
7443,981,1031
7444,984,1030
7445,993,1029
7446,1000,1026
7447,1002,1027
7448,999,1027
7449,999,1026
7450,1001,1026
7451,1006,1025
7452,1009,1025
7453,1007,1023
7454,1005,1023
7455,999,1023
7456,998,1024
7457,1000,1026
7458,997,1023
7459,995,1018
7460,983,1016
7461,972,1018
7462,965,1018
7463,959,1018
7464,955,1018
7465,954,1015
7466,952,1014
7467,950,1016
7468,950,1019
7469,953,1019
7470,956,1019
7471,950,1015
7472,952,1016
7473,952,1014
7474,954,1017
7475,957,1018
7476,956,1018
7477,956,1019
7478,954,1017
7479,953,1015
7480,956,1015
7481,959,1019
7482,958,1015
7483,958,1016
7484,957,1016
7485,955,1014
7486,957,1016
7487,962,1016
7488,966,1013
7489,965,1009
7490,962,1009
7491,957,1011
7492,958,1013
7493,957,1012
7494,965,1006
7495,980,995
7496,998,983
7497,1026,971
7498,1058,958
7499,1097,945
7500,1137,933
7501,1171,924
7502,1200,925
7503,1222,932
7504,1241,947
7505,1260,957
7506,1267,960
7507,1253,961
7508,1225,969
7509,1196,977
7510,1173,984
7511,1150,993
7512,1119,999
7513,1081,1004
7514,1058,1010
7515,1041,1012
7516,1029,1020
7517,1011,1024
7518,995,1026
7519,980,1025
7520,967,1027
7521,956,1029
7522,946,1035
7523,938,1036
7524,933,1038
7525,931,1038
7526,930,1035
7527,923,1035
7528,920,1036
7529,922,1037
7530,923,1038
7531,923,1035
7532,922,1035
7533,920,1036
7534,918,1040
7535,920,1039
7536,924,1037
7537,924,1038
7538,922,1035
7539,920,1036
7540,925,1037
7541,925,1039
7542,927,1039
7543,927,1040
7544,926,1036
7545,926,1038
7546,924,1038
7547,927,1040
7548,927,1039
7549,926,1039
7550,927,1038
7551,924,1039
7552,925,1041
7553,927,1041
7554,929,1042
7555,928,1042
7556,926,1037
7557,923,1038
7558,925,1042
7559,926,1041
7560,927,1041
7561,925,1041
7562,922,1038
7563,922,1038
7564,921,1041
7565,927,1042
7566,927,1042
7567,926,1042
7568,923,1041
7569,921,1041
7570,922,1044
7571,926,1046
7572,929,1042
7573,927,1042
7574,926,1040
7575,925,1040
7576,926,1043
7577,928,1046
7578,932,1045
7579,933,1045
7580,934,1042
7581,934,1041
7582,936,1046
7583,938,1045
7584,941,1046
7585,943,1043
7586,941,1042
7587,942,1043
7588,948,1045
7589,952,1047
7590,957,1045
7591,958,1044
7592,960,1040
7593,959,1042
7594,962,1043
7595,967,1044
7596,970,1043
7597,974,1041
7598,974,1037
7599,979,1035
7600,982,1038
7601,986,1040
7602,990,1041
7603,991,1039
7604,989,1035
7605,986,1035
7606,989,1035
7607,993,1036
7608,995,1035
7609,992,1033
7610,988,1031
7611,983,1030
7612,982,1033
7613,983,1037
7614,987,1032
7615,986,1030
7616,982,1031
7617,978,1026
7618,976,1029
7619,977,1031
7620,976,1031
7621,977,1029
7622,973,1028
7623,971,1028
7624,971,1029
7625,969,1031
7626,971,1030
7627,971,1030
7628,969,1029
7629,968,1028
7630,967,1030
7631,970,1032
7632,970,1030
7633,969,1028
7634,966,1026
7635,964,1028
7636,966,1031
7637,969,1031
7638,969,1031
7639,967,1030
7640,966,1029
7641,965,1027
7642,966,1027
7643,966,1029
7644,966,1028
7645,968,1027
7646,964,1026
7647,961,1025
7648,963,1027
7649,966,1027
7650,969,1025
7651,968,1021
7652,966,1022
7653,963,1022
7654,966,1020
7655,968,1025
7656,971,1025
7657,971,1023
7658,967,1024
7659,965,1022
7660,964,1026
7661,962,1025
7662,969,1025
7663,969,1023
7664,967,1021
7665,966,1020
7666,965,1024
7667,964,1025
7668,965,1023
7669,965,1025
7670,963,1024
7671,962,1022
7672,966,1022
7673,965,1023
7674,964,1020
7675,963,1020
7676,965,1017
7677,961,1017
7678,962,1020
7679,964,1025
7680,965,1020
7681,965,1018
7682,963,1017
7683,964,1014
7684,964,1018
7685,965,1022
7686,967,1019
7687,967,1019
7688,968,1016
7689,971,1016
7690,974,1019
7691,974,1020
7692,973,1018
7693,974,1019
7694,974,1020
7695,975,1019
7696,978,1024
7697,981,1028
7698,983,1032
7699,985,1032
7700,988,1032
7701,990,1030
7702,996,1031
7703,999,1034
7704,998,1032
7705,998,1026
7706,997,1022
7707,1001,1019
7708,1007,1022
7709,1010,1025
7710,1015,1024
7711,1017,1023
7712,1015,1019
7713,1017,1016
7714,1018,1013
7715,1019,1019
7716,1019,1019
7717,1016,1016
7718,1013,1015
7719,1011,1013
7720,1011,1014
7721,1007,1013
7722,1002,1013
7723,991,1009
7724,981,1008
7725,971,1008
7726,964,1011
7727,968,1011
7728,969,1010
7729,963,1009
7730,960,1005
7731,961,1003
7732,966,1006
7733,966,1008
7734,967,1006
7735,965,1004
7736,964,1004
7737,959,1000
7738,964,1003
7739,967,1006
7740,968,1008
7741,966,1006
7742,966,1005
7743,965,1002
7744,966,1006
7745,971,1003
7746,972,1001
7747,972,1001
7748,971,999
7749,971,995
7750,971,996
7751,975,996
7752,971,995
7753,968,992
7754,967,993
7755,965,986
7756,976,980
7757,999,972
7758,1031,960
7759,1066,944
7760,1104,927
7761,1144,914
7762,1184,907
7763,1219,913
7764,1245,923
7765,1262,935
7766,1272,941
7767,1266,940
7768,1244,944
7769,1211,954
7770,1186,963
7771,1163,967
7772,1142,972
7773,1115,980
7774,1086,989
7775,1065,994
7776,1050,996
7777,1033,998
7778,1012,998
7779,994,1000
7780,981,1008
7781,972,1011
7782,963,1015
7783,953,1016
7784,947,1017
7785,941,1019
7786,940,1020
7787,937,1023
7788,936,1020
7789,935,1019
7790,933,1017
7791,929,1015
7792,925,1018
7793,925,1019
7794,928,1020
7795,931,1016
7796,934,1015
7797,932,1014
7798,935,1019
7799,936,1020
7800,936,1022
7801,938,1019
7802,936,1019
7803,932,1019
7804,934,1021
7805,935,1021
7806,932,1020
7807,934,1020
7808,933,1017
7809,933,1019
7810,931,1020
7811,932,1022
7812,931,1020
7813,931,1021
7814,935,1020
7815,930,1019
7816,932,1020
7817,933,1024
7818,936,1024
7819,934,1023
7820,933,1021
7821,933,1022
7822,936,1025
7823,935,1026
7824,937,1028
7825,932,1028
7826,929,1029
7827,927,1028
7828,930,1030
7829,932,1030
7830,933,1029
7831,934,1027
7832,931,1031
7833,927,1026
7834,930,1031
7835,932,1031
7836,935,1034
7837,936,1033
7838,935,1029
7839,935,1029
7840,938,1033
7841,941,1035
7842,943,1031
7843,943,1031
7844,944,1027
7845,945,1029
7846,947,1030
7847,950,1034
7848,956,1035
7849,957,1032
7850,961,1030
7851,961,1030
7852,963,1031
7853,967,1034
7854,974,1033
7855,976,1033
7856,977,1029
7857,979,1030
7858,985,1031
7859,987,1031
7860,993,1029
7861,995,1026
7862,995,1023
7863,993,1023
7864,993,1022
7865,999,1026
7866,999,1023
7867,998,1023
7868,997,1021
7869,994,1019
7870,996,1019
7871,997,1018
7872,999,1017
7873,996,1018
7874,993,1017
7875,987,1017
7876,988,1018
7877,991,1018
7878,991,1018
7879,986,1016
7880,986,1015
7881,984,1015
7882,984,1016
7883,985,1017
7884,983,1019
7885,981,1016
7886,978,1013
7887,981,1012
7888,986,1015
7889,987,1018
7890,985,1016
7891,981,1016
7892,979,1013
7893,977,1014
7894,976,1014
7895,974,1012
7896,974,1010
7897,974,1007
7898,973,1003
7899,972,998
7900,975,996
7901,978,998
7902,978,992
7903,980,988
7904,984,985
7905,986,983
7906,993,983
7907,1006,980
7908,1025,970
7909,1041,953
7910,1057,937
7911,1082,936
7912,1109,941
7913,1143,946
7914,1174,951
7915,1195,960
7916,1215,966
7917,1236,981
7918,1265,1003
7919,1296,1029
7920,1324,1055
7921,1349,1083
7922,1368,1110
7923,1380,1134
7924,1378,1153
7925,1347,1160
7926,1288,1154
7927,1224,1141
7928,1172,1124
7929,1129,1107
7930,1083,1093
7931,1039,1083
7932,999,1069
7933,964,1057
7934,938,1048
7935,919,1044
7936,911,1038
7937,905,1030
7938,902,1021
7939,897,1017
7940,896,1017
7941,894,1017
7942,896,1015
7943,898,1017
7944,898,1015
7945,896,1013
7946,898,1009
7947,894,1005
7948,895,1006
7949,896,1006
7950,894,1005
7951,895,1001
7952,891,997
7953,885,993
7954,882,992
7955,881,991
7956,878,992
7957,872,991
7958,869,993
7959,866,993
7960,867,1000
7961,869,1002
7962,874,997
7963,880,995
7964,878,993
7965,876,993
7966,872,993
7967,873,994
7968,876,994
7969,878,995
7970,883,997
7971,887,999
7972,892,1005
7973,898,1010
7974,902,1014
7975,904,1013
7976,905,1012
7977,902,1010
7978,901,1010
7979,899,1013
7980,900,1012
7981,901,1011
7982,900,1011
7983,896,1009
7984,896,1012
7985,897,1016
7986,899,1014
7987,897,1010
7988,897,1010
7989,894,1012
7990,895,1012
7991,895,1014
7992,894,1012
7993,897,1012
7994,898,1012
7995,899,1016
7996,898,1016
7997,899,1020
7998,902,1017
7999,899,1016
8000,900,1013
8001,902,1014
8002,908,1017
8003,909,1023
8004,912,1021
8005,916,1019
8006,918,1017
8007,917,1019
8008,923,1018
8009,930,1023
8010,934,1022
8011,937,1021
8012,939,1019
8013,940,1023
8014,947,1023
8015,953,1027
8016,957,1026
8017,960,1025
8018,962,1024
8019,965,1025
8020,971,1030
8021,975,1030
8022,981,1030
8023,978,1027
8024,980,1028
8025,979,1029
8026,980,1031
8027,984,1034
8028,984,1032
8029,989,1031
8030,986,1031
8031,983,1029
8032,985,1032
8033,986,1034
8034,987,1033
8035,989,1034
8036,987,1032
8037,987,1031
8038,987,1031
8039,989,1032
8040,989,1033
8041,985,1031
8042,984,1032
8043,984,1031
8044,987,1032
8045,987,1033
8046,989,1031
8047,985,1029
8048,984,1028
8049,981,1030
8050,985,1031
8051,985,1032
8052,986,1033
8053,983,1030
8054,982,1026
8055,979,1025
8056,982,1028
8057,983,1032
8058,986,1030
8059,983,1031
8060,983,1027
8061,980,1026
8062,982,1028
8063,982,1029
8064,982,1026
8065,983,1025
8066,980,1026
8067,978,1026
8068,977,1026
8069,980,1027
8070,982,1027
8071,982,1024
8072,980,1025
8073,976,1021
8074,975,1023
8075,975,1023
8076,975,1023
8077,972,1023
8078,972,1019
8079,971,1018
8080,973,1021
8081,973,1022
8082,976,1023
8083,975,1022
8084,973,1018
8085,969,1019
8086,968,1019
8087,968,1021
8088,971,1019
8089,971,1018
8090,969,1018
8091,967,1018
8092,969,1020
8093,971,1020
8094,973,1020
8095,973,1018
8096,969,1017
8097,967,1016
8098,968,1018
8099,970,1020
8100,975,1018
8101,975,1016
8102,972,1016
8103,971,1015
8104,969,1019
8105,971,1020
8106,971,1020
8107,971,1018
8108,969,1019
8109,968,1016
8110,966,1018
8111,968,1020
8112,971,1018
8113,966,1018
8114,969,1017
8115,967,1017
8116,968,1018
8117,969,1019
8118,969,1018
8119,968,1017
8120,968,1013
8121,964,1014
8122,967,1020
8123,968,1022
8124,966,1020
8125,967,1018
8126,965,1016
8127,962,1014
8128,962,1015
8129,964,1017
8130,964,1018
8131,964,1018
8132,964,1017
8133,959,1017
8134,961,1016
8135,963,1018
8136,965,1016
8137,964,1016
8138,964,1015
8139,960,1016
8140,961,1018
8141,962,1020
8142,964,1015
8143,962,1015
8144,964,1014
8145,964,1015
8146,962,1016
8147,963,1019
8148,963,1018
8149,963,1017
8150,964,1014
8151,963,1016
8152,964,1018
8153,962,1020
8154,966,1020
8155,965,1018
8156,967,1017
8157,965,1016
8158,967,1018
8159,966,1019
8160,971,1019
8161,969,1016
8162,969,1019
8163,964,1018
8164,966,1020
8165,968,1021
8166,969,1021
8167,969,1021
8168,966,1018
8169,964,1016
8170,965,1020
8171,966,1022
8172,969,1021
8173,965,1022
8174,965,1020
8175,963,1016
8176,964,1019
8177,967,1018
8178,966,1019
8179,964,1018
8180,963,1016
8181,958,1019
8182,962,1021
8183,964,1020
8184,964,1020
8185,962,1020
8186,964,1017
8187,962,1016
8188,959,1020
8189,962,1023
8190,963,1024
8191,962,1024
8192,962,1023
8193,958,1021
8194,960,1024
8195,962,1024
8196,961,1023
8197,961,1025
8198,960,1022
8199,958,1025
8200,962,1025
8201,963,1028
8202,966,1026
8203,963,1024
8204,963,1021
8205,958,1023
8206,959,1023
8207,960,1027
8208,966,1026
8209,967,1023
8210,962,1024
8211,960,1023
8212,962,1027
8213,963,1027
8214,969,1026
8215,964,1027
8216,966,1027
8217,964,1032
8218,966,1037
8219,970,1042
8220,976,1043
8221,980,1043
8222,983,1042
8223,984,1037
8224,987,1042
8225,987,1047
8226,985,1043
8227,981,1041
8228,984,1036
8229,990,1033
8230,998,1033
8231,1000,1033
8232,1001,1036
8233,999,1035
8234,999,1033
8235,1001,1031
8236,1005,1030
8237,1007,1032
8238,1005,1031
8239,1001,1029
8240,1000,1029
8241,999,1031
8242,1000,1028
8243,998,1029
8244,995,1028
8245,993,1023
8246,984,1019
8247,973,1018
8248,962,1020
8249,958,1023
8250,957,1021
8251,955,1021
8252,951,1016
8253,950,1018
8254,949,1020
8255,950,1023
8256,951,1022
8257,950,1020
8258,950,1017
8259,949,1019
8260,951,1021
8261,953,1026
8262,956,1024
8263,957,1020
8264,956,1018
8265,953,1020
8266,956,1021
8267,955,1022
8268,959,1024
8269,958,1022
8270,958,1018
8271,956,1019
8272,956,1016
8273,960,1016
8274,961,1011
8275,957,1012
8276,955,1009
8277,954,1008
8278,960,1003
8279,969,998
8280,982,988
8281,1004,970
8282,1032,951
8283,1068,934
8284,1111,922
8285,1150,919
8286,1189,920
8287,1218,925
8288,1241,934
8289,1258,943
8290,1269,951
8291,1256,952
8292,1227,955
8293,1194,964
8294,1171,971
8295,1155,976
8296,1138,987
8297,1115,996
8298,1087,999
8299,1063,1005
8300,1049,1010
8301,1033,1011
8302,1015,1016
8303,994,1020
8304,981,1024
8305,970,1026
8306,957,1029
8307,945,1031
8308,936,1033
8309,932,1036
8310,931,1034
8311,928,1033
8312,924,1034
8313,920,1032
8314,916,1036
8315,919,1035
8316,920,1033
8317,921,1035
8318,918,1032
8319,918,1034
8320,918,1035
8321,922,1037
8322,922,1035
8323,921,1035
8324,921,1034
8325,921,1032
8326,921,1037
8327,923,1040
8328,925,1040
8329,927,1037
8330,925,1036
8331,924,1037
8332,924,1036
8333,926,1039
8334,926,1039
8335,927,1038
8336,925,1038
8337,923,1038
8338,924,1039
8339,925,1039
8340,928,1040
8341,926,1040
8342,926,1038
8343,923,1041
8344,924,1043
8345,924,1046
8346,927,1047
8347,927,1043
8348,927,1039
8349,925,1042
8350,926,1044
8351,928,1047
8352,930,1049
8353,930,1047
8354,930,1047
8355,929,1047
8356,928,1051
8357,931,1052
8358,933,1052
8359,933,1052
8360,935,1051
8361,936,1052
8362,940,1055
8363,943,1057
8364,945,1060
8365,948,1059
8366,947,1057
8367,946,1053
8368,951,1058
8369,951,1060
8370,955,1062
8371,957,1064
8372,962,1063
8373,961,1064
8374,967,1062
8375,967,1065
8376,970,1066
8377,973,1067
8378,973,1065
8379,974,1063
8380,979,1066
8381,980,1066
8382,985,1067
8383,988,1066
8384,992,1063
8385,992,1063
8386,993,1066
8387,997,1067
8388,1002,1067
8389,1003,1065
8390,1001,1060
8391,1003,1058
8392,1006,1059
8393,1009,1061
8394,1008,1060
8395,1009,1057
8396,1006,1054
8397,1006,1053
8398,1006,1056
8399,1005,1055
8400,1001,1051
8401,1000,1048
8402,997,1050
8403,995,1046
8404,994,1051
8405,995,1051
8406,993,1048
8407,989,1047
8408,986,1046
8409,982,1044
8410,982,1044
8411,980,1046
8412,980,1045
8413,976,1044
8414,971,1042
8415,969,1040
8416,967,1043
8417,969,1042
8418,970,1041
8419,968,1043
8420,964,1040
8421,962,1038
8422,961,1043
8423,962,1044
8424,958,1042
8425,960,1040
8426,959,1036
8427,954,1039
8428,957,1040
8429,954,1042
8430,953,1040
8431,950,1040
8432,949,1040
8433,947,1040
8434,949,1040
8435,948,1041
8436,952,1039
8437,950,1037
8438,947,1036
8439,946,1037
8440,948,1038
8441,948,1040
8442,947,1039
8443,946,1035
8444,945,1033
8445,942,1031
8446,944,1034
8447,945,1036
8448,949,1037
8449,946,1036
8450,944,1033
8451,942,1034
8452,944,1033
8453,945,1034
8454,944,1034
8455,946,1035
8456,944,1033
8457,943,1033
8458,945,1034
8459,947,1033
8460,951,1035
8461,950,1033
8462,945,1031
8463,941,1029
8464,944,1036
8465,946,1039
8466,948,1035
8467,947,1033
8468,942,1030
8469,940,1031
8470,945,1031
8471,946,1033
8472,947,1034
8473,948,1034
8474,945,1033
8475,943,1031
8476,946,1033
8477,948,1036
8478,949,1037
8479,948,1034
8480,947,1031
8481,945,1032
8482,947,1035
8483,951,1039
8484,950,1037
8485,948,1038
8486,950,1038
8487,947,1044
8488,952,1047
8489,955,1050
8490,960,1052
8491,963,1050
8492,963,1050
8493,964,1047
8494,966,1050
8495,968,1051
8496,968,1049
8497,968,1047
8498,970,1043
8499,972,1042
8500,976,1044
8501,981,1045
8502,987,1048
8503,987,1043
8504,988,1039
8505,989,1035
8506,991,1036
8507,993,1037
8508,995,1039
8509,991,1041
8510,985,1037
8511,983,1034
8512,980,1034
8513,979,1034
8514,976,1035
8515,968,1032
8516,960,1032
8517,949,1031
8518,940,1032
8519,936,1035
8520,935,1033
8521,936,1030
8522,938,1029
8523,938,1030
8524,938,1032
8525,942,1034
8526,942,1034
8527,940,1035
8528,939,1033
8529,936,1031
8530,940,1033
8531,945,1035
8532,943,1034
8533,941,1035
8534,941,1033
8535,942,1031
8536,942,1034
8537,946,1035
8538,946,1032
8539,947,1030
8540,945,1027
8541,945,1027
8542,944,1028
8543,945,1029
8544,946,1024
8545,948,1023
8546,949,1019
8547,949,1019
8548,949,1021
8549,946,1024
8550,946,1024
8551,945,1021
8552,951,1016
8553,963,1010
8554,989,1000
8555,1020,991
8556,1055,970
8557,1093,955
8558,1130,943
8559,1168,942
8560,1201,955
8561,1231,972
8562,1252,985
8563,1260,985
8564,1252,982
8565,1228,982
8566,1200,991
8567,1181,997
8568,1163,1000
8569,1142,1000
8570,1112,1008
8571,1080,1014
8572,1054,1018
8573,1040,1025
8574,1032,1025
8575,1016,1026
8576,996,1029
8577,976,1031
8578,965,1036
8579,954,1040
8580,945,1045
8581,935,1044
8582,927,1042
8583,920,1043
8584,916,1046
8585,915,1047
8586,914,1046
8587,910,1045
8588,910,1045
8589,907,1046
8590,908,1046
8591,908,1047
8592,905,1043
8593,906,1044
8594,909,1041
8595,905,1043
8596,907,1047
8597,911,1046
8598,912,1045
8599,913,1044
8600,912,1043
8601,913,1043
8602,913,1042
8603,914,1044
8604,913,1041
8605,913,1042
8606,912,1043
8607,913,1043
8608,913,1045
