'sample #','MLII','V1'
0,999,868
1,999,868
2,999,868
3,999,868
4,999,868
5,999,868
6,999,868
7,999,864
8,997,862
9,999,856
10,999,858
11,1000,860
12,1005,861
13,1007,862
14,1003,864
15,990,861
16,979,857
17,973,856
18,968,860
19,965,862
20,956,859
21,945,854
22,942,852
23,943,855
24,948,856
25,950,855
26,946,854
27,942,851
28,939,849
29,940,853
30,943,854
31,950,853
32,949,853
33,946,854
34,942,851
35,943,851
36,945,853
37,949,854
38,946,855
39,945,855
40,945,852
41,945,854
42,947,856
43,948,858
44,947,856
45,944,853
46,943,852
47,943,853
48,943,853
49,941,853
50,937,853
51,939,850
52,939,850
53,946,853
54,949,855
55,951,858
56,950,861
57,951,859
58,948,857
59,943,853
60,943,843
61,946,834
62,951,815
63,958,796
64,960,772
65,965,737
66,970,690
67,968,640
68,956,605
69,936,590
70,922,590
71,920,599
72,922,608
73,922,613
74,917,618
75,916,625
76,907,633
77,899,638
78,896,646
79,894,652
80,887,657
81,878,662
82,868,671
83,857,682
84,847,691
85,841,699
86,836,704
87,829,707
88,828,718
89,836,735
90,841,752
91,845,770
92,846,785
93,858,796
94,872,805
95,884,819
96,899,833
97,908,847
98,915,856
99,923,860
100,927,870
101,935,879
102,945,890
103,950,893
104,950,896
105,952,895
106,952,896
107,953,901
108,959,905
109,961,907
110,960,908
111,955,905
112,955,908
113,958,908
114,964,911
115,967,913
116,964,913
117,966,915
118,965,915
119,964,916
120,966,921
121,968,922
122,967,921
123,960,918
124,960,919
125,962,922
126,965,927
127,967,927
128,969,929
129,967,927
130,966,927
131,965,929
132,967,931
133,967,929
134,966,929
135,967,927
136,969,929
137,968,931
138,970,933
139,972,934
140,970,934
141,970,930
142,969,930
143,972,933
144,976,937
145,979,939
146,976,938
147,971,937
148,968,933
149,969,937
150,976,938
151,980,939
152,980,938
153,979,936
154,976,937
155,980,938
156,984,941
157,986,941
158,987,941
159,980,937
160,975,938
161,979,940
162,985,942
163,987,943
164,991,943
165,988,940
166,986,939
167,987,941
168,988,944
169,991,945
170,990,945
171,993,941
172,992,941
173,989,939
174,989,940
175,995,939
176,990,937
177,992,936
178,991,934
179,991,933
180,992,936
181,993,935
182,991,937
183,990,933
184,986,929
185,985,929
186,985,930
187,988,928
188,988,925
189,984,924
190,984,922
191,983,926
192,984,924
193,986,921
194,986,919
195,984,914
196,978,912
197,979,910
198,982,912
199,981,911
200,983,911
201,981,911
202,978,909
203,972,910
204,973,912
205,974,910
206,976,908
207,975,908
208,974,908
209,971,908
210,970,912
211,973,913
212,971,911
213,971,909
214,970,908
215,968,911
216,972,915
217,973,915
218,972,915
219,970,911
220,969,911
221,970,912
222,973,915
223,973,916
224,972,916
225,970,916
226,969,915
227,970,917
228,971,919
229,973,921
230,971,922
231,968,920
232,967,922
233,967,924
234,968,925
235,972,928
236,971,925
237,970,924
238,968,925
239,967,928
240,967,931
241,972,932
242,973,934
243,970,931
244,969,930
245,967,934
246,970,938
247,969,939
248,966,936
249,963,936
250,960,936
251,963,937
252,966,941
253,969,941
254,967,940
255,962,939
256,959,938
257,961,942
258,961,941
259,964,942
260,962,941
261,957,938
262,956,939
263,951,942
264,953,943
265,957,944
266,956,942
267,956,939
268,949,943
269,951,942
270,954,942
271,956,942
272,952,943
273,952,942
274,949,940
275,950,941
276,953,943
277,954,944
278,954,944
279,952,941
280,950,941
281,949,940
282,949,943
283,954,942
284,952,944
285,952,941
286,948,940
287,949,942
288,953,944
289,955,944
290,956,944
291,955,941
292,953,941
293,952,943
294,955,946
295,957,948
296,955,945
297,956,943
298,956,945
299,956,945
300,958,948
301,958,947
302,959,944
303,958,945
304,957,944
305,958,949
306,962,949
307,965,948
308,964,947
309,960,945
310,958,943
311,955,946
312,959,947
313,961,948
314,962,948
315,961,947
316,955,947
317,958,947
318,962,949
319,966,950
320,961,948
321,957,945
322,957,945
323,955,950
324,959,952
325,963,951
326,964,951
327,963,950
328,963,948
329,961,952
330,964,954
331,966,955
332,964,954
333,960,955
334,959,953
335,960,954
336,963,957
337,963,959
338,962,960
339,962,954
340,962,954
341,963,953
342,964,955
343,968,959
344,971,958
345,969,960
346,968,963
347,971,961
348,974,966
349,977,969
350,979,972
351,979,973
352,978,973
353,984,976
354,988,977
355,993,977
356,995,974
357,994,967
358,994,964
359,1000,967
360,1003,970
361,1005,968
362,1007,966
363,1006,966
364,1005,963
365,1005,964
366,1009,967
367,1013,968
368,1014,970
369,1011,967
370,1002,968
371,997,969
372,991,970
373,987,969
374,980,967
375,969,965
376,960,963
377,954,964
378,950,962
379,954,963
380,954,961
381,953,959
382,952,958
383,951,960
384,952,963
385,955,964
386,956,963
387,953,962
388,950,959
389,948,960
390,946,966
391,952,965
392,956,966
393,960,965
394,956,965
395,952,966
396,953,968
397,955,967
398,956,965
399,953,964
400,954,963
401,954,967
402,955,968
403,954,968
404,953,965
405,950,963
406,950,964
407,952,965
408,955,969
409,958,969
410,958,971
411,954,968
412,952,970
413,950,970
414,949,966
415,947,952
416,946,937
417,949,919
418,955,899
419,961,874
420,969,836
421,974,785
422,971,732
423,956,692
424,939,683
425,925,691
426,922,703
427,925,710
428,927,718
429,925,722
430,918,732
431,909,742
432,904,749
433,898,753
434,893,758
435,888,765
436,879,772
437,868,784
438,855,795
439,844,805
440,841,811
441,837,819
442,837,830
443,841,849
444,848,873
445,853,887
446,860,901
447,873,912
448,887,929
449,902,942
450,914,958
451,922,971
452,928,981
453,936,988
454,946,996
455,953,1008
456,961,1015
457,964,1019
458,964,1023
459,964,1022
460,964,1025
461,966,1025
462,969,1028
463,971,1032
464,969,1033
465,966,1032
466,964,1033
467,969,1037
468,973,1040
469,975,1041
470,972,1043
471,968,1043
472,969,1041
473,972,1046
474,975,1048
475,976,1048
476,974,1050
477,975,1047
478,972,1048
479,971,1050
480,970,1053
481,976,1056
482,978,1055
483,980,1052
484,979,1053
485,980,1056
486,979,1058
487,979,1059
488,979,1056
489,976,1056
490,976,1057
491,976,1059
492,978,1063
493,984,1063
494,985,1062
495,984,1063
496,981,1063
497,978,1064
498,981,1067
499,988,1068
500,988,1069
501,987,1064
502,985,1065
503,984,1066
504,985,1067
505,989,1070
506,993,1068
507,993,1065
508,989,1068
509,990,1068
510,995,1070
511,996,1070
512,994,1068
513,992,1065
514,993,1067
515,996,1069
516,997,1069
517,1001,1069
518,1000,1068
519,1002,1066
520,1001,1066
521,1002,1066
522,1002,1069
523,1005,1067
524,1002,1065
525,1001,1062
526,998,1062
527,1000,1062
528,1003,1062
529,1004,1063
530,1002,1060
531,1001,1058
532,1000,1056
533,1003,1058
534,1007,1057
535,1006,1055
536,1004,1053
537,1001,1047
538,998,1047
539,999,1047
540,1004,1046
541,1004,1044
542,1001,1041
543,998,1037
544,995,1036
545,993,1034
546,992,1030
547,996,1031
548,996,1030
549,995,1024
550,991,1023
551,986,1024
552,985,1024
553,990,1022
554,991,1021
555,988,1019
556,986,1017
557,983,1020
558,984,1022
559,990,1020
560,986,1021
561,983,1021
562,982,1017
563,981,1019
564,981,1022
565,983,1021
566,983,1022
567,981,1019
568,979,1018
569,982,1021
570,984,1025
571,985,1023
572,982,1020
573,979,1021
574,976,1022
575,976,1023
576,976,1025
577,975,1023
578,975,1026
579,978,1024
580,979,1023
581,980,1025
582,979,1029
583,977,1032
584,977,1031
585,972,1027
586,971,1028
587,974,1027
588,977,1031
589,979,1031
590,977,1031
591,974,1031
592,967,1031
593,968,1036
594,972,1035
595,974,1037
596,972,1035
597,970,1034
598,969,1033
599,967,1038
600,971,1040
601,972,1040
602,970,1040
603,964,1036
604,963,1037
605,964,1039
606,962,1039
607,966,1040
608,970,1038
609,964,1039
610,960,1036
611,962,1038
612,963,1040
613,967,1039
614,967,1039
615,965,1038
616,961,1035
617,960,1038
618,960,1040
619,961,1041
620,960,1041
621,961,1037
622,956,1036
623,957,1040
624,961,1039
625,962,1037
626,960,1038
627,957,1035
628,956,1034
629,955,1037
630,958,1036
631,961,1037
632,960,1035
633,959,1033
634,956,1033
635,955,1034
636,956,1039
637,958,1038
638,958,1038
639,962,1035
640,961,1034
641,963,1037
642,962,1037
643,962,1037
644,963,1039
645,961,1036
646,960,1035
647,963,1039
648,964,1040
649,964,1040
650,963,1037
651,963,1036
652,960,1033
653,960,1037
654,962,1039
655,962,1038
656,963,1037
657,965,1035
658,965,1037
659,964,1038
660,965,1042
661,964,1040
662,965,1039
663,963,1038
664,963,1037
665,967,1038
666,969,1041
667,966,1041
668,967,1040
669,967,1038
670,961,1035
671,964,1038
672,966,1042
673,967,1040
674,965,1042
675,964,1039
676,966,1038
677,967,1041
678,971,1043
679,970,1041
680,968,1041
681,966,1042
682,965,1039
683,964,1041
684,967,1042
685,969,1043
686,970,1041
687,970,1041
688,967,1040
689,966,1040
690,968,1042
691,969,1044
692,969,1044
693,969,1042
694,969,1045
695,972,1048
696,979,1050
697,983,1052
698,984,1054
699,983,1054
700,981,1056
701,983,1061
702,984,1062
703,989,1062
704,994,1064
705,1000,1060
706,1001,1058
707,1006,1054
708,1007,1055
709,1011,1055
710,1011,1053
711,1007,1050
712,1008,1048
713,1016,1050
714,1025,1051
715,1026,1052
716,1025,1053
717,1022,1055
718,1016,1054
719,1008,1056
720,1000,1054
721,997,1052
722,989,1050
723,981,1048
724,971,1046
725,963,1045
726,961,1046
727,961,1043
728,961,1044
729,963,1043
730,960,1041
731,961,1044
732,963,1046
733,966,1046
734,963,1046
735,961,1045
736,959,1044
737,961,1045
738,961,1047
739,963,1046
740,962,1046
741,962,1042
742,961,1042
743,960,1044
744,961,1045
745,963,1046
746,967,1044
747,967,1044
748,962,1042
749,960,1046
750,960,1047
751,962,1046
752,955,1045
753,956,1041
754,954,1041
755,955,1044
756,955,1047
757,960,1046
758,961,1044
759,961,1045
760,955,1046
761,956,1048
762,960,1043
763,961,1028
764,959,1012
765,954,989
766,956,965
767,960,939
768,967,903
769,970,853
770,971,796
771,968,753
772,954,736
773,939,743
774,931,756
775,930,766
776,926,776
777,922,784
778,918,793
779,911,803
780,903,809
781,899,813
782,893,820
783,888,826
784,883,836
785,872,845
786,860,856
787,852,870
788,844,880
789,841,887
790,839,900
791,845,917
792,856,938
793,861,954
794,866,969
795,875,982
796,890,993
797,908,1011
798,921,1024
799,929,1035
800,932,1046
801,939,1053
802,945,1063
803,955,1072
804,961,1080
805,965,1082
806,966,1085
807,968,1086
808,968,1087
809,967,1089
810,970,1093
811,972,1092
812,973,1095
813,971,1094
814,971,1093
815,971,1096
816,971,1101
817,971,1100
818,972,1103
819,970,1101
820,967,1103
821,972,1105
822,981,1107
823,986,1105
824,982,1104
825,978,1106
826,973,1104
827,973,1107
828,978,1106
829,977,1110
830,977,1108
831,975,1108
832,978,1106
833,981,1110
834,980,1111
835,980,1112
836,980,1111
837,979,1111
838,978,1112
839,979,1112
840,983,1115
841,986,1115
842,984,1116
843,981,1111
844,978,1113
845,980,1113
846,987,1115
847,990,1116
848,992,1116
849,988,1112
850,984,1110
851,983,1113
852,989,1116
853,997,1114
854,1002,1113
855,995,1113
856,989,1111
857,988,1112
858,993,1116
859,997,1117
860,999,1113
861,995,1112
862,994,1112
863,996,1114
864,995,1114
865,1000,1112
866,1005,1111
867,1004,1108
868,1000,1106
869,1003,1107
870,1002,1107
871,1002,1106
872,1001,1103
873,1001,1098
874,999,1098
875,1003,1103
876,1005,1103
877,1006,1103
878,1007,1100
879,1004,1098
880,998,1094
881,994,1096
882,996,1093
883,1002,1093
884,1010,1091
885,1011,1087
886,1003,1087
887,997,1084
888,996,1087
889,1002,1084
890,1006,1081
891,1003,1076
892,999,1075
893,998,1074
894,995,1074
895,998,1070
896,994,1071
897,988,1066
898,987,1068
899,986,1067
900,987,1070
901,990,1067
902,989,1066
903,984,1062
904,982,1061
905,981,1064
906,982,1065
907,982,1066
908,979,1065
909,977,1061
910,975,1061
911,974,1063
912,978,1066
913,980,1063
914,979,1064
915,977,1062
916,971,1063
917,973,1064
918,974,1067
919,976,1067
920,976,1069
921,973,1065
922,970,1065
923,969,1066
924,971,1069
925,974,1068
926,971,1069
927,970,1066
928,964,1065
929,969,1067
930,971,1070
931,971,1070
932,972,1068
933,970,1067
934,965,1065
935,965,1069
936,967,1072
937,969,1071
938,969,1070
939,965,1069
940,962,1070
941,959,1071
942,962,1073
943,966,1073
944,966,1072
945,965,1071
946,963,1071
947,961,1070
948,962,1074
949,963,1073
950,966,1072
951,962,1070
952,957,1071
953,955,1071
954,955,1073
955,957,1071
956,958,1072
957,958,1069
958,956,1069
959,954,1071
960,955,1072
961,958,1072
962,958,1071
963,955,1069
964,949,1068
965,952,1067
966,954,1073
967,956,1071
968,955,1068
969,950,1066
970,950,1063
971,952,1065
972,951,1068
973,955,1066
974,953,1066
975,950,1062
976,950,1064
977,949,1063
978,953,1066
979,955,1067
980,956,1065
981,954,1064
982,951,1065
983,950,1066
984,951,1066
985,953,1065
986,951,1063
987,949,1066
988,950,1064
989,951,1065
990,956,1067
991,961,1065
992,957,1066
993,954,1064
994,951,1064
995,954,1064
996,954,1066
997,957,1068
998,956,1064
999,953,1062
1000,954,1065
1001,957,1067
1002,956,1064
1003,958,1065
1004,954,1063
1005,953,1064
1006,954,1066
1007,959,1068
1008,961,1067
1009,959,1064
1010,956,1063
1011,951,1060
1012,952,1061
1013,956,1065
1014,959,1065
1015,960,1067
1016,958,1062
1017,956,1063
1018,953,1063
1019,958,1064
1020,960,1065
1021,959,1064
1022,957,1062
1023,959,1064
1024,958,1064
1025,959,1067
1026,960,1065
1027,958,1066
1028,956,1064
1029,955,1062
1030,959,1063
1031,962,1064
1032,962,1064
1033,962,1063
1034,962,1064
1035,959,1062
1036,960,1064
1037,963,1065
1038,964,1066
1039,963,1065
1040,957,1063
1041,957,1062
1042,957,1064
1043,963,1066
1044,966,1067
1045,964,1070
1046,961,1064
1047,957,1065
1048,960,1065
1049,963,1070
1050,966,1070
1051,965,1069
1052,964,1065
1053,960,1066
1054,963,1067
1055,967,1074
1056,968,1072
1057,969,1073
1058,971,1073
1059,974,1072
1060,978,1080
1061,980,1084
1062,982,1083
1063,985,1084
1064,986,1083
1065,988,1084
1066,991,1084
1067,997,1084
1068,1002,1083
1069,1006,1079
1070,1005,1077
1071,1004,1077
1072,1002,1074
1073,1001,1074
1074,1006,1075
1075,1009,1073
1076,1009,1072
1077,1010,1070
1078,1013,1074
1079,1016,1076
1080,1011,1072
1081,1001,1073
1082,991,1071
1083,979,1068
1084,975,1072
1085,967,1073
1086,963,1070
1087,954,1068
1088,951,1067
1089,950,1062
1090,953,1064
1091,954,1066
1092,955,1064
1093,955,1062
1094,952,1062
1095,952,1062
1096,954,1063
1097,956,1066
1098,957,1066
1099,953,1063
1100,951,1060
1101,948,1060
1102,950,1061
1103,953,1066
1104,958,1065
1105,956,1064
1106,954,1059
1107,953,1061
1108,953,1062
1109,954,1066
1110,956,1064
1111,955,1065
1112,953,1062
1113,952,1062
1114,954,1064
1115,954,1063
1116,958,1063
1117,957,1063
1118,953,1061
1119,951,1059
1120,953,1062
1121,953,1063
1122,954,1063
1123,955,1063
1124,956,1064
1125,956,1064
1126,954,1061
1127,952,1056
1128,950,1043
1129,948,1029
1130,955,1010
1131,959,988
1132,968,962
1133,976,921
1134,980,872
1135,975,819
1136,960,784
1137,936,773
1138,921,779
1139,921,790
1140,922,797
1141,924,803
1142,923,808
1143,913,816
1144,904,825
1145,897,834
1146,894,835
1147,889,843
1148,883,851
1149,875,858
1150,867,869
1151,855,880
1152,850,890
1153,844,897
1154,837,903
1155,835,915
1156,842,936
1157,850,955
1158,855,972
1159,860,984
1160,871,998
1161,886,1013
1162,902,1028
1163,914,1043
1164,921,1056
1165,929,1063
1166,936,1070
1167,947,1078
1168,950,1088
1169,958,1094
1170,963,1102
1171,968,1104
1172,968,1105
1173,965,1105
1174,963,1108
1175,966,1111
1176,968,1115
1177,966,1112
1178,966,1115
1179,966,1113
1180,967,1117
1181,969,1122
1182,970,1122
1183,967,1119
1184,968,1120
1185,964,1119
1186,964,1123
1187,970,1126
1188,973,1128
1189,972,1129
1190,972,1125
1191,968,1129
1192,970,1130
1193,970,1133
1194,973,1132
1195,970,1130
1196,972,1130
1197,968,1129
1198,969,1131
1199,970,1131
1200,974,1132
1201,976,1133
1202,977,1132
1203,971,1132
1204,971,1133
1205,975,1137
1206,975,1137
1207,976,1134
1208,976,1136
1209,975,1134
1210,977,1136
1211,983,1139
1212,987,1139
1213,984,1140
1214,983,1138
1215,980,1139
1216,981,1141
1217,983,1141
1218,984,1141
1219,984,1141
1220,985,1138
1221,985,1137
1222,987,1137
1223,988,1140
1224,988,1139
1225,990,1138
1226,990,1135
1227,986,1134
1228,985,1135
1229,992,1138
1230,994,1137
1231,997,1136
1232,992,1133
1233,990,1134
1234,992,1130
1235,994,1133
1236,998,1133
1237,998,1129
1238,994,1128
1239,993,1125
1240,992,1124
1241,994,1125
1242,992,1125
1243,992,1121
1244,994,1117
1245,995,1113
1246,994,1115
1247,994,1115
1248,996,1112
1249,993,1109
1250,994,1106
1251,989,1105
1252,988,1102
1253,990,1100
1254,989,1098
1255,988,1094
1256,984,1089
1257,981,1087
1258,981,1088
1259,982,1087
1260,984,1086
1261,982,1082
1262,981,1080
1263,977,1077
1264,975,1078
1265,976,1078
1266,974,1080
1267,973,1079
1268,974,1075
1269,971,1073
1270,972,1077
1271,974,1076
1272,973,1076
1273,976,1076
1274,976,1073
1275,973,1072
1276,971,1073
1277,970,1077
1278,973,1075
1279,973,1075
1280,974,1076
1281,974,1074
1282,973,1077
1283,972,1078
1284,975,1078
1285,974,1080
1286,974,1078
1287,969,1077
1288,971,1080
1289,971,1083
1290,974,1085
1291,973,1084
1292,970,1083
1293,969,1081
1294,970,1084
1295,968,1087
1296,971,1084
1297,971,1084
1298,968,1081
1299,967,1083
1300,966,1085
1301,970,1088
1302,972,1087
1303,969,1089
1304,964,1089
1305,965,1087
1306,969,1090
1307,969,1093
1308,969,1093
1309,969,1094
1310,966,1091
1311,961,1088
1312,963,1092
1313,961,1093
1314,966,1092
1315,967,1094
1316,963,1091
1317,962,1087
1318,960,1091
1319,963,1089
1320,961,1090
1321,962,1088
1322,955,1087
1323,953,1087
1324,954,1090
1325,957,1092
1326,961,1094
1327,961,1092
1328,954,1091
1329,954,1089
1330,957,1090
1331,957,1091
1332,959,1090
1333,959,1087
1334,956,1086
1335,954,1087
1336,953,1087
1337,954,1088
1338,957,1086
1339,957,1086
1340,956,1084
1341,949,1083
1342,950,1083
1343,955,1088
1344,962,1088
1345,963,1088
1346,960,1085
1347,957,1084
1348,958,1087
1349,961,1087
1350,964,1087
1351,966,1086
1352,963,1085
1353,960,1085
1354,962,1085
1355,960,1088
1356,962,1089
1357,961,1085
1358,958,1084
1359,960,1082
1360,960,1086
1361,962,1088
1362,966,1088
1363,963,1087
1364,964,1086
1365,961,1085
1366,961,1084
1367,960,1087
1368,962,1085
1369,963,1084
1370,963,1086
1371,962,1082
1372,965,1084
1373,968,1086
1374,968,1088
1375,966,1083
1376,961,1080
1377,956,1080
1378,956,1084
1379,961,1087
1380,970,1086
1381,972,1084
1382,970,1084
1383,966,1084
1384,967,1086
1385,966,1087
1386,968,1087
1387,968,1086
1388,964,1082
1389,964,1083
1390,962,1083
1391,966,1085
1392,968,1085
1393,967,1081
1394,966,1083
1395,963,1082
1396,962,1084
1397,968,1087
1398,972,1085
1399,973,1087
1400,976,1088
1401,975,1090
1402,977,1094
1403,980,1098
1404,981,1099
1405,982,1103
1406,984,1100
1407,987,1101
1408,990,1104
1409,996,1104
1410,999,1100
1411,1001,1095
1412,1003,1089
1413,1004,1089
1414,1008,1090
1415,1011,1092
1416,1013,1091
1417,1012,1090
1418,1012,1086
1419,1012,1088
1420,1011,1090
1421,1012,1095
1422,1013,1096
1423,1010,1092
1424,1006,1090
1425,995,1087
1426,986,1088
1427,979,1088
1428,970,1087
1429,962,1083
1430,955,1077
1431,952,1077
1432,952,1078
1433,955,1081
1434,960,1081
1435,961,1079
1436,959,1075
1437,956,1078
1438,955,1077
1439,955,1081
1440,956,1079
1441,955,1080
1442,950,1077
1443,951,1076
1444,955,1077
1445,957,1079
1446,961,1080
1447,959,1078
1448,955,1075
1449,950,1077
1450,952,1078
1451,957,1078
1452,956,1078
1453,956,1077
1454,957,1076
1455,952,1075
1456,952,1077
1457,954,1079
1458,958,1077
1459,957,1079
1460,959,1076
1461,957,1076
1462,956,1080
1463,955,1082
1464,959,1082
1465,959,1081
1466,956,1070
1467,949,1056
1468,946,1043
1469,950,1024
1470,958,999
1471,962,963
1472,964,912
1473,966,855
1474,965,802
1475,955,775
1476,935,773
1477,925,783
1478,919,790
1479,918,798
1480,921,808
1481,919,819
1482,916,831
1483,905,835
1484,896,839
1485,886,839
1486,882,850
1487,878,863
1488,872,873
1489,859,881
1490,849,892
1491,841,904
1492,840,912
1493,841,928
1494,848,944
1495,851,964
1496,854,982
1497,857,999
1498,870,1018
1499,891,1038
1500,907,1053
1501,918,1067
1502,927,1077
1503,933,1089
1504,943,1106
1505,953,1114
1506,959,1122
1507,964,1121
1508,965,1124
1509,964,1128
1510,964,1130
1511,966,1136
1512,969,1137
1513,968,1140
1514,967,1138
1515,967,1141
1516,971,1146
1517,975,1149
1518,975,1152
1519,974,1150
1520,968,1150
1521,964,1152
1522,969,1155
1523,978,1158
1524,981,1156
1525,982,1159
1526,980,1155
1527,976,1154
1528,974,1158
1529,973,1160
1530,975,1159
1531,976,1159
1532,974,1159
1533,975,1158
1534,975,1163
1535,977,1165
1536,978,1164
1537,980,1162
1538,979,1162
1539,978,1164
1540,983,1167
1541,984,1168
1542,986,1165
1543,987,1166
1544,988,1165
1545,985,1167
1546,982,1167
1547,981,1170
1548,986,1170
1549,988,1167
1550,989,1168
1551,987,1167
1552,985,1170
1553,988,1172
1554,992,1171
1555,995,1172
1556,992,1172
1557,991,1168
1558,995,1167
1559,995,1173
1560,998,1171
1561,992,1171
1562,990,1167
1563,987,1170
1564,992,1168
1565,1001,1169
1566,1004,1167
1567,1003,1165
1568,999,1162
1569,997,1162
1570,1003,1163
1571,1010,1165
1572,1015,1165
1573,1015,1160
1574,1004,1155
1575,1001,1155
1576,1003,1156
1577,1005,1155
1578,1010,1155
1579,1009,1150
1580,1006,1144
1581,1001,1142
1582,998,1140
1583,999,1138
1584,1005,1135
1585,1003,1133
1586,995,1127
1587,999,1125
1588,1004,1126
1589,1004,1125
1590,1000,1125
1591,993,1118
1592,991,1112
1593,989,1114
1594,987,1116
1595,990,1119
1596,990,1117
1597,985,1113
1598,977,1109
1599,976,1109
1600,984,1111
1601,991,1114
1602,994,1112
1603,988,1112
1604,983,1111
1605,980,1111
1606,987,1113
1607,990,1116
1608,992,1114
1609,992,1112
1610,986,1111
1611,979,1110
1612,980,1115
1613,984,1119
1614,985,1118
1615,981,1118
1616,986,1117
1617,984,1115
1618,982,1116
1619,981,1118
1620,982,1119
1621,981,1120
1622,980,1115
1623,983,1117
1624,985,1120
1625,989,1122
1626,994,1121
1627,990,1122
1628,984,1119
1629,978,1119
1630,977,1124
1631,979,1126
1632,982,1126
1633,982,1125
1634,981,1121
1635,978,1122
1636,979,1126
1637,980,1127
1638,979,1126
1639,977,1125
1640,976,1124
1641,975,1122
1642,976,1123
1643,975,1129
1644,974,1127
1645,972,1125
1646,969,1125
1647,966,1126
1648,970,1126
1649,978,1127
1650,974,1126
1651,968,1125
1652,963,1122
1653,965,1122
1654,962,1120
1655,958,1123
1656,954,1122
1657,956,1122
1658,955,1120
1659,949,1118
1660,942,1119
1661,955,1122
1662,972,1122
1663,974,1118
1664,964,1117
1665,964,1119
1666,969,1122
1667,975,1122
1668,978,1119
1669,975,1118
1670,968,1114
1671,967,1112
1672,977,1112
1673,985,1117
1674,984,1116
1675,979,1116
1676,976,1114
1677,976,1110
1678,978,1110
1679,979,1115
1680,978,1113
1681,977,1113
1682,975,1110
1683,971,1109
1684,974,1112
1685,980,1114
1686,979,1114
1687,980,1112
1688,976,1111
1689,973,1108
1690,972,1111
1691,977,1112
1692,979,1111
1693,978,1110
1694,975,1111
1695,975,1109
1696,975,1110
1697,978,1113
1698,978,1109
1699,979,1110
1700,975,1109
1701,973,1109
1702,974,1112
1703,977,1115
1704,982,1115
1705,980,1114
1706,973,1112
1707,971,1110
1708,971,1109
1709,972,1111
1710,978,1112
1711,979,1112
1712,979,1110
1713,970,1109
1714,973,1109
1715,971,1113
1716,972,1109
1717,970,1111
1718,974,1108
1719,977,1110
1720,979,1112
1721,974,1113
1722,967,1112
1723,964,1112
1724,970,1111
1725,983,1112
1726,1000,1113
1727,1003,1117
1728,995,1119
1729,995,1120
1730,996,1119
1731,995,1122
1732,994,1125
1733,992,1128
1734,995,1131
1735,1002,1131
1736,1006,1129
1737,1005,1128
1738,1008,1133
1739,1011,1130
1740,1015,1126
1741,1017,1124
1742,1015,1122
1743,1017,1121
1744,1021,1122
1745,1023,1122
1746,1024,1121
1747,1021,1120
1748,1024,1118
1749,1025,1115
1750,1026,1121
1751,1026,1124
1752,1025,1119
1753,1018,1118
1754,1008,1115
1755,998,1114
1756,991,1115
1757,983,1114
1758,974,1112
1759,968,1111
1760,967,1107
1761,969,1108
1762,976,1107
1763,980,1112
1764,975,1111
1765,968,1107
1766,961,1105
1767,958,1104
1768,964,1105
1769,971,1107
1770,974,1107
1771,971,1106
1772,962,1103
1773,951,1103
1774,946,1105
1775,946,1108
1776,952,1108
1777,964,1108
1778,973,1106
1779,970,1107
1780,965,1109
1781,967,1113
1782,963,1109
1783,959,1106
1784,968,1105
1785,978,1105
1786,983,1109
1787,978,1107
1788,973,1107
1789,973,1106
1790,970,1102
1791,964,1104
1792,962,1103
1793,968,1106
1794,971,1110
1795,972,1108
1796,964,1095
1797,947,1075
1798,938,1046
1799,944,1012
1800,952,964
1801,948,913
1802,944,849
1803,939,791
1804,931,747
1805,922,732
1806,912,738
1807,906,752
1808,909,761
1809,906,771
1810,902,784
1811,898,798
1812,889,804
1813,883,809
1814,878,812
1815,877,826
1816,874,840
1817,868,860
1818,856,873
1819,843,886
1820,835,898
1821,833,911
1822,844,930
1823,859,957
1824,872,980
1825,878,1005
1826,884,1022
1827,897,1042
1828,911,1062
1829,924,1081
1830,934,1096
1831,943,1112
1832,961,1126
1833,977,1141
1834,981,1150
1835,982,1159
1836,985,1163
1837,985,1168
1838,985,1168
1839,979,1171
1840,981,1175
1841,983,1180
1842,989,1179
1843,986,1182
1844,981,1182
1845,977,1185
1846,978,1185
1847,983,1190
1848,986,1190
1849,988,1191
1850,991,1190
1851,994,1192
1852,994,1195
1853,989,1197
1854,981,1198
1855,972,1196
1856,977,1198
1857,987,1200
1858,1001,1203
1859,1009,1207
1860,1011,1208
1861,1004,1204
1862,999,1200
1863,996,1201
1864,991,1204
1865,996,1207
1866,995,1207
1867,997,1206
1868,998,1205
1869,998,1205
1870,999,1208
1871,1000,1211
1872,1002,1211
1873,1002,1211
1874,1002,1211
1875,998,1211
1876,1000,1213
1877,1005,1217
1878,1010,1217
1879,1012,1218
1880,1012,1214
1881,1012,1214
1882,1009,1215
1883,1008,1215
1884,1009,1218
1885,1010,1215
1886,1011,1216
1887,1011,1212
1888,1011,1215
1889,1010,1216
1890,1010,1215
1891,1009,1213
1892,1017,1213
1893,1021,1213
1894,1018,1214
1895,1013,1214
1896,1015,1215
1897,1019,1212
1898,1021,1210
1899,1020,1208
1900,1023,1209
1901,1025,1207
1902,1022,1204
1903,1022,1201
1904,1022,1199
1905,1022,1195
1906,1021,1193
1907,1022,1194
1908,1022,1191
1909,1016,1187
1910,1011,1179
1911,1008,1176
1912,1006,1176
1913,1006,1176
1914,1013,1174
1915,1017,1167
1916,1016,1164
1917,1009,1160
1918,1004,1159
1919,1006,1159
1920,1009,1155
1921,1010,1155
1922,1007,1152
1923,1001,1152
1924,998,1151
1925,999,1150
1926,999,1146
1927,997,1145
1928,992,1142
1929,990,1143
1930,992,1145
1931,992,1144
1932,991,1144
1933,993,1147
1934,990,1143
1935,988,1141
1936,988,1143
1937,989,1147
1938,988,1148
1939,987,1147
1940,985,1145
1941,983,1146
1942,982,1145
1943,981,1147
1944,983,1148
1945,984,1146
1946,982,1146
1947,982,1145
1948,981,1149
1949,979,1152
1950,979,1151
1951,973,1152
1952,974,1150
1953,973,1153
1954,975,1155
1955,974,1158
1956,974,1156
1957,976,1158
1958,981,1156
1959,982,1156
1960,980,1156
1961,978,1159
1962,979,1161
1963,979,1161
1964,975,1157
1965,970,1159
1966,972,1162
1967,973,1162
1968,975,1162
1969,975,1161
1970,971,1158
1971,967,1159
1972,967,1162
1973,966,1166
1974,967,1167
1975,964,1164
1976,962,1165
1977,961,1160
1978,961,1163
1979,963,1165
1980,963,1166
1981,961,1164
1982,956,1163
1983,954,1159
1984,954,1162
1985,958,1166
1986,959,1166
1987,959,1165
1988,957,1162
1989,950,1163
1990,950,1164
1991,950,1164
1992,955,1164
1993,955,1163
1994,954,1161
1995,951,1158
1996,949,1162
1997,951,1162
1998,953,1160
1999,952,1158
2000,952,1158
2001,953,1159
2002,955,1161
2003,951,1161
2004,943,1158
2005,942,1159
2006,951,1156
2007,958,1155
2008,960,1158
2009,958,1159
2010,952,1160
2011,950,1160
2012,950,1156
2013,950,1155
2014,950,1156
2015,950,1158
2016,951,1160
2017,949,1159
2018,950,1159
2019,948,1154
2020,952,1157
2021,955,1155
2022,956,1157
2023,958,1154
2024,957,1153
2025,952,1152
2026,950,1154
2027,954,1155
2028,956,1155
2029,954,1155
2030,950,1152
2031,946,1150
2032,947,1150
2033,952,1153
2034,954,1151
2035,954,1151
2036,954,1149
2037,952,1148
2038,953,1147
2039,956,1150
2040,953,1147
2041,952,1147
2042,949,1144
2043,952,1146
2044,953,1144
2045,951,1146
2046,949,1144
2047,948,1142
2048,950,1140
2049,953,1139
2050,954,1140
2051,954,1143
2052,952,1144
2053,951,1140
2054,949,1140
2055,949,1141
2056,953,1142
2057,954,1146
2058,955,1142
2059,955,1140
2060,951,1138
2061,950,1137
2062,956,1136
2063,963,1140
2064,964,1141
2065,960,1141
2066,956,1139
2067,958,1141
2068,966,1145
2069,972,1147
2070,972,1146
2071,969,1147
2072,967,1147
2073,966,1150
2074,965,1152
2075,970,1154
2076,976,1157
2077,989,1157
2078,994,1153
2079,993,1149
2080,993,1144
2081,996,1146
2082,1000,1142
2083,999,1139
2084,997,1136
2085,999,1137
2086,999,1138
2087,1001,1139
2088,1004,1139
2089,1003,1137
2090,997,1136
2091,989,1133
2092,984,1135
2093,982,1138
2094,977,1136
2095,968,1133
2096,956,1130
2097,946,1128
2098,942,1127
2099,943,1128
2100,947,1125
2101,948,1125
2102,947,1122
2103,945,1119
2104,948,1123
2105,950,1123
2106,951,1125
2107,947,1125
2108,945,1119
2109,944,1119
2110,950,1123
2111,950,1124
2112,950,1122
2113,950,1121
2114,949,1120
2115,947,1116
2116,944,1119
2117,946,1120
2118,952,1121
2119,951,1118
2120,948,1116
2121,945,1116
2122,943,1120
2123,946,1117
2124,951,1117
2125,953,1116
2126,952,1111
2127,948,1114
2128,946,1117
2129,951,1119
2130,955,1120
2131,953,1114
2132,946,1102
2133,935,1082
2134,935,1062
2135,941,1036
2136,947,1002
2137,946,958
2138,945,893
2139,939,828
2140,931,788
2141,915,777
2142,902,785
2143,896,795
2144,896,802
2145,894,813
2146,893,824
2147,888,836
2148,880,842
2149,872,847
2150,860,852
2151,852,858
2152,856,873
2153,854,889
2154,844,899
2155,835,912
2156,827,920
2157,824,928
2158,832,950
2159,845,974
2160,853,996
2161,856,1017
2162,863,1031
2163,875,1049
2164,891,1066
2165,900,1084
2166,911,1100
2167,920,1113
2168,935,1120
2169,944,1131
2170,953,1141
2171,955,1149
2172,957,1154
2173,958,1154
2174,957,1152
2175,956,1156
2176,961,1157
2177,965,1162
2178,967,1163
2179,967,1163
2180,962,1164
2181,959,1164
2182,961,1167
2183,967,1169
2184,969,1172
2185,968,1169
2186,964,1169
2187,961,1171
2188,964,1174
2189,963,1174
2190,967,1176
2191,971,1173
2192,969,1173
2193,968,1175
2194,968,1173
2195,969,1176
2196,968,1174
2197,966,1177
2198,964,1174
2199,962,1174
2200,967,1175
2201,974,1178
2202,980,1178
2203,979,1178
2204,975,1176
2205,971,1176
2206,974,1179
2207,976,1183
2208,979,1181
2209,979,1182
2210,981,1183
2211,979,1180
2212,980,1181
2213,981,1181
2214,984,1182
2215,984,1182
2216,984,1178
2217,983,1179
2218,983,1182
2219,983,1181
2220,986,1182
2221,985,1178
2222,986,1177
2223,983,1176
2224,986,1176
2225,992,1180
2226,997,1179
2227,999,1179
2228,995,1175
2229,993,1174
2230,996,1176
2231,996,1177
2232,998,1175
2233,997,1175
2234,994,1172
2235,993,1172
2236,994,1170
2237,999,1170
2238,1004,1170
2239,1002,1167
2240,1002,1165
2241,996,1161
2242,998,1160
2243,998,1158
2244,1002,1159
2245,998,1156
2246,1000,1153
2247,994,1150
2248,995,1148
2249,997,1147
2250,997,1144
2251,993,1140
2252,989,1135
2253,991,1130
2254,996,1130
2255,997,1131
2256,994,1130
2257,989,1123
2258,984,1119
2259,983,1116
2260,984,1116
2261,986,1117
2262,986,1114
2263,981,1111
2264,981,1109
2265,975,1106
2266,977,1106
2267,975,1108
2268,975,1106
2269,974,1105
2270,973,1103
2271,971,1102
2272,974,1105
2273,978,1107
2274,978,1103
2275,974,1101
2276,972,1097
2277,968,1098
2278,972,1100
2279,971,1102
2280,971,1102
2281,965,1103
2282,961,1101
2283,964,1099
2284,973,1101
2285,979,1105
2286,978,1104
2287,972,1104
2288,967,1104
2289,962,1104
2290,963,1104
2291,968,1108
2292,972,1107
2293,975,1105
2294,974,1106
2295,968,1104
2296,968,1106
2297,967,1108
2298,969,1109
2299,968,1108
2300,968,1105
2301,965,1106
2302,963,1110
2303,967,1113
2304,969,1114
2305,969,1113
2306,965,1108
2307,961,1110
2308,962,1113
2309,966,1114
2310,969,1113
2311,965,1114
2312,962,1113
2313,959,1111
2314,963,1116
2315,964,1114
2316,968,1114
2317,962,1112
2318,960,1109
2319,958,1111
2320,963,1112
2321,962,1115
2322,963,1115
2323,961,1110
2324,955,1109
2325,955,1109
2326,956,1108
2327,958,1112
2328,960,1110
2329,958,1110
2330,955,1109
2331,954,1110
2332,954,1110
2333,955,1110
2334,955,1107
2335,955,1107
2336,950,1105
2337,947,1102
2338,949,1103
2339,954,1104
2340,957,1104
2341,959,1104
2342,955,1100
2343,951,1101
2344,948,1102
2345,947,1103
2346,949,1102
2347,950,1099
2348,951,1097
2349,953,1096
2350,954,1100
2351,955,1103
2352,958,1102
2353,955,1101
2354,952,1100
2355,951,1097
2356,954,1098
2357,954,1102
2358,954,1102
2359,951,1100
2360,949,1094
2361,947,1092
2362,949,1095
2363,954,1097
2364,959,1097
2365,960,1096
2366,959,1095
2367,956,1095
2368,956,1096
2369,957,1095
2370,958,1097
2371,958,1097
2372,961,1095
2373,958,1097
2374,958,1098
2375,959,1099
2376,960,1098
2377,960,1096
2378,958,1092
2379,957,1093
2380,960,1094
2381,959,1096
2382,964,1095
2383,962,1096
2384,961,1093
2385,959,1092
2386,960,1095
2387,962,1095
2388,963,1093
2389,964,1091
2390,962,1091
2391,961,1092
2392,963,1094
2393,964,1097
2394,966,1095
2395,968,1095
2396,964,1090
2397,961,1094
2398,961,1094
2399,963,1093
2400,966,1092
2401,963,1091
2402,963,1088
2403,961,1090
2404,961,1092
2405,962,1093
2406,966,1091
2407,965,1090
2408,962,1088
2409,961,1087
2410,963,1090
2411,965,1091
2412,964,1091
2413,963,1090
2414,966,1089
2415,961,1088
2416,960,1092
2417,964,1093
2418,975,1097
2419,980,1095
2420,982,1095
2421,980,1096
2422,980,1100
2423,982,1106
2424,986,1106
2425,984,1104
2426,990,1104
2427,991,1104
2428,998,1105
2429,1000,1102
2430,1002,1099
2431,1007,1095
2432,1005,1094
2433,1005,1092
2434,1004,1093
2435,1005,1091
2436,1007,1093
2437,1009,1090
2438,1010,1089
2439,1012,1090
2440,1012,1090
2441,1015,1090
2442,1010,1090
2443,1003,1084
2444,992,1082
2445,984,1084
2446,981,1085
2447,974,1086
2448,968,1083
2449,960,1083
2450,957,1078
2451,954,1076
2452,955,1076
2453,958,1077
2454,956,1078
2455,956,1077
2456,952,1076
2457,952,1075
2458,948,1076
2459,952,1074
2460,960,1077
2461,964,1072
2462,961,1074
2463,958,1072
2464,955,1074
2465,954,1079
2466,958,1073
2467,956,1073
2468,952,1070
2469,954,1072
2470,954,1073
2471,955,1074
2472,955,1074
2473,954,1073
2474,952,1070
2475,951,1068
2476,953,1071
2477,956,1071
2478,957,1069
2479,956,1069
2480,956,1066
2481,957,1068
2482,954,1068
2483,954,1067
2484,953,1067
2485,954,1068
2486,954,1070
2487,949,1069
2488,946,1067
2489,949,1057
2490,948,1043
2491,944,1022
2492,940,993
2493,939,962
2494,941,926
2495,941,885
2496,946,825
2497,947,772
2498,937,729
2499,918,714
2500,907,723
2501,902,735
2502,907,746
2503,909,754
2504,903,763
2505,897,772
2506,891,784
2507,884,792
2508,879,795
2509,872,798
2510,866,806
2511,865,813
2512,864,825
2513,854,841
2514,842,849
2515,833,861
2516,831,868
2517,829,880
2518,834,897
2519,842,917
2520,850,939
2521,856,958
2522,862,974
2523,869,991
2524,885,1009
2525,901,1028
2526,913,1041
2527,922,1051
2528,927,1062
2529,936,1079
2530,952,1093
2531,957,1104
2532,961,1109
2533,965,1113
2534,967,1113
2535,967,1113
2536,967,1116
2537,969,1121
2538,971,1123
2539,975,1126
2540,973,1124
2541,972,1124
2542,972,1126
2543,976,1130
2544,979,1133
2545,975,1136
2546,974,1131
2547,970,1129
2548,970,1130
2549,974,1133
2550,976,1135
2551,980,1134
2552,975,1132
2553,974,1131
2554,976,1132
2555,978,1134
2556,980,1139
2557,980,1138
2558,980,1135
2559,977,1133
2560,981,1136
2561,981,1140
2562,981,1141
2563,984,1139
2564,981,1136
2565,980,1137
2566,981,1137
2567,979,1137
2568,981,1134
2569,981,1134
2570,980,1135
2571,978,1137
2572,982,1138
2573,985,1138
2574,984,1137
2575,984,1136
2576,987,1133
2577,988,1133
2578,990,1137
2579,988,1138
2580,986,1139
2581,987,1138
2582,989,1137
2583,985,1136
2584,990,1139
2585,991,1143
2586,996,1140
2587,998,1138
2588,998,1134
2589,998,1133
2590,997,1131
2591,998,1130
2592,997,1129
2593,999,1130
2594,1000,1131
2595,1001,1135
2596,1001,1129
2597,998,1125
2598,1001,1121
2599,1001,1120
2600,1002,1120
2601,1001,1121
2602,1007,1124
2603,1010,1124
2604,1008,1121
2605,1008,1121
2606,1003,1117
2607,1001,1118
2608,1001,1116
2609,1001,1113
2610,1000,1108
2611,1000,1105
2612,1000,1104
2613,999,1101
2614,998,1100
2615,998,1099
2616,997,1098
2617,996,1093
2618,993,1090
2619,993,1084
2620,995,1082
2621,995,1083
2622,993,1082
2623,986,1078
2624,983,1073
2625,980,1071
2626,982,1072
2627,981,1073
2628,978,1067
2629,976,1062
2630,975,1058
2631,976,1057
2632,974,1060
2633,973,1061
2634,978,1058
2635,977,1058
2636,974,1054
2637,968,1053
2638,970,1053
2639,971,1053
2640,971,1055
2641,967,1051
2642,969,1047
2643,968,1049
2644,973,1053
2645,972,1056
2646,970,1053
2647,969,1052
2648,966,1052
2649,966,1052
2650,963,1053
2651,961,1051
2652,963,1052
2653,964,1050
2654,964,1049
2655,964,1050
2656,964,1048
2657,968,1052
2658,968,1054
2659,968,1054
2660,964,1054
2661,962,1053
2662,963,1055
2663,964,1058
2664,966,1054
2665,962,1050
2666,955,1051
2667,953,1053
2668,957,1056
2669,961,1058
2670,960,1056
2671,959,1053
2672,956,1052
2673,955,1054
2674,951,1059
2675,953,1059
2676,960,1059
2677,960,1054
2678,956,1051
2679,953,1050
2680,954,1055
2681,958,1057
2682,962,1060
2683,961,1059
2684,957,1056
2685,951,1055
2686,950,1054
2687,953,1056
2688,955,1055
2689,955,1055
2690,948,1052
2691,943,1053
2692,945,1054
2693,946,1054
2694,948,1050
2695,947,1050
2696,946,1048
2697,942,1050
2698,944,1052
2699,944,1054
2700,942,1052
2701,943,1050
2702,945,1046
2703,944,1048
2704,947,1051
2705,946,1050
2706,946,1048
2707,945,1045
2708,942,1043
2709,942,1045
2710,943,1050
2711,948,1052
2712,947,1051
2713,943,1047
2714,942,1040
2715,941,1039
2716,944,1043
2717,945,1043
2718,944,1043
2719,945,1043
2720,945,1041
2721,942,1040
2722,942,1037
2723,944,1040
2724,947,1040
2725,949,1041
2726,949,1037
2727,946,1039
2728,944,1039
2729,947,1042
2730,948,1041
2731,949,1041
2732,946,1038
2733,944,1038
2734,949,1040
2735,950,1041
2736,948,1039
2737,944,1037
2738,944,1035
2739,949,1036
2740,955,1038
2741,958,1039
2742,958,1040
2743,952,1036
2744,946,1034
2745,943,1035
2746,949,1037
2747,954,1039
2748,955,1041
2749,952,1037
2750,953,1036
2751,951,1039
2752,954,1039
2753,957,1042
2754,954,1039
2755,952,1036
2756,952,1033
2757,950,1034
2758,953,1037
2759,956,1039
2760,955,1038
2761,956,1035
2762,954,1033
2763,951,1033
2764,948,1037
2765,950,1038
2766,954,1037
2767,959,1032
2768,958,1034
2769,954,1035
2770,952,1038
2771,954,1038
2772,954,1037
2773,959,1034
2774,962,1035
2775,957,1038
2776,955,1037
2777,954,1032
2778,955,1034
2779,953,1032
2780,954,1032
2781,952,1031
2782,953,1035
2783,955,1035
2784,956,1036
2785,957,1035
2786,955,1037
2787,951,1038
2788,946,1036
2789,948,1036
2790,956,1040
2791,968,1038
2792,972,1036
2793,968,1037
2794,968,1039
2795,969,1041
2796,972,1045
2797,972,1044
2798,970,1045
2799,967,1048
2800,975,1051
2801,978,1055
2802,983,1053
2803,985,1051
2804,987,1048
2805,988,1046
2806,996,1049
2807,998,1051
2808,1003,1046
2809,998,1040
2810,994,1035
2811,995,1033
2812,1000,1037
2813,1003,1041
2814,1010,1039
2815,1008,1038
2816,1007,1037
2817,997,1036
2818,982,1036
2819,974,1034
2820,972,1034
2821,967,1032
2822,961,1030
2823,952,1026
2824,949,1026
2825,947,1029
2826,951,1029
2827,950,1026
2828,950,1024
2829,945,1024
2830,947,1027
2831,950,1029
2832,949,1030
2833,946,1026
2834,945,1020
2835,944,1022
2836,946,1021
2837,947,1025
2838,947,1023
2839,948,1023
2840,944,1020
2841,944,1021
2842,947,1024
2843,949,1024
2844,952,1024
2845,949,1025
2846,946,1023
2847,946,1024
2848,943,1025
2849,944,1024
2850,946,1025
2851,951,1023
2852,947,1022
2853,945,1021
2854,944,1023
2855,945,1025
2856,946,1024
2857,947,1020
2858,947,1018
2859,944,1020
2860,947,1024
2861,949,1026
2862,947,1022
2863,943,1009
2864,934,991
2865,936,973
2866,941,952
2867,945,928
2868,949,891
2869,948,842
2870,945,784
2871,931,732
2872,916,708
2873,904,709
2874,900,720
2875,896,726
2876,893,733
2877,894,739
2878,894,754
2879,888,767
2880,877,772
2881,868,774
2882,860,774
2883,853,781
2884,853,796
2885,846,811
2886,837,821
2887,827,827
2888,821,835
2889,820,846
2890,821,858
2891,827,875
2892,838,895
2893,847,916
2894,848,930
2895,857,946
2896,876,964
2897,893,984
2898,907,996
2899,915,1010
2900,919,1019
2901,923,1030
2902,934,1044
2903,946,1054
2904,957,1061
2905,961,1064
2906,962,1067
2907,960,1067
2908,962,1074
2909,964,1077
2910,967,1079
2911,967,1079
2912,967,1082
2913,963,1083
2914,966,1086
2915,968,1085
2916,968,1084
2917,969,1086
2918,968,1084
2919,964,1086
2920,966,1090
2921,969,1094
2922,972,1094
2923,971,1092
2924,970,1088
2925,968,1089
2926,967,1094
2927,967,1095
2928,969,1096
2929,974,1093
2930,974,1096
2931,972,1094
2932,968,1097
2933,971,1099
2934,974,1098
2935,972,1100
2936,973,1096
2937,973,1095
2938,972,1097
2939,975,1099
2940,975,1099
2941,976,1098
2942,978,1098
2943,977,1098
2944,979,1098
2945,979,1100
2946,984,1099
2947,982,1100
2948,979,1097
2949,977,1100
2950,978,1105
2951,979,1106
2952,984,1105
2953,988,1103
2954,987,1100
2955,987,1102
2956,986,1102
2957,984,1104
2958,987,1102
2959,990,1099
2960,992,1100
2961,990,1098
2962,990,1102
2963,993,1103
2964,993,1099
2965,994,1097
2966,994,1096
2967,991,1097
2968,992,1101
2969,994,1100
2970,994,1098
2971,994,1095
2972,994,1092
2973,995,1091
2974,997,1096
2975,995,1095
2976,994,1091
2977,995,1088
2978,994,1086
2979,991,1081
2980,994,1082
2981,998,1081
2982,1000,1079
2983,998,1078
2984,997,1075
2985,995,1073
2986,995,1072
2987,994,1072
2988,993,1070
2989,991,1068
2990,989,1064
2991,984,1059
2992,981,1056
2993,980,1059
2994,983,1056
2995,982,1055
2996,980,1050
2997,978,1047
2998,977,1045
2999,975,1044
3000,977,1044
3001,974,1043
3002,970,1039
3003,970,1038
3004,968,1042
3005,971,1042
3006,973,1039
3007,973,1036
3008,967,1032
3009,966,1036
3010,968,1038
3011,969,1038
3012,970,1036
3013,969,1038
3014,971,1036
3015,969,1037
3016,967,1039
3017,969,1039
3018,971,1038
3019,968,1039
3020,966,1037
3021,965,1036
3022,967,1039
3023,971,1040
3024,970,1040
3025,968,1038
3026,965,1038
3027,963,1039
3028,964,1040
3029,968,1047
3030,967,1049
3031,967,1047
3032,963,1043
3033,961,1043
3034,961,1045
3035,965,1049
3036,965,1048
3037,965,1047
3038,964,1044
3039,962,1046
3040,960,1050
3041,963,1050
3042,964,1053
3043,963,1051
3044,963,1047
3045,958,1045
3046,957,1047
3047,957,1050
3048,961,1053
3049,961,1052
3050,958,1050
3051,953,1051
3052,957,1052
3053,959,1053
3054,959,1051
3055,959,1049
3056,958,1051
3057,953,1048
3058,952,1050
3059,954,1049
3060,954,1053
3061,955,1050
3062,953,1047
3063,948,1046
3064,949,1047
3065,950,1048
3066,951,1045
3067,950,1045
3068,947,1044
3069,943,1044
3070,944,1046
3071,945,1047
3072,950,1046
3073,950,1046
3074,946,1044
3075,942,1042
3076,944,1046
3077,943,1046
3078,947,1044
3079,951,1044
3080,949,1040
3081,945,1037
3082,943,1041
3083,944,1044
3084,948,1046
3085,951,1045
3086,951,1044
3087,947,1042
3088,945,1039
3089,944,1041
3090,947,1042
3091,949,1042
3092,946,1040
3093,948,1038
3094,953,1041
3095,956,1042
3096,952,1040
3097,948,1037
3098,946,1034
3099,948,1036
3100,951,1039
3101,951,1041
3102,953,1039
3103,953,1037
3104,950,1034
3105,949,1033
3106,947,1035
3107,949,1040
3108,949,1038
3109,949,1037
3110,955,1038
3111,955,1037
3112,954,1038
3113,954,1039
3114,954,1035
3115,953,1033
3116,955,1034
3117,953,1035
3118,954,1034
3119,953,1036
3120,953,1033
3121,950,1035
3122,952,1034
3123,951,1033
3124,952,1032
3125,954,1038
3126,955,1036
3127,952,1037
3128,953,1034
3129,949,1033
3130,952,1039
3131,953,1042
3132,952,1037
3133,951,1032
3134,952,1031
3135,951,1033
3136,952,1034
3137,954,1036
3138,956,1034
3139,957,1035
3140,957,1034
3141,954,1032
3142,958,1035
3143,962,1040
3144,960,1043
3145,962,1043
3146,963,1043
3147,960,1043
3148,962,1047
3149,967,1053
3150,969,1053
3151,971,1055
3152,980,1054
3153,986,1051
3154,990,1049
3155,987,1045
3156,989,1044
3157,993,1043
3158,994,1041
3159,993,1039
3160,993,1038
3161,995,1040
3162,1000,1038
3163,1004,1040
3164,1002,1039
3165,996,1040
3166,994,1042
3167,987,1040
3168,982,1039
3169,975,1037
3170,967,1034
3171,959,1033
3172,950,1034
3173,945,1030
3174,944,1027
3175,940,1027
3176,942,1021
3177,941,1024
3178,939,1027
3179,943,1029
3180,943,1028
3181,943,1027
3182,941,1027
3183,939,1025
3184,936,1026
3185,936,1027
3186,942,1025
3187,945,1027
3188,943,1022
3189,938,1021
3190,938,1024
3191,939,1026
3192,943,1024
3193,940,1023
3194,942,1022
3195,943,1023
3196,944,1027
3197,944,1026
3198,944,1022
3199,940,1018
3200,938,1018
3201,936,1018
3202,938,1020
3203,940,1022
3204,939,1023
3205,942,1025
3206,944,1023
3207,940,1022
3208,941,1019
3209,941,1024
3210,942,1023
3211,939,1012
3212,935,1002
3213,929,987
3214,932,969
3215,940,948
3216,948,923
3217,946,889
3218,942,840
3219,943,781
3220,937,732
3221,923,709
3222,903,704
3223,894,712
3224,891,722
3225,891,730
3226,888,741
3227,886,754
3228,885,764
3229,876,769
3230,865,774
3231,855,777
3232,847,787
3233,844,800
3234,841,811
3235,831,823
3236,820,832
3237,810,841
3238,811,853
3239,815,866
3240,823,883
3241,833,902
3242,839,919
3243,841,935
3244,849,951
3245,866,970
3246,885,986
3247,898,999
3248,904,1008
3249,909,1020
3250,921,1035
3251,936,1050
3252,945,1059
3253,948,1061
3254,947,1063
3255,947,1065
3256,949,1070
3257,952,1073
3258,956,1075
3259,958,1079
3260,956,1075
3261,954,1074
3262,954,1077
3263,958,1084
3264,959,1084
3265,958,1084
3266,957,1081
3267,957,1082
3268,959,1087
3269,963,1090
3270,965,1089
3271,965,1087
3272,963,1088
3273,960,1089
3274,960,1092
3275,958,1089
3276,962,1085
3277,963,1088
3278,965,1088
3279,962,1091
3280,964,1092
3281,964,1095
3282,966,1094
3283,968,1093
3284,967,1093
3285,966,1094
3286,968,1095
3287,971,1093
3288,974,1096
3289,972,1096
3290,970,1096
3291,968,1094
3292,972,1095
3293,973,1099
3294,970,1095
3295,971,1093
3296,973,1093
3297,975,1094
3298,977,1096
3299,976,1096
3300,978,1095
3301,982,1096
3302,982,1097
3303,980,1096
3304,979,1099
3305,981,1100
3306,983,1096
3307,983,1095
3308,983,1095
3309,982,1096
3310,984,1097
3311,982,1095
3312,986,1092
3313,986,1091
3314,986,1090
3315,984,1090
3316,982,1088
3317,981,1089
3318,989,1089
3319,993,1087
3320,991,1085
3321,987,1081
3322,988,1084
3323,991,1087
3324,994,1084
3325,994,1082
3326,991,1078
3327,988,1075
3328,986,1074
3329,988,1075
3330,987,1073
3331,982,1066
3332,980,1062
3333,977,1059
3334,977,1061
3335,978,1061
3336,979,1057
3337,976,1055
3338,973,1050
3339,971,1048
3340,969,1048
3341,971,1047
3342,970,1044
3343,967,1044
3344,965,1041
3345,962,1041
3346,963,1041
3347,964,1042
3348,963,1041
3349,963,1038
3350,959,1036
3351,951,1032
3352,955,1033
3353,958,1037
3354,961,1038
3355,957,1037
3356,960,1032
3357,954,1033
3358,957,1037
3359,956,1039
3360,958,1038
3361,956,1036
3362,954,1033
3363,953,1034
3364,949,1037
3365,952,1038
3366,957,1040
3367,957,1037
3368,956,1033
3369,952,1033
3370,953,1037
3371,952,1041
3372,955,1041
3373,954,1041
3374,954,1038
3375,951,1040
3376,953,1041
3377,952,1043
3378,955,1041
3379,953,1042
3380,953,1042
3381,951,1042
3382,949,1044
3383,951,1044
3384,954,1044
3385,952,1044
3386,955,1043
3387,950,1044
3388,951,1047
3389,954,1050
3390,956,1048
3391,954,1049
3392,950,1047
3393,947,1049
3394,946,1048
3395,949,1049
3396,951,1049
3397,949,1045
3398,945,1041
3399,943,1042
3400,942,1046
3401,943,1049
3402,944,1048
3403,944,1047
3404,943,1045
3405,939,1043
3406,942,1047
3407,943,1048
3408,947,1047
3409,945,1047
3410,943,1045
3411,942,1044
3412,940,1044
3413,942,1046
3414,942,1045
3415,943,1041
3416,944,1040
3417,942,1040
3418,940,1041
3419,941,1045
3420,941,1040
3421,938,1038
3422,939,1038
3423,938,1038
3424,937,1038
3425,939,1043
3426,941,1039
3427,942,1041
3428,945,1041
3429,942,1038
3430,938,1036
3431,934,1034
3432,940,1035
3433,939,1035
3434,940,1033
3435,937,1032
3436,940,1034
3437,939,1035
3438,940,1035
3439,938,1034
3440,939,1034
3441,939,1034
3442,944,1039
3443,945,1039
3444,943,1037
3445,942,1031
3446,944,1034
3447,945,1035
3448,948,1036
3449,950,1039
3450,949,1038
3451,947,1038
3452,943,1036
3453,942,1033
3454,942,1035
3455,943,1036
3456,946,1031
3457,945,1031
3458,942,1032
3459,940,1031
3460,946,1034
3461,947,1034
3462,948,1033
3463,949,1033
3464,948,1031
3465,945,1031
3466,946,1036
3467,947,1039
3468,946,1038
3469,944,1035
3470,941,1031
3471,944,1030
3472,942,1032
3473,945,1033
3474,944,1032
3475,945,1032
3476,943,1030
3477,945,1030
3478,950,1032
3479,951,1035
3480,952,1034
3481,950,1032
3482,947,1029
3483,945,1029
3484,946,1032
3485,949,1036
3486,951,1035
3487,949,1032
3488,945,1029
3489,946,1028
3490,947,1032
3491,949,1033
3492,951,1034
3493,952,1031
3494,950,1032
3495,948,1035
3496,952,1036
3497,960,1040
3498,966,1043
3499,967,1041
3500,962,1043
3501,962,1045
3502,967,1049
3503,972,1053
3504,976,1055
3505,980,1054
3506,982,1049
3507,983,1047
3508,982,1044
3509,987,1045
3510,994,1043
3511,997,1042
3512,996,1039
3513,992,1037
3514,990,1037
3515,995,1037
3516,998,1038
3517,999,1036
3518,1000,1037
3519,998,1036
3520,996,1037
3521,988,1038
3522,978,1036
3523,970,1035
3524,962,1032
3525,953,1034
3526,942,1031
3527,939,1032
3528,940,1027
3529,942,1029
3530,942,1025
3531,942,1025
3532,943,1030
3533,945,1030
3534,944,1029
3535,944,1022
3536,940,1022
3537,941,1023
3538,941,1027
3539,940,1026
3540,938,1023
3541,936,1021
3542,938,1020
3543,940,1022
3544,941,1025
3545,944,1027
3546,943,1027
3547,942,1027
3548,941,1024
3549,941,1022
3550,942,1023
3551,944,1025
3552,945,1026
3553,943,1023
3554,942,1023
3555,940,1022
3556,941,1023
3557,942,1025
3558,942,1022
3559,944,1022
3560,943,1019
3561,939,1022
3562,943,1028
3563,946,1030
3564,947,1027
3565,946,1021
3566,941,1008
3567,937,991
3568,938,973
3569,947,956
3570,952,929
3571,951,887
3572,949,838
3573,947,786
3574,940,746
3575,923,730
3576,910,726
3577,900,733
3578,900,740
3579,897,748
3580,897,757
3581,895,770
3582,888,776
3583,879,780
3584,871,786
3585,867,791
3586,860,800
3587,859,814
3588,852,824
3589,845,833
3590,838,841
3591,832,851
3592,828,860
3593,827,870
3594,827,879
3595,836,898
3596,845,918
3597,848,939
3598,854,953
3599,868,968
3600,886,980
3601,899,994
3602,904,1004
3603,909,1018
3604,916,1029
3605,927,1043
3606,937,1050
3607,950,1060
3608,957,1063
3609,957,1064
3610,960,1070
3611,963,1075
3612,963,1074
3613,963,1077
3614,960,1076
3615,958,1079
3616,956,1081
3617,961,1082
3618,966,1084
3619,969,1086
3620,968,1084
3621,965,1088
3622,965,1088
3623,967,1087
3624,970,1089
3625,971,1089
3626,972,1090
3627,969,1092
3628,971,1092
3629,970,1095
3630,969,1091
3631,969,1092
3632,970,1095
3633,970,1093
3634,972,1097
3635,971,1099
3636,973,1098
3637,974,1099
3638,971,1098
3639,970,1094
3640,972,1101
3641,975,1102
3642,973,1100
3643,972,1100
3644,974,1099
3645,974,1099
3646,979,1102
3647,981,1105
3648,981,1106
3649,980,1106
3650,979,1103
3651,980,1105
3652,985,1107
3653,982,1106
3654,982,1102
3655,982,1100
3656,983,1099
3657,982,1104
3658,983,1102
3659,987,1107
3660,988,1104
3661,990,1102
3662,989,1099
3663,988,1100
3664,989,1102
3665,992,1103
3666,993,1102
3667,993,1102
3668,992,1098
3669,993,1099
3670,993,1100
3671,994,1102
3672,995,1098
3673,995,1095
3674,993,1093
3675,991,1088
3676,990,1091
3677,996,1090
3678,998,1088
3679,997,1086
3680,994,1083
3681,991,1081
3682,993,1081
3683,992,1079
3684,990,1075
3685,989,1072
3686,987,1067
3687,984,1066
3688,986,1066
3689,984,1065
3690,984,1063
3691,983,1059
3692,982,1056
3693,979,1051
3694,979,1052
3695,979,1051
3696,981,1051
3697,978,1047
3698,977,1043
3699,974,1044
3700,974,1042
3701,975,1046
3702,975,1041
3703,973,1043
3704,971,1041
3705,968,1040
3706,970,1041
3707,971,1041
3708,974,1042
3709,974,1039
3710,971,1037
3711,968,1037
3712,969,1040
3713,971,1044
3714,972,1044
3715,969,1042
3716,967,1038
3717,966,1039
3718,968,1043
3719,972,1044
3720,973,1044
3721,971,1043
3722,971,1041
3723,970,1044
3724,968,1047
3725,970,1048
3726,973,1049
3727,971,1048
3728,968,1048
3729,967,1047
3730,966,1048
3731,967,1050
3732,969,1050
3733,969,1046
3734,969,1047
3735,968,1047
3736,970,1051
3737,970,1052
3738,970,1052
3739,969,1048
3740,964,1052
3741,966,1054
3742,965,1057
3743,968,1060
3744,968,1057
3745,964,1054
3746,960,1051
3747,960,1051
3748,962,1053
3749,965,1054
3750,964,1050
3751,962,1051
3752,963,1049
3753,960,1049
3754,960,1053
3755,958,1053
3756,959,1051
3757,959,1048
3758,960,1050
3759,955,1051
3760,959,1051
3761,961,1051
3762,962,1051
3763,961,1049
3764,956,1047
3765,957,1046
3766,957,1047
3767,959,1049
3768,959,1048
3769,956,1044
3770,956,1044
3771,954,1041
3772,954,1042
3773,958,1047
3774,960,1044
3775,963,1043
3776,958,1041
3777,956,1041
3778,960,1044
3779,963,1047
3780,964,1048
3781,962,1044
3782,959,1046
3783,959,1040
3784,958,1040
3785,962,1042
3786,965,1042
3787,963,1042
3788,960,1040
3789,955,1039
3790,962,1040
3791,961,1043
3792,961,1041
3793,962,1042
3794,963,1040
3795,961,1039
3796,962,1044
3797,964,1045
3798,965,1043
3799,963,1042
3800,964,1040
3801,960,1040
3802,961,1043
3803,962,1043
3804,965,1043
3805,964,1040
3806,960,1038
3807,960,1035
3808,959,1040
3809,963,1043
3810,966,1042
3811,968,1039
3812,965,1036
3813,962,1037
3814,963,1037
3815,967,1041
3816,968,1040
3817,968,1040
3818,965,1039
3819,962,1036
3820,967,1039
3821,967,1042
3822,971,1040
3823,969,1039
3824,968,1037
3825,967,1037
3826,967,1038
3827,970,1042
3828,972,1041
3829,971,1039
3830,972,1040
3831,973,1040
3832,973,1044
3833,981,1048
3834,982,1050
3835,981,1051
3836,980,1050
3837,980,1051
3838,983,1058
3839,986,1059
3840,990,1059
3841,996,1058
3842,998,1057
3843,1000,1053
3844,1004,1050
3845,1008,1050
3846,1011,1048
3847,1012,1046
3848,1012,1044
3849,1010,1042
3850,1012,1044
3851,1017,1047
3852,1022,1046
3853,1017,1045
3854,1017,1045
3855,1011,1044
3856,1002,1042
3857,996,1044
3858,988,1042
3859,984,1041
3860,973,1040
3861,964,1037
3862,961,1034
3863,961,1035
3864,964,1033
3865,963,1031
3866,961,1029
3867,962,1031
3868,963,1032
3869,966,1036
3870,964,1034
3871,961,1033
3872,960,1028
3873,960,1029
3874,960,1032
3875,963,1035
3876,961,1033
3877,960,1031
3878,960,1031
3879,961,1028
3880,963,1032
3881,966,1031
3882,968,1032
3883,964,1029
3884,960,1027
3885,962,1030
3886,965,1028
3887,965,1032
3888,966,1030
3889,964,1027
3890,962,1025
3891,960,1027
3892,963,1028
3893,965,1031
3894,965,1029
3895,962,1029
3896,962,1030
3897,960,1033
3898,965,1033
3899,967,1029
3900,965,1012
3901,960,992
3902,958,971
3903,961,939
3904,968,908
3905,970,869
3906,973,810
3907,970,751
3908,954,713
3909,938,705
3910,925,715
3911,922,730
3912,921,741
3913,921,749
3914,918,757
3915,908,768
3916,900,779
3917,893,786
3918,889,791
3919,880,794
3920,871,800
3921,858,815
3922,854,832
3923,848,846
3924,849,855
3925,847,866
3926,851,882
3927,856,904
3928,867,927
3929,872,945
3930,883,962
3931,898,978
3932,917,992
3933,924,1006
3934,935,1026
3935,944,1039
3936,954,1050
3937,964,1061
3938,973,1067
3939,973,1072
3940,979,1078
3941,981,1085
3942,981,1083
3943,983,1083
3944,980,1085
3945,978,1085
3946,982,1090
3947,984,1094
3948,988,1096
3949,988,1095
3950,984,1097
3951,983,1097
3952,985,1099
3953,986,1100
3954,989,1098
3955,989,1102
3956,990,1104
3957,988,1105
3958,990,1108
3959,992,1106
3960,990,1104
3961,991,1105
3962,991,1103
3963,988,1105
3964,988,1108
3965,987,1109
3966,992,1110
3967,992,1109
3968,993,1108
3969,990,1112
3970,991,1114
3971,992,1116
3972,996,1115
3973,996,1115
3974,996,1114
3975,995,1115
3976,999,1117
3977,1002,1120
3978,1001,1116
3979,1003,1114
3980,999,1114
3981,999,1114
3982,1001,1116
3983,1005,1119
3984,1008,1120
3985,1007,1117
3986,1005,1114
3987,1007,1116
3988,1009,1118
3989,1013,1119
3990,1014,1118
3991,1014,1116
3992,1010,1113
3993,1009,1115
3994,1015,1114
3995,1016,1115
3996,1015,1112
3997,1014,1110
3998,1015,1107
3999,1017,1106
4000,1018,1107
4001,1022,1107
4002,1022,1106
4003,1021,1104
4004,1018,1098
4005,1013,1096
4006,1013,1096
4007,1016,1096
4008,1017,1093
4009,1014,1090
4010,1012,1085
4011,1007,1084
4012,1007,1080
4013,1011,1076
4014,1009,1075
4015,1008,1073
4016,1005,1070
4017,1001,1068
4018,998,1066
4019,998,1065
4020,998,1062
4021,994,1057
4022,993,1055
4023,985,1056
4024,990,1057
4025,991,1057
4026,993,1058
4027,992,1051
4028,989,1047
4029,988,1048
4030,988,1050
4031,987,1050
4032,988,1049
4033,986,1048
4034,986,1048
4035,990,1049
4036,986,1051
4037,986,1052
4038,986,1052
4039,986,1050
4040,983,1049
4041,983,1051
4042,983,1051
4043,985,1056
4044,987,1056
4045,988,1057
4046,986,1053
4047,982,1054
4048,981,1053
4049,984,1056
4050,985,1057
4051,982,1058
4052,982,1056
4053,976,1055
4054,980,1056
4055,982,1059
4056,981,1060
4057,982,1058
4058,979,1059
4059,974,1057
4060,978,1061
4061,979,1066
4062,980,1067
4063,979,1066
4064,978,1061
4065,974,1059
4066,975,1059
4067,976,1063
4068,976,1061
4069,975,1063
4070,974,1060
4071,974,1059
4072,977,1059
4073,980,1061
4074,975,1063
4075,970,1061
4076,970,1062
4077,971,1061
4078,973,1059
4079,975,1063
4080,974,1062
4081,970,1061
4082,963,1058
4083,953,1057
4084,946,1055
4085,941,1049
4086,939,1040
4087,934,1032
4088,932,1023
4089,933,1017
4090,939,1011
4091,946,1008
4092,953,1007
4093,966,1001
4094,979,998
4095,987,1000
4096,999,1004
4097,1011,1011
4098,1022,1016
4099,1031,1022
4100,1037,1031
4101,1050,1040
4102,1068,1053
4103,1075,1057
4104,1062,1063
4105,1050,1068
4106,1053,1077
4107,1066,1092
4108,1073,1114
4109,1065,1132
4110,1048,1148
4111,1031,1160
4112,1018,1166
4113,995,1173
4114,962,1187
4115,928,1193
4116,908,1194
4117,906,1187
4118,919,1173
4119,940,1157
4120,959,1149
4121,967,1135
4122,966,1121
4123,965,1103
4124,961,1081
4125,957,1060
4126,955,1055
4127,959,1054
4128,960,1053
4129,961,1048
4130,958,1044
4131,955,1043
4132,959,1043
4133,958,1047
4134,958,1042
4135,955,1040
4136,957,1036
4137,955,1033
4138,956,1034
4139,958,1038
4140,959,1037
4141,959,1033
4142,955,1032
4143,952,1029
4144,954,1029
4145,956,1031
4146,956,1030
4147,955,1026
4148,951,1023
4149,951,1022
4150,948,1024
4151,951,1024
4152,953,1022
4153,952,1021
4154,950,1020
4155,951,1020
4156,950,1020
4157,955,1020
4158,952,1017
4159,952,1015
4160,952,1013
4161,954,1016
4162,954,1018
4163,957,1015
4164,961,1016
4165,964,1018
4166,963,1016
4167,961,1014
4168,963,1016
4169,967,1018
4170,968,1018
4171,969,1016
4172,969,1012
4173,976,1015
4174,981,1015
4175,987,1011
4176,986,1007
4177,987,1002
4178,988,998
4179,990,995
4180,990,991
4181,989,990
4182,991,985
4183,992,980
4184,993,976
4185,997,978
4186,1000,977
4187,1000,979
4188,992,974
4189,982,970
4190,972,964
4191,964,962
4192,962,965
4193,955,963
4194,949,961
4195,940,956
4196,935,954
4197,933,953
4198,939,955
4199,940,958
4200,943,955
4201,941,958
4202,940,954
4203,940,958
4204,939,958
4205,942,957
4206,945,963
4207,945,964
4208,944,963
4209,943,970
4210,945,972
4211,947,976
4212,948,979
4213,948,981
4214,949,983
4215,951,991
4216,951,997
4217,956,1003
4218,957,1005
4219,957,1008
4220,955,1010
4221,954,1014
4222,955,1018
4223,957,1021
4224,961,1025
4225,959,1024
4226,960,1026
4227,961,1032
4228,960,1036
4229,959,1038
4230,959,1042
4231,962,1044
4232,963,1042
4233,960,1044
4234,961,1046
4235,961,1048
4236,961,1050
4237,961,1051
4238,961,1051
4239,958,1053
4240,959,1053
4241,959,1050
4242,961,1052
4243,960,1047
4244,957,1049
4245,957,1049
4246,960,1055
4247,963,1054
4248,964,1057
4249,965,1052
4250,962,1053
4251,960,1056
4252,962,1055
4253,963,1058
4254,962,1059
4255,962,1058
4256,961,1056
4257,961,1054
4258,963,1057
4259,967,1056
4260,969,1058
4261,968,1057
4262,965,1054
4263,965,1054
4264,964,1057
4265,968,1059
4266,969,1060
4267,968,1059
4268,965,1053
4269,966,1057
4270,967,1058
4271,968,1060
4272,967,1060
4273,971,1060
4274,974,1059
4275,970,1057
4276,968,1058
4277,971,1059
4278,975,1060
4279,971,1057
4280,970,1052
4281,971,1053
4282,973,1053
4283,977,1056
4284,979,1057
4285,975,1057
4286,973,1056
4287,972,1055
4288,975,1054
4289,976,1059
4290,979,1058
4291,976,1058
4292,978,1056
4293,978,1057
4294,979,1061
4295,978,1060
4296,974,1057
4297,971,1059
4298,972,1055
4299,973,1057
4300,977,1059
4301,981,1057
4302,982,1057
4303,979,1056
4304,976,1055
4305,972,1055
4306,976,1056
4307,976,1056
4308,977,1058
4309,978,1055
4310,980,1054
4311,980,1054
4312,978,1053
4313,977,1055
4314,978,1058
4315,978,1058
4316,976,1056
4317,974,1056
4318,975,1056
4319,978,1059
4320,978,1057
4321,978,1055
4322,977,1050
4323,973,1052
4324,979,1053
4325,978,1054
4326,982,1055
4327,983,1054
4328,982,1052
4329,980,1052
4330,980,1055
4331,985,1054
4332,986,1057
4333,984,1055
4334,984,1055
4335,983,1055
4336,983,1054
4337,983,1055
4338,986,1053
4339,985,1051
4340,986,1052
4341,984,1052
4342,981,1055
4343,982,1054
4344,985,1056
4345,985,1056
4346,984,1054
4347,983,1053
4348,984,1057
4349,986,1058
4350,987,1056
4351,986,1054
4352,987,1054
4353,985,1056
4354,984,1059
4355,983,1060
4356,985,1059
4357,986,1059
4358,988,1055
4359,983,1057
4360,984,1060
4361,984,1061
4362,985,1058
4363,984,1054
4364,983,1053
4365,980,1054
4366,981,1055
4367,985,1058
4368,988,1058
4369,993,1057
4370,993,1057
4371,989,1056
4372,987,1056
4373,988,1057
4374,991,1059
4375,988,1057
4376,984,1056
4377,984,1054
4378,985,1058
4379,986,1059
4380,986,1058
4381,987,1057
4382,988,1055
4383,986,1057
4384,986,1058
4385,985,1058
4386,985,1057
4387,985,1056
4388,985,1054
4389,985,1058
4390,989,1057
4391,990,1062
4392,989,1059
4393,986,1053
4394,986,1055
4395,985,1057
4396,986,1060
4397,986,1060
4398,988,1059
4399,987,1058
4400,985,1057
4401,985,1056
4402,987,1059
4403,988,1060
4404,988,1060
4405,990,1057
4406,987,1056
4407,987,1055
4408,989,1057
4409,990,1060
4410,992,1060
4411,987,1060
4412,988,1055
4413,982,1058
4414,983,1057
4415,988,1060
4416,987,1060
4417,988,1059
4418,986,1058
4419,987,1059
4420,988,1059
4421,990,1060
4422,989,1060
4423,989,1058
4424,988,1054
4425,988,1057
4426,989,1057
4427,988,1054
4428,983,1055
4429,988,1052
4430,984,1051
4431,985,1052
4432,987,1056
4433,988,1056
4434,990,1054
4435,990,1054
4436,988,1051
4437,988,1054
4438,991,1056
4439,992,1057
4440,989,1056
4441,986,1053
4442,986,1050
4443,986,1051
4444,986,1053
4445,989,1053
4446,990,1051
4447,989,1052
4448,987,1051
4449,984,1053
4450,986,1053
4451,990,1050
4452,990,1053
4453,992,1051
4454,990,1051
4455,985,1051
4456,987,1053
4457,989,1055
4458,989,1058
4459,990,1052
4460,990,1054
4461,985,1053
4462,983,1054
4463,986,1052
4464,989,1049
4465,986,1050
4466,986,1047
4467,986,1049
4468,987,1050
4469,987,1051
4470,992,1050
4471,989,1049
4472,987,1050
4473,987,1051
4474,989,1053
4475,990,1054
4476,992,1053
4477,991,1053
4478,990,1047
4479,988,1048
4480,988,1055
4481,987,1052
4482,991,1052
4483,989,1049
4484,986,1045
4485,988,1048
4486,987,1048
4487,990,1051
4488,990,1051
4489,990,1049
4490,990,1049
4491,989,1049
4492,992,1054
4493,991,1053
4494,990,1049
4495,987,1045
4496,985,1045
4497,987,1047
4498,987,1052
4499,989,1051
4500,989,1047
4501,991,1048
4502,987,1046
4503,989,1046
4504,991,1049
4505,990,1050
4506,993,1050
4507,989,1050
4508,986,1044
4509,985,1045
4510,990,1046
4511,996,1052
4512,1003,1054
4513,1001,1055
4514,1000,1052
4515,1002,1055
4516,1004,1060
4517,1007,1065
4518,1009,1067
4519,1011,1066
4520,1014,1065
4521,1016,1064
4522,1020,1063
4523,1026,1062
4524,1028,1061
4525,1029,1055
4526,1029,1047
4527,1029,1047
4528,1031,1046
4529,1033,1050
4530,1037,1050
4531,1037,1048
4532,1038,1049
4533,1037,1052
4534,1039,1055
4535,1032,1053
4536,1023,1053
4537,1013,1050
4538,1001,1047
4539,995,1047
4540,988,1050
4541,983,1045
4542,981,1042
4543,979,1039
4544,978,1037
4545,980,1035
4546,981,1037
4547,983,1037
4548,983,1035
4549,979,1033
4550,979,1033
4551,976,1032
4552,978,1032
4553,980,1036
4554,983,1036
4555,981,1038
4556,977,1036
4557,975,1034
4558,976,1031
4559,981,1031
4560,980,1029
4561,978,1028
4562,975,1028
4563,976,1030
4564,978,1031
4565,982,1032
4566,981,1031
4567,980,1030
4568,979,1025
4569,977,1027
4570,979,1030
4571,979,1034
4572,983,1036
4573,982,1033
4574,981,1027
4575,977,1019
4576,976,1007
4577,979,992
4578,984,970
4579,988,946
4580,989,909
4581,986,863
4582,989,808
4583,986,761
4584,971,731
4585,953,727
4586,942,731
4587,940,744
4588,940,754
4589,938,765
4590,935,775
4591,928,781
4592,916,784
4593,910,788
4594,906,795
4595,898,806
4596,892,816
4597,887,823
4598,882,831
4599,875,839
4600,873,853
4601,871,861
4602,868,872
4603,867,881
4604,872,891
4605,876,911
4606,879,931
4607,879,947
4608,887,959
4609,905,974
4610,925,985
4611,938,1001
4612,947,1014
4613,952,1029
4614,954,1038
4615,963,1046
4616,971,1057
4617,981,1067
4618,986,1075
4619,989,1081
4620,993,1084
4621,999,1085
4622,995,1086
4623,991,1088
4624,991,1091
4625,993,1094
4626,996,1094
4627,998,1093
4628,999,1093
4629,997,1097
4630,997,1098
4631,999,1103
4632,999,1101
4633,998,1104
4634,999,1102
4635,998,1105
4636,999,1105
4637,1000,1106
4638,1000,1108
4639,997,1103
4640,998,1105
4641,995,1107
4642,997,1109
4643,998,1108
4644,998,1108
4645,999,1107
4646,998,1106
4647,995,1108
4648,996,1109
4649,999,1110
4650,1001,1109
4651,999,1107
4652,995,1106
4653,996,1105
4654,998,1112
4655,998,1113
4656,998,1110
4657,999,1108
4658,999,1108
4659,1001,1111
4660,1004,1113
4661,1008,1115
4662,1010,1113
4663,1010,1107
4664,1009,1104
4665,1007,1110
4666,1005,1109
4667,1008,1112
4668,1012,1112
4669,1012,1109
4670,1010,1109
4671,1009,1108
4672,1008,1112
4673,1006,1110
4674,1007,1109
4675,1010,1105
4676,1013,1105
4677,1015,1106
4678,1014,1109
4679,1014,1109
4680,1015,1108
4681,1015,1107
4682,1016,1103
4683,1016,1105
4684,1018,1107
4685,1020,1107
4686,1020,1105
4687,1016,1103
4688,1015,1100
4689,1013,1100
4690,1016,1098
4691,1019,1101
4692,1020,1098
4693,1020,1099
4694,1016,1094
4695,1015,1095
4696,1012,1096
4697,1015,1093
4698,1016,1093
4699,1013,1088
4700,1014,1087
4701,1013,1088
4702,1015,1089
4703,1018,1086
4704,1015,1083
4705,1013,1083
4706,1012,1077
4707,1010,1077
4708,1013,1077
4709,1013,1075
4710,1013,1074
4711,1012,1067
4712,1010,1065
4713,1011,1065
4714,1010,1063
4715,1010,1065
4716,1009,1062
4717,1006,1058
4718,1005,1055
4719,1002,1057
4720,1003,1057
4721,1007,1060
4722,1006,1056
4723,1004,1052
4724,1001,1051
4725,998,1048
4726,1002,1050
4727,999,1051
4728,1004,1050
4729,1002,1047
4730,1001,1046
4731,1001,1047
4732,1001,1048
4733,1003,1049
4734,1002,1048
4735,1000,1047
4736,999,1047
4737,996,1051
4738,998,1051
4739,1001,1053
4740,1001,1051
4741,1000,1052
4742,998,1051
4743,1000,1055
4744,999,1055
4745,1001,1056
4746,999,1055
4747,998,1055
4748,995,1055
4749,994,1056
4750,995,1058
4751,997,1063
4752,1000,1062
4753,1000,1060
4754,998,1057
4755,996,1060
4756,996,1062
4757,1000,1066
4758,1002,1066
4759,998,1066
4760,996,1064
4761,995,1065
4762,998,1068
4763,1000,1071
4764,998,1069
4765,994,1069
4766,994,1068
4767,993,1068
4768,997,1068
4769,997,1071
4770,995,1071
4771,993,1067
4772,991,1065
4773,991,1069
4774,988,1071
4775,990,1071
4776,989,1072
4777,987,1069
4778,986,1067
4779,983,1069
4780,982,1069
4781,980,1072
4782,980,1069
4783,979,1068
4784,979,1067
4785,981,1066
4786,982,1068
4787,982,1069
4788,979,1067
4789,977,1066
4790,976,1059
4791,973,1061
4792,977,1063
4793,980,1064
4794,980,1063
4795,981,1060
4796,977,1059
4797,972,1058
4798,973,1060
4799,976,1059
4800,975,1057
4801,975,1057
4802,973,1058
4803,976,1058
4804,982,1058
4805,982,1058
4806,982,1056
4807,982,1056
4808,980,1052
4809,978,1055
4810,979,1058
4811,981,1056
4812,985,1056
4813,987,1054
4814,988,1053
4815,988,1054
4816,989,1055
4817,989,1056
4818,987,1056
4819,985,1052
4820,984,1049
4821,984,1051
4822,984,1053
4823,986,1056
4824,984,1056
4825,985,1053
4826,987,1056
4827,987,1055
4828,986,1057
4829,988,1053
4830,988,1054
4831,988,1050
4832,988,1051
4833,990,1052
4834,992,1053
4835,991,1054
4836,988,1057
4837,989,1052
4838,988,1049
4839,986,1050
4840,989,1052
4841,991,1052
4842,994,1052
4843,991,1049
4844,988,1046
4845,986,1048
4846,989,1051
4847,990,1054
4848,991,1053
4849,989,1047
4850,989,1047
4851,988,1045
4852,990,1048
4853,991,1048
4854,989,1049
4855,990,1047
4856,989,1045
4857,987,1044
4858,987,1048
4859,988,1047
4860,990,1047
4861,992,1047
4862,995,1047
4863,995,1046
4864,996,1049
4865,996,1050
4866,995,1048
4867,993,1046
4868,992,1045
4869,993,1047
4870,996,1051
4871,1003,1050
4872,999,1052
4873,1002,1052
4874,1003,1052
4875,1003,1056
4876,1007,1060
4877,1008,1064
4878,1010,1066
4879,1011,1064
4880,1013,1061
4881,1014,1063
4882,1017,1062
4883,1021,1060
4884,1026,1059
4885,1035,1055
4886,1035,1053
4887,1035,1052
4888,1036,1051
4889,1035,1050
4890,1033,1047
4891,1035,1046
4892,1033,1045
4893,1032,1050
4894,1031,1050
4895,1031,1051
4896,1034,1051
4897,1028,1048
4898,1019,1046
4899,1011,1047
4900,1004,1048
4901,996,1049
4902,989,1046
4903,980,1043
4904,975,1039
4905,978,1038
4906,983,1040
4907,988,1042
4908,988,1040
4909,985,1038
4910,983,1037
4911,982,1038
4912,983,1041
4913,985,1040
4914,986,1037
4915,983,1037
4916,981,1034
4917,981,1036
4918,986,1037
4919,985,1041
4920,984,1038
4921,983,1035
4922,980,1034
4923,981,1037
4924,981,1036
4925,982,1039
4926,984,1039
4927,980,1037
4928,980,1032
4929,980,1035
4930,982,1037
4931,981,1038
4932,981,1036
4933,982,1032
4934,984,1031
4935,987,1031
4936,985,1034
4937,985,1036
4938,983,1035
4939,983,1035
4940,981,1033
4941,984,1032
4942,982,1031
4943,978,1019
4944,974,1003
4945,974,983
4946,979,959
4947,985,935
4948,991,901
4949,992,857
4950,989,799
4951,982,743
4952,966,712
4953,949,707
4954,943,717
4955,938,727
4956,939,734
4957,939,742
4958,936,750
4959,929,760
4960,922,770
4961,914,774
4962,910,778
4963,900,781
4964,896,787
4965,888,799
4966,887,809
4967,882,823
4968,874,832
4969,866,840
4970,859,848
4971,857,861
4972,863,876
4973,873,895
4974,879,916
4975,882,933
4976,887,948
4977,902,965
4978,920,981
4979,935,1000
4980,945,1012
4981,950,1023
4982,957,1033
4983,964,1044
4984,975,1060
4985,985,1069
4986,989,1078
4987,993,1077
4988,996,1080
4989,995,1083
4990,998,1089
4991,999,1091
4992,1003,1093
4993,1001,1093
4994,1000,1093
4995,998,1094
4996,998,1097
4997,1000,1099
4998,999,1098
4999,1000,1097
5000,1001,1098
5001,1002,1099
5002,1005,1103
5003,1008,1104
5004,1008,1106
5005,1006,1102
5006,1004,1104
5007,1002,1106
5008,1004,1109
5009,1009,1109
5010,1008,1111
5011,1006,1108
5012,1003,1109
5013,1003,1111
5014,1005,1112
5015,1006,1112
5016,1005,1110
5017,1005,1109
5018,1006,1108
5019,1005,1109
5020,1009,1112
5021,1010,1114
5022,1008,1114
5023,1006,1110
5024,1002,1109
5025,1002,1112
5026,1007,1114
5027,1013,1114
5028,1016,1117
5029,1014,1116
5030,1013,1112
5031,1013,1116
5032,1012,1116
5033,1016,1120
5034,1017,1119
5035,1018,1117
5036,1017,1115
5037,1016,1117
5038,1019,1118
5039,1023,1118
5040,1024,1117
5041,1023,1117
5042,1020,1115
5043,1021,1118
5044,1025,1116
5045,1027,1117
5046,1026,1117
5047,1026,1116
5048,1023,1113
5049,1023,1114
5050,1026,1114
5051,1028,1116
5052,1030,1115
5053,1028,1115
5054,1028,1112
5055,1025,1114
5056,1027,1114
5057,1032,1116
5058,1034,1114
5059,1032,1110
5060,1031,1105
5061,1030,1105
5062,1029,1106
5063,1033,1106
5064,1031,1103
5065,1031,1099
5066,1025,1096
5067,1026,1096
5068,1029,1099
5069,1031,1099
5070,1031,1093
5071,1029,1090
5072,1024,1087
5073,1022,1086
5074,1023,1086
5075,1026,1086
5076,1023,1084
5077,1020,1078
5078,1018,1074
5079,1016,1073
5080,1016,1071
5081,1018,1072
5082,1015,1068
5083,1013,1063
5084,1010,1057
5085,1005,1058
5086,1007,1061
5087,1008,1059
5088,1004,1058
5089,1002,1054
5090,1002,1052
5091,1004,1054
5092,1005,1057
5093,1006,1056
5094,1004,1055
5095,1001,1053
5096,999,1051
5097,997,1051
5098,997,1057
5099,1000,1054
5100,999,1056
5101,997,1052
5102,998,1051
5103,994,1053
5104,994,1052
5105,996,1054
5106,996,1055
5107,992,1052
5108,993,1053
5109,991,1054
5110,996,1056
5111,1000,1060
5112,997,1057
5113,995,1058
5114,993,1057
5115,991,1059
5116,993,1060
5117,995,1063
5118,995,1061
5119,995,1060
5120,990,1061
5121,987,1062
5122,991,1064
5123,992,1065
5124,992,1064
5125,987,1063
5126,987,1062
5127,987,1063
5128,990,1067
5129,992,1069
5130,990,1068
5131,987,1064
5132,986,1063
5133,986,1067
5134,987,1069
5135,987,1070
5136,984,1068
5137,985,1066
5138,985,1065
5139,987,1068
5140,986,1069
5141,986,1070
5142,984,1068
5143,982,1065
5144,982,1065
5145,982,1064
5146,981,1064
5147,979,1068
5148,977,1066
5149,980,1066
5150,977,1063
5151,976,1065
5152,978,1065
5153,981,1064
5154,978,1066
5155,979,1063
5156,979,1063
5157,974,1062
5158,976,1064
5159,980,1064
5160,980,1061
5161,980,1060
5162,977,1058
5163,974,1058
5164,977,1059
5165,977,1061
5166,979,1059
5167,978,1056
5168,974,1054
5169,973,1055
5170,977,1057
5171,983,1057
5172,983,1059
5173,984,1057
5174,983,1054
5175,981,1057
5176,981,1060
5177,980,1058
5178,982,1059
5179,981,1055
5180,978,1053
5181,979,1052
5182,982,1053
5183,985,1053
5184,983,1052
5185,980,1053
5186,978,1051
5187,978,1053
5188,983,1055
5189,985,1059
5190,983,1056
5191,982,1053
5192,981,1054
5193,977,1054
5194,979,1057
5195,981,1056
5196,984,1057
5197,984,1053
5198,985,1052
5199,984,1051
5200,987,1054
5201,987,1057
5202,988,1055
5203,985,1051
5204,983,1050
5205,984,1051
5206,985,1055
5207,987,1054
5208,987,1051
5209,987,1051
5210,983,1049
5211,983,1050
5212,985,1053
5213,986,1052
5214,986,1053
5215,985,1051
5216,984,1051
5217,985,1051
5218,984,1055
5219,987,1054
5220,985,1051
5221,987,1049
5222,984,1048
5223,987,1052
5224,986,1053
5225,988,1054
5226,989,1053
5227,987,1050
5228,986,1047
5229,981,1051
5230,984,1050
5231,988,1053
5232,988,1051
5233,986,1052
5234,983,1049
5235,981,1052
5236,984,1053
5237,985,1055
5238,990,1053
5239,986,1049
5240,985,1050
5241,983,1053
5242,982,1052
5243,989,1053
5244,990,1053
5245,989,1050
5246,985,1048
5247,984,1049
5248,983,1052
5249,985,1054
5250,988,1052
5251,989,1051
5252,988,1056
5253,993,1059
5254,998,1062
5255,1001,1065
5256,1004,1068
5257,1002,1067
5258,1000,1066
5259,1000,1068
5260,1003,1069
5261,1010,1070
5262,1012,1068
5263,1014,1063
5264,1017,1058
5265,1019,1059
5266,1023,1058
5267,1026,1053
5268,1029,1055
5269,1028,1052
5270,1027,1050
5271,1023,1052
5272,1026,1055
5273,1032,1056
5274,1032,1057
5275,1031,1054
5276,1022,1050
5277,1014,1050
5278,1007,1052
5279,1002,1049
5280,994,1050
5281,987,1049
5282,974,1042
5283,966,1041
5284,966,1043
5285,972,1043
5286,977,1042
5287,976,1038
5288,974,1036
5289,972,1038
5290,974,1041
5291,975,1040
5292,973,1039
5293,971,1038
5294,968,1038
5295,970,1041
5296,976,1042
5297,979,1045
5298,974,1043
5299,970,1038
5300,968,1035
5301,971,1038
5302,974,1038
5303,974,1039
5304,977,1039
5305,973,1035
5306,969,1035
5307,970,1037
5308,973,1038
5309,972,1038
5310,973,1036
5311,971,1034
5312,969,1033
5313,971,1035
5314,973,1036
5315,976,1035
5316,975,1037
5317,974,1033
5318,971,1035
5319,970,1037
5320,968,1038
5321,970,1034
5322,967,1026
5323,960,1013
5324,957,992
5325,954,971
5326,957,945
5327,962,914
5328,962,871
5329,962,818
5330,960,759
5331,951,714
5332,934,695
5333,920,699
5334,915,712
5335,916,721
5336,919,727
5337,916,737
5338,916,749
5339,911,762
5340,899,766
5341,888,769
5342,880,772
5343,877,780
5344,875,792
5345,874,803
5346,866,815
5347,853,824
5348,847,836
5349,847,849
5350,846,862
5351,852,874
5352,859,894
5353,871,911
5354,875,930
5355,879,950
5356,891,972
5357,911,991
5358,925,1003
5359,935,1015
5360,941,1023
5361,949,1040
5362,959,1053
5363,973,1064
5364,978,1069
5365,982,1074
5366,983,1079
5367,984,1084
5368,987,1087
5369,988,1090
5370,990,1090
5371,987,1093
5372,987,1093
5373,987,1097
5374,991,1099
5375,993,1101
5376,993,1100
5377,992,1104
5378,993,1102
5379,995,1105
5380,993,1106
5381,996,1108
5382,994,1109
5383,994,1106
5384,996,1106
5385,994,1108
5386,996,1109
5387,999,1111
5388,994,1111
5389,994,1109
5390,992,1109
5391,994,1114
5392,998,1115
5393,1003,1116
5394,1003,1117
5395,999,1115
5396,1000,1114
5397,997,1115
5398,999,1115
5399,1003,1119
5400,1004,1119
5401,1004,1117
5402,1001,1115
5403,1002,1116
5404,1003,1119
5405,1007,1119
5406,1009,1120
5407,1005,1116
5408,1008,1118
5409,1011,1119
5410,1013,1120
5411,1015,1121
5412,1013,1119
5413,1012,1119
5414,1012,1117
5415,1012,1119
5416,1017,1121
5417,1017,1121
5418,1018,1122
5419,1020,1119
5420,1018,1117
5421,1020,1118
5422,1022,1118
5423,1026,1117
5424,1025,1117
5425,1024,1115
5426,1023,1115
5427,1022,1115
5428,1025,1115
5429,1028,1114
5430,1029,1113
5431,1027,1112
5432,1026,1109
5433,1025,1110
5434,1027,1111
5435,1028,1110
5436,1027,1108
5437,1026,1104
5438,1023,1099
5439,1023,1095
5440,1023,1096
5441,1022,1095
5442,1021,1089
5443,1018,1085
5444,1017,1085
5445,1014,1081
5446,1014,1081
5447,1013,1079
5448,1013,1075
5449,1010,1070
5450,1007,1067
5451,1004,1069
5452,1003,1071
5453,1004,1067
5454,1002,1067
5455,1004,1062
5456,1001,1060
5457,999,1060
5458,998,1062
5459,998,1059
5460,998,1057
5461,996,1057
5462,996,1054
5463,994,1056
5464,995,1056
5465,995,1056
5466,997,1055
5467,996,1056
5468,993,1052
5469,990,1057
5470,992,1059
5471,991,1061
5472,993,1059
5473,993,1059
5474,990,1055
5475,989,1056
5476,990,1061
5477,992,1059
5478,989,1058
5479,990,1058
5480,989,1055
5481,989,1058
5482,990,1061
5483,987,1064
5484,987,1062
5485,987,1061
5486,984,1060
5487,982,1064
5488,985,1064
5489,987,1066
5490,986,1066
5491,984,1063
5492,981,1063
5493,980,1066
5494,981,1069
5495,979,1070
5496,980,1067
5497,979,1068
5498,984,1065
5499,984,1067
5500,982,1069
5501,981,1068
5502,982,1068
5503,978,1067
5504,975,1065
5505,975,1065
5506,975,1067
5507,975,1068
5508,974,1069
5509,976,1066
5510,976,1067
5511,973,1065
5512,974,1069
5513,974,1070
5514,973,1067
5515,970,1062
5516,967,1061
5517,964,1062
5518,968,1065
5519,967,1063
5520,967,1062
5521,966,1059
5522,965,1060
5523,965,1060
5524,966,1061
5525,969,1063
5526,969,1062
5527,969,1060
5528,967,1058
5529,968,1059
5530,967,1061
5531,969,1061
5532,966,1061
5533,966,1058
5534,967,1056
5535,968,1057
5536,969,1060
5537,971,1061
5538,967,1058
5539,967,1057
5540,967,1053
5541,969,1056
5542,970,1059
5543,972,1059
5544,972,1057
5545,971,1057
5546,968,1057
5547,970,1057
5548,971,1059
5549,973,1059
5550,977,1056
5551,972,1056
5552,970,1053
5553,969,1055
5554,969,1056
5555,969,1057
5556,973,1055
5557,975,1056
5558,974,1052
5559,972,1053
5560,974,1056
5561,975,1057
5562,973,1057
5563,971,1056
5564,971,1053
5565,972,1056
5566,969,1059
5567,973,1061
5568,974,1058
5569,971,1056
5570,971,1057
5571,969,1056
5572,973,1055
5573,975,1058
5574,976,1057
5575,974,1058
5576,971,1054
5577,971,1055
5578,975,1057
5579,975,1055
5580,973,1056
5581,970,1053
5582,972,1053
5583,975,1054
5584,978,1058
5585,980,1058
5586,978,1058
5587,975,1057
5588,972,1056
5589,972,1057
5590,971,1058
5591,975,1057
5592,975,1057
5593,974,1055
5594,971,1053
5595,971,1054
5596,973,1055
5597,972,1056
5598,972,1054
5599,972,1052
5600,972,1053
5601,973,1052
5602,976,1054
5603,980,1054
5604,978,1054
5605,975,1053
5606,971,1052
5607,974,1053
5608,976,1055
5609,975,1054
5610,976,1053
5611,974,1051
5612,971,1049
5613,970,1051
5614,975,1052
5615,976,1052
5616,976,1053
5617,977,1054
5618,972,1051
5619,972,1051
5620,975,1051
5621,979,1053
5622,978,1053
5623,978,1052
5624,979,1055
5625,980,1056
5626,986,1062
5627,986,1064
5628,987,1065
5629,987,1066
5630,985,1064
5631,985,1065
5632,995,1070
5633,1002,1071
5634,1007,1070
5635,1009,1068
5636,1010,1061
5637,1009,1057
5638,1012,1059
5639,1011,1059
5640,1015,1057
5641,1018,1056
5642,1018,1055
5643,1019,1055
5644,1022,1057
5645,1026,1058
5646,1026,1058
5647,1018,1056
5648,1009,1051
5649,997,1052
5650,990,1051
5651,984,1053
5652,979,1052
5653,970,1047
5654,965,1042
5655,963,1043
5656,964,1045
5657,968,1045
5658,966,1044
5659,964,1041
5660,963,1043
5661,964,1041
5662,967,1044
5663,970,1045
5664,966,1046
5665,966,1042
5666,962,1040
5667,961,1041
5668,962,1039
5669,967,1043
5670,966,1039
5671,965,1041
5672,961,1039
5673,961,1041
5674,963,1041
5675,964,1041
5676,964,1041
5677,964,1036
5678,964,1039
5679,965,1041
5680,961,1042
5681,963,1042
5682,965,1039
5683,966,1039
5684,963,1037
5685,960,1039
5686,962,1040
5687,966,1043
5688,969,1042
5689,968,1038
5690,961,1027
5691,954,1013
5692,951,997
5693,956,973
5694,960,943
5695,961,903
5696,959,850
5697,957,791
5698,955,745
5699,941,723
5700,926,724
5701,918,732
5702,912,741
5703,911,751
5704,912,760
5705,910,775
5706,900,784
5707,886,787
5708,877,792
5709,870,799
5710,870,813
5711,867,822
5712,858,833
5713,846,845
5714,838,855
5715,834,868
5716,836,882
5717,847,902
5718,858,922
5719,864,941
5720,868,958
5721,880,975
5722,901,991
5723,919,1009
5724,925,1021
5725,929,1032
5726,940,1039
5727,946,1055
5728,960,1067
5729,970,1077
5730,977,1080
5731,977,1084
5732,979,1086
5733,980,1090
5734,983,1092
5735,984,1094
5736,985,1095
5737,984,1095
5738,986,1095
5739,983,1099
5740,985,1100
5741,986,1106
5742,985,1106
5743,984,1105
5744,982,1103
5745,984,1104
5746,988,1108
5747,992,1108
5748,990,1108
5749,988,1108
5750,985,1105
5751,988,1108
5752,991,1111
5753,990,1111
5754,988,1110
5755,990,1108
5756,989,1109
5757,992,1110
5758,989,1115
5759,993,1114
5760,989,1113
5761,992,1110
5762,994,1110
5763,994,1115
5764,995,1114
5765,997,1115
5766,996,1113
5767,994,1113
5768,992,1112
5769,995,1113
5770,998,1114
5771,1002,1113
5772,1005,1115
5773,1004,1114
5774,1003,1113
5775,1001,1113
5776,1002,1115
5777,1005,1116
5778,1005,1117
5779,1005,1115
5780,1008,1112
5781,1004,1115
5782,1005,1118
5783,1010,1118
5784,1008,1115
5785,1009,1112
5786,1008,1112
5787,1009,1115
5788,1010,1113
5789,1013,1113
5790,1018,1110
5791,1020,1108
5792,1018,1106
5793,1017,1107
5794,1021,1109
5795,1025,1109
5796,1023,1109
5797,1021,1106
5798,1020,1103
5799,1020,1104
5800,1021,1106
5801,1022,1103
5802,1020,1101
5803,1018,1099
5804,1014,1098
5805,1014,1095
5806,1017,1096
5807,1020,1094
5808,1019,1091
5809,1015,1088
5810,1013,1084
5811,1012,1083
5812,1012,1083
5813,1015,1083
5814,1016,1078
5815,1013,1076
5816,1011,1070
5817,1007,1071
5818,1007,1070
5819,1005,1073
5820,1003,1069
5821,1000,1066
5822,997,1063
5823,994,1060
5824,999,1064
5825,1005,1064
5826,1004,1058
5827,998,1055
5828,990,1056
5829,988,1056
5830,991,1060
5831,995,1059
5832,992,1057
5833,987,1052
5834,985,1050
5835,985,1053
5836,986,1056
5837,988,1056
5838,984,1056
5839,983,1055
5840,983,1054
5841,982,1054
5842,982,1055
5843,989,1057
5844,987,1059
5845,986,1055
5846,985,1054
5847,982,1055
5848,983,1061
5849,985,1058
5850,984,1057
5851,982,1055
5852,976,1056
5853,978,1058
5854,984,1062
5855,989,1061
5856,986,1061
5857,983,1060
5858,981,1060
5859,981,1064
5860,979,1067
5861,980,1066
5862,978,1063
5863,978,1061
5864,978,1061
5865,976,1062
5866,971,1064
5867,973,1064
5868,977,1062
5869,983,1062
5870,985,1063
5871,985,1062
5872,979,1066
5873,973,1063
5874,970,1063
5875,967,1064
5876,966,1062
5877,973,1062
5878,977,1064
5879,973,1069
5880,967,1065
5881,967,1065
5882,967,1061
5883,966,1061
5884,972,1064
5885,986,1062
5886,992,1062
5887,986,1060
5888,976,1059
5889,971,1062
5890,972,1061
5891,973,1060
5892,975,1060
5893,969,1058
5894,961,1056
5895,951,1057
5896,955,1062
5897,969,1061
5898,979,1061
5899,981,1058
5900,969,1059
5901,957,1060
5902,957,1059
5903,964,1060
5904,975,1056
5905,983,1055
5906,985,1056
5907,980,1058
5908,976,1060
5909,970,1057
5910,962,1059
5911,964,1056
5912,968,1056
5913,967,1056
5914,967,1061
5915,967,1059
5916,969,1059
5917,970,1058
5918,968,1059
5919,969,1059
5920,983,1063
5921,1001,1063
5922,1004,1062
5923,992,1057
5924,978,1057
5925,971,1058
5926,977,1063
5927,985,1064
5928,991,1064
5929,987,1063
5930,981,1059
5931,975,1060
5932,980,1061
5933,987,1061
5934,987,1061
5935,984,1061
5936,982,1060
5937,981,1061
5938,977,1062
5939,974,1065
5940,973,1065
5941,975,1064
5942,973,1062
5943,972,1064
5944,975,1065
5945,985,1064
5946,1000,1064
5947,1005,1063
5948,999,1065
5949,989,1064
5950,982,1067
5951,984,1068
5952,983,1072
5953,983,1072
5954,980,1072
5955,977,1074
5956,979,1077
5957,983,1082
5958,983,1083
5959,982,1071
5960,980,1059
5961,982,1056
5962,986,1059
5963,986,1062
5964,986,1064
5965,986,1066
5966,986,1064
5967,982,1064
5968,980,1067
5969,982,1066
5970,982,1069
5971,982,1068
5972,981,1066
5973,978,1068
5974,980,1072
5975,985,1072
5976,989,1072
5977,988,1069
5978,985,1069
5979,983,1072
5980,987,1074
5981,988,1074
5982,984,1074
5983,982,1071
5984,983,1070
5985,985,1069
5986,984,1072
5987,982,1075
5988,980,1073
5989,984,1069
5990,980,1068
5991,979,1072
5992,979,1072
5993,978,1075
5994,978,1072
5995,984,1070
5996,991,1073
5997,995,1070
5998,993,1075
5999,985,1077
6000,975,1075
6001,970,1075
6002,977,1075
6003,993,1077
6004,1000,1077
6005,995,1080
6006,986,1076
6007,983,1077
6008,985,1074
6009,985,1075
6010,980,1077
6011,981,1077
6012,982,1078
6013,984,1076
6014,988,1078
6015,988,1081
6016,983,1087
6017,982,1088
6018,984,1083
6019,995,1085
6020,993,1088
6021,987,1095
6022,985,1095
6023,995,1089
6024,1007,1082
6025,1015,1080
6026,1013,1083
6027,1010,1087
6028,1006,1092
6029,1004,1094
6030,1007,1097
6031,1009,1098
6032,1013,1098
6033,1017,1097
6034,1022,1094
6035,1027,1089
6036,1028,1087
6037,1027,1086
6038,1021,1083
6039,1020,1083
6040,1023,1084
6041,1031,1088
6042,1032,1089
6043,1031,1090
6044,1033,1089
6045,1027,1091
6046,1021,1098
6047,1011,1100
6048,1006,1091
6049,998,1077
6050,990,1072
6051,979,1072
6052,976,1077
6053,976,1077
6054,976,1076
6055,977,1074
6056,976,1070
6057,972,1073
6058,970,1078
6059,974,1078
6060,977,1078
6061,977,1076
6062,971,1070
6063,971,1069
6064,971,1075
6065,975,1080
6066,979,1079
6067,980,1081
6068,974,1079
6069,969,1073
6070,973,1070
6071,981,1068
6072,983,1071
6073,980,1065
6074,972,1063
6075,970,1068
6076,971,1077
6077,977,1077
6078,975,1077
6079,967,1073
6080,961,1073
6081,962,1068
6082,968,1067
6083,978,1065
6084,978,1067
6085,972,1063
6086,969,1065
6087,970,1067
6088,978,1067
6089,982,1058
6090,974,1041
6091,962,1020
6092,959,1000
6093,974,977
6094,993,940
6095,1004,881
6096,1002,809
6097,992,759
6098,976,741
6099,965,749
6100,959,763
6101,956,772
6102,953,778
6103,959,786
6104,956,800
6105,943,814
6106,931,823
6107,924,828
6108,920,836
6109,909,846
6110,897,858
6111,881,873
6112,874,888
6113,868,899
6114,863,914
6115,868,935
6116,870,963
6117,870,979
6118,878,989
6119,891,1003
6120,902,1020
6121,910,1037
6122,919,1051
6123,928,1068
6124,937,1080
6125,952,1091
6126,973,1099
6127,987,1104
6128,984,1113
6129,978,1127
6130,976,1126
6131,980,1118
6132,982,1115
6133,980,1120
6134,980,1124
6135,983,1127
6136,989,1130
6137,991,1130
6138,986,1133
6139,979,1132
6140,978,1131
6141,978,1132
6142,983,1137
6143,987,1139
6144,991,1142
6145,991,1143
6146,988,1139
6147,983,1134
6148,981,1136
6149,981,1138
6150,987,1139
6151,988,1139
6152,987,1137
6153,987,1141
6154,986,1144
6155,989,1144
6156,989,1146
6157,991,1146
6158,994,1144
6159,993,1142
6160,997,1144
6161,996,1144
6162,994,1146
6163,994,1146
6164,995,1147
6165,996,1146
6166,998,1145
6167,999,1143
6168,998,1144
6169,998,1141
6170,995,1142
6171,995,1143
6172,994,1144
6173,999,1146
6174,1003,1146
6175,1000,1141
6176,996,1143
6177,997,1143
6178,1010,1145
6179,1021,1143
6180,1016,1143
6181,1008,1139
6182,1006,1139
6183,1004,1139
6184,1008,1142
6185,1014,1141
6186,1017,1140
6187,1013,1137
6188,1013,1134
6189,1013,1136
6190,1016,1139
6191,1017,1138
6192,1016,1133
6193,1014,1131
6194,1015,1131
6195,1014,1131
6196,1014,1131
6197,1014,1129
6198,1015,1127
6199,1014,1120
6200,1011,1120
6201,1015,1117
6202,1018,1118
6203,1019,1117
6204,1013,1113
6205,1002,1109
6206,996,1104
6207,1003,1103
6208,1011,1106
6209,1015,1105
6210,1008,1104
6211,1001,1098
6212,1004,1092
6213,1005,1092
6214,999,1093
6215,995,1092
6216,994,1084
6217,996,1084
6218,1001,1081
6219,1002,1086
6220,999,1088
6221,998,1088
6222,993,1086
6223,990,1079
6224,987,1075
6225,987,1074
6226,983,1077
6227,986,1079
6228,985,1080
6229,989,1074
6230,992,1075
6231,987,1077
6232,982,1079
6233,978,1081
6234,977,1081
6235,980,1078
6236,985,1073
6237,990,1075
6238,993,1075
6239,993,1078
6240,991,1079
6241,988,1078
6242,985,1076
6243,987,1080
6244,986,1083
6245,985,1085
6246,985,1085
6247,982,1082
6248,977,1082
6249,975,1084
6250,976,1085
6251,977,1084
6252,975,1079
6253,975,1081
6254,977,1078
6255,975,1081
6256,979,1085
6257,987,1087
6258,994,1086
6259,989,1086
6260,984,1084
6261,984,1088
6262,983,1089
6263,983,1090
6264,975,1087
6265,970,1088
6266,970,1089
6267,973,1088
6268,979,1087
6269,981,1086
6270,977,1087
6271,971,1087
6272,970,1084
6273,967,1085
6274,965,1085
6275,967,1086
6276,971,1087
6277,971,1082
6278,966,1082
6279,963,1081
6280,964,1084
6281,966,1083
6282,965,1081
6283,965,1077
6284,958,1077
6285,959,1079
6286,959,1077
6287,964,1078
6288,965,1079
6289,963,1076
6290,960,1075
6291,958,1075
6292,963,1079
6293,962,1077
6294,962,1076
6295,957,1073
6296,951,1073
6297,953,1072
6298,959,1074
6299,963,1073
6300,964,1072
6301,964,1070
6302,965,1069
6303,962,1072
6304,961,1072
6305,963,1071
6306,967,1070
6307,969,1069
6308,970,1068
6309,968,1070
6310,964,1072
6311,961,1071
6312,964,1072
6313,974,1068
6314,977,1069
6315,975,1070
6316,968,1071
6317,964,1069
6318,963,1070
6319,966,1068
6320,968,1065
6321,967,1068
6322,967,1066
6323,970,1067
6324,971,1067
6325,971,1068
6326,967,1064
6327,960,1066
6328,960,1066
6329,969,1070
6330,978,1069
6331,981,1067
6332,978,1068
6333,974,1067
6334,973,1072
6335,972,1071
6336,968,1073
6337,964,1071
6338,961,1066
6339,966,1065
6340,969,1067
6341,974,1073
6342,973,1068
6343,967,1066
6344,965,1067
6345,970,1069
6346,975,1069
6347,977,1069
6348,970,1070
6349,965,1070
6350,965,1068
6351,968,1068
6352,971,1067
6353,970,1065
6354,968,1060
6355,970,1059
6356,975,1061
6357,977,1062
6358,975,1067
6359,972,1064
6360,972,1061
6361,973,1060
6362,971,1062
6363,972,1063
6364,975,1066
6365,979,1065
6366,978,1065
6367,974,1062
6368,969,1060
6369,967,1062
6370,967,1068
6371,967,1065
6372,965,1063
6373,968,1061
6374,975,1059
6375,980,1060
6376,983,1062
6377,985,1063
6378,980,1059
6379,976,1061
6380,974,1056
6381,972,1060
6382,973,1064
6383,976,1063
6384,975,1062
6385,972,1059
6386,970,1061
6387,969,1061
6388,973,1064
6389,977,1066
6390,983,1067
6391,984,1067
6392,980,1067
6393,979,1073
6394,984,1075
6395,989,1076
6396,988,1077
6397,989,1076
6398,996,1076
6399,1008,1077
6400,1015,1073
6401,1017,1074
6402,1014,1070
6403,1015,1070
6404,1011,1066
6405,1010,1067
6406,1018,1067
6407,1020,1066
6408,1021,1068
6409,1017,1064
6410,1010,1065
6411,1008,1064
6412,1006,1065
6413,999,1063
6414,991,1061
6415,986,1059
6416,981,1056
6417,972,1057
6418,963,1055
6419,960,1055
6420,963,1055
6421,966,1054
6422,965,1053
6423,964,1054
6424,964,1057
6425,962,1057
6426,964,1057
6427,960,1054
6428,952,1051
6429,954,1053
6430,960,1051
6431,968,1056
6432,969,1053
6433,966,1052
6434,963,1049
6435,960,1049
6436,962,1055
6437,965,1055
6438,964,1052
6439,963,1053
6440,962,1051
6441,964,1050
6442,963,1053
6443,961,1052
6444,963,1051
6445,964,1050
6446,962,1048
6447,953,1050
6448,956,1051
6449,962,1052
6450,967,1050
6451,967,1048
6452,964,1044
6453,962,1032
6454,955,1015
6455,955,992
6456,956,962
6457,956,924
6458,957,879
6459,963,824
6460,970,764
6461,971,717
6462,952,701
6463,939,710
6464,939,721
6465,940,734
6466,942,745
6467,940,761
6468,930,774
6469,920,780
6470,910,786
6471,901,795
6472,895,806
6473,891,819
6474,883,829
6475,874,840
6476,863,855
6477,852,865
6478,849,879
6479,853,897
6480,855,917
6481,859,936
6482,861,953
6483,873,973
6484,892,989
6485,907,1004
6486,913,1017
6487,912,1030
6488,925,1043
6489,942,1058
6490,956,1071
6491,965,1083
6492,968,1090
6493,969,1093
6494,969,1096
6495,973,1099
6496,975,1100
6497,980,1097
6498,978,1097
6499,976,1099
6500,975,1101
6501,975,1105
6502,973,1108
6503,976,1110
6504,977,1110
6505,982,1108
6506,983,1107
6507,982,1109
6508,983,1113
6509,983,1112
6510,982,1112
6511,979,1113
6512,976,1113
6513,976,1115
6514,982,1118
6515,988,1120
6516,986,1121
6517,981,1121
6518,977,1122
6519,980,1122
6520,983,1122
6521,985,1121
6522,984,1123
6523,984,1121
6524,985,1121
6525,981,1123
6526,976,1124
6527,976,1122
6528,987,1126
6529,997,1125
6530,996,1124
6531,992,1123
6532,990,1124
6533,993,1125
6534,993,1127
6535,998,1125
6536,1000,1124
6537,1001,1126
6538,1003,1127
6539,1004,1128
6540,1002,1129
6541,1000,1126
6542,998,1123
6543,1002,1125
6544,1004,1127
6545,1005,1126
6546,1005,1125
6547,1001,1123
6548,1002,1121
6549,1000,1123
6550,1003,1122
6551,1004,1123
6552,1002,1123
6553,1000,1118
6554,1001,1118
6555,1001,1119
6556,1006,1118
6557,1011,1119
6558,1019,1118
6559,1023,1118
6560,1014,1115
6561,1010,1119
6562,1013,1122
6563,1021,1117
6564,1021,1114
6565,1015,1112
6566,1013,1111
6567,1011,1108
6568,1007,1104
6569,1008,1102
6570,1011,1099
6571,1013,1097
6572,1011,1094
6573,1009,1094
6574,1012,1093
6575,1014,1091
6576,1010,1091
6577,1010,1088
6578,1010,1088
6579,1005,1088
6580,1003,1088
6581,999,1082
6582,997,1077
6583,991,1069
6584,995,1067
6585,1000,1065
6586,1006,1066
6587,1008,1063
6588,1000,1063
6589,992,1060
6590,991,1059
6591,994,1059
6592,995,1058
6593,996,1058
6594,992,1058
6595,986,1055
6596,982,1052
6597,982,1055
6598,989,1060
6599,993,1057
6600,993,1058
6601,986,1058
6602,979,1066
6603,980,1064
6604,984,1060
6605,989,1054
6606,988,1049
6607,988,1047
6608,984,1050
6609,982,1050
6610,982,1054
6611,985,1053
6612,987,1056
6613,986,1052
6614,982,1051
6615,981,1051
6616,982,1054
6617,984,1053
6618,985,1056
6619,984,1057
6620,982,1062
6621,979,1077
6622,979,1080
6623,979,1065
6624,985,1050
6625,984,1045
6626,981,1047
6627,978,1054
6628,979,1056
6629,982,1055
6630,984,1055
6631,980,1053
6632,973,1055
6633,973,1055
6634,974,1060
6635,975,1060
6636,977,1063
6637,976,1060
6638,974,1059
6639,975,1059
6640,975,1061
6641,974,1056
6642,970,1056
6643,963,1055
6644,965,1054
6645,972,1055
6646,973,1057
6647,975,1056
6648,972,1055
6649,966,1053
6650,964,1056
6651,963,1065
6652,972,1075
6653,971,1071
6654,966,1055
6655,961,1041
6656,966,1037
6657,971,1043
6658,975,1045
6659,970,1048
6660,969,1046
6661,967,1043
6662,960,1045
6663,959,1044
6664,966,1047
6665,969,1046
6666,969,1044
6667,970,1043
6668,963,1041
6669,961,1044
6670,963,1046
6671,968,1046
6672,969,1047
6673,966,1042
6674,962,1037
6675,965,1035
6676,973,1041
6677,974,1040
6678,971,1041
6679,967,1035
6680,963,1034
6681,961,1033
6682,966,1034
6683,971,1036
6684,977,1035
6685,975,1030
6686,975,1027
6687,972,1027
6688,974,1026
6689,970,1028
6690,967,1028
6691,967,1025
6692,968,1025
6693,976,1025
6694,980,1026
6695,978,1027
6696,971,1028
6697,970,1025
6698,971,1024
6699,976,1028
6700,976,1029
6701,975,1029
6702,974,1026
6703,977,1024
6704,978,1023
6705,976,1023
6706,975,1025
6707,975,1022
6708,972,1019
6709,970,1019
6710,970,1017
6711,975,1019
6712,975,1022
6713,975,1021
6714,977,1018
6715,976,1018
6716,972,1017
6717,970,1019
6718,964,1020
6719,968,1021
6720,971,1018
6721,975,1018
6722,970,1018
6723,963,1021
6724,965,1020
6725,975,1022
6726,981,1019
6727,973,1017
6728,964,1017
6729,962,1016
6730,973,1020
6731,982,1017
6732,983,1017
6733,980,1018
6734,980,1017
6735,981,1017
6736,979,1019
6737,978,1017
6738,976,1017
6739,975,1016
6740,975,1019
6741,974,1018
6742,975,1020
6743,976,1020
6744,977,1021
6745,978,1016
6746,975,1017
6747,977,1018
6748,975,1019
6749,975,1017
6750,977,1017
6751,975,1016
6752,971,1014
6753,967,1014
6754,968,1021
6755,973,1020
6756,977,1021
6757,980,1016
6758,979,1017
6759,971,1018
6760,966,1021
6761,970,1023
6762,983,1020
6763,992,1019
6764,986,1019
6765,980,1021
6766,971,1022
6767,971,1019
6768,978,1017
6769,982,1016
6770,981,1019
6771,980,1021
6772,975,1019
6773,978,1021
6774,980,1018
6775,979,1018
6776,976,1016
6777,973,1018
6778,976,1022
6779,983,1019
6780,985,1021
6781,981,1020
6782,979,1021
6783,984,1023
6784,989,1028
6785,993,1030
6786,995,1031
6787,991,1031
6788,988,1033
6789,984,1034
6790,980,1035
6791,980,1036
6792,990,1034
6793,1002,1036
6794,1014,1035
6795,1019,1033
6796,1015,1033
6797,1018,1031
6798,1025,1030
6799,1028,1027
6800,1026,1028
6801,1023,1027
6802,1022,1031
6803,1022,1029
6804,1026,1030
6805,1023,1028
6806,1018,1028
6807,1017,1029
6808,1016,1030
6809,1017,1028
6810,1011,1024
6811,1000,1020
6812,996,1022
6813,990,1023
6814,986,1021
6815,974,1019
6816,967,1015
6817,960,1012
6818,956,1014
6819,959,1013
6820,968,1017
6821,983,1015
6822,985,1015
6823,977,1014
6824,970,1014
6825,970,1014
6826,970,1018
6827,967,1018
6828,963,1014
6829,963,1013
6830,963,1013
6831,968,1013
6832,972,1016
6833,979,1016
6834,978,1014
6835,973,1011
6836,962,1009
6837,959,1012
6838,966,1015
6839,974,1014
6840,976,1012
6841,976,1012
6842,974,1013
6843,976,1012
6844,979,1015
6845,976,1013
6846,977,1014
6847,972,1011
6848,967,1011
6849,964,1012
6850,963,1013
6851,969,1009
6852,977,1013
6853,975,1010
6854,965,1011
6855,958,1010
6856,959,1001
6857,964,983
6858,962,961
6859,957,936
6860,955,904
6861,955,870
6862,956,828
6863,957,777
6864,954,722
6865,950,678
6866,944,655
6867,942,656
6868,945,669
6869,944,678
6870,936,687
6871,928,692
6872,929,705
6873,932,716
6874,929,729
6875,919,734
6876,916,740
6877,908,745
6878,894,756
6879,893,767
6880,894,781
6881,884,790
6882,872,803
6883,860,814
6884,849,824
6885,848,835
6886,851,849
6887,856,866
6888,866,888
6889,869,905
6890,871,922
6891,876,941
6892,893,960
6893,912,975
6894,924,988
6895,934,998
6896,941,1015
6897,949,1032
6898,957,1044
6899,968,1052
6900,972,1063
6901,973,1065
6902,974,1069
6903,976,1070
6904,976,1074
6905,980,1078
6906,982,1087
6907,979,1093
6908,986,1096
6909,991,1088
6910,991,1080
6911,988,1077
6912,987,1079
6913,984,1085
6914,979,1088
6915,979,1090
6916,987,1095
6917,989,1096
6918,984,1095
6919,981,1093
6920,983,1092
6921,990,1095
6922,995,1099
6923,987,1096
6924,977,1098
6925,977,1100
6926,989,1103
6927,997,1108
6928,989,1114
6929,984,1117
6930,983,1114
6931,987,1101
6932,989,1094
6933,994,1097
6934,999,1103
6935,998,1103
6936,998,1106
6937,993,1109
6938,994,1114
6939,993,1113
6940,994,1108
6941,996,1101
6942,997,1099
6943,995,1100
6944,996,1101
6945,999,1106
6946,1002,1110
6947,1003,1107
6948,1006,1106
6949,1005,1101
6950,1005,1103
6951,1009,1107
6952,1010,1112
6953,1011,1112
6954,1010,1110
6955,1013,1103
6956,1014,1099
6957,1011,1098
6958,1012,1097
6959,1016,1096
6960,1015,1096
6961,1013,1095
6962,1014,1092
6963,1017,1096
6964,1017,1093
6965,1016,1092
6966,1016,1089
6967,1012,1086
6968,1010,1088
6969,1016,1086
6970,1017,1083
6971,1019,1080
6972,1019,1078
6973,1014,1075
6974,1012,1072
6975,1016,1071
6976,1017,1068
6977,1019,1064
6978,1017,1061
6979,1015,1054
6980,1011,1050
6981,1007,1047
6982,1003,1046
6983,1003,1040
6984,1007,1037
6985,1003,1033
6986,995,1029
6987,1001,1028
6988,1010,1028
6989,1012,1026
6990,1006,1021
6991,1002,1017
6992,994,1015
6993,993,1016
6994,998,1015
6995,1000,1013
6996,1000,1013
6997,997,1009
6998,994,1009
6999,990,1010
7000,991,1010
7001,991,1010
7002,990,1010
7003,988,1006
7004,983,1006
7005,982,1007
7006,983,1012
7007,987,1012
7008,990,1013
7009,987,1012
7010,983,1012
7011,982,1012
7012,981,1012
7013,983,1014
7014,984,1013
7015,982,1011
7016,978,1011
7017,979,1015
7018,982,1015
7019,984,1016
7020,981,1015
7021,979,1012
7022,976,1014
7023,976,1019
7024,978,1020
7025,981,1022
7026,982,1023
7027,979,1022
7028,975,1022
7029,974,1024
7030,976,1030
7031,977,1032
7032,979,1032
7033,977,1029
7034,976,1030
7035,976,1033
7036,979,1037
7037,977,1039
7038,978,1039
7039,976,1041
7040,974,1042
7041,974,1046
7042,972,1052
7043,973,1052
7044,969,1054
7045,969,1053
7046,973,1057
7047,975,1058
7048,974,1063
7049,975,1064
7050,974,1063
7051,970,1061
7052,966,1063
7053,963,1061
7054,962,1066
7055,966,1066
7056,968,1066
7057,968,1064
7058,966,1067
7059,963,1069
7060,965,1075
7061,970,1077
7062,970,1078
7063,969,1078
7064,967,1078
7065,966,1080
7066,967,1084
7067,963,1085
7068,961,1081
7069,958,1083
7070,960,1082
7071,967,1086
7072,973,1088
7073,970,1087
7074,968,1086
7075,963,1084
7076,964,1084
7077,963,1085
7078,966,1087
7079,966,1089
7080,963,1087
7081,961,1085
7082,956,1087
7083,958,1088
7084,969,1089
7085,973,1087
7086,972,1087
7087,970,1085
7088,965,1085
7089,966,1088
7090,966,1089
7091,969,1091
7092,967,1089
7093,965,1089
7094,965,1087
7095,965,1089
7096,966,1091
7097,970,1089
7098,969,1088
7099,969,1087
7100,967,1086
7101,970,1086
7102,972,1090
7103,971,1090
7104,968,1088
7105,965,1088
7106,966,1086
7107,970,1089
7108,971,1090
7109,973,1092
7110,970,1092
7111,967,1093
7112,963,1091
7113,961,1095
7114,965,1098
7115,970,1095
7116,971,1096
7117,973,1093
7118,969,1093
7119,966,1092
7120,969,1097
7121,971,1096
7122,965,1094
7123,962,1090
7124,966,1090
7125,971,1093
7126,972,1096
7127,973,1096
7128,974,1095
7129,972,1094
7130,971,1089
7131,967,1092
7132,969,1094
7133,971,1092
7134,968,1095
7135,967,1092
7136,967,1092
7137,968,1092
7138,969,1095
7139,969,1095
7140,970,1093
7141,970,1091
7142,967,1090
7143,968,1092
7144,969,1096
7145,973,1094
7146,973,1092
7147,969,1090
7148,968,1088
7149,967,1091
7150,968,1092
7151,967,1092
7152,970,1092
7153,969,1089
7154,970,1088
7155,970,1089
7156,972,1093
7157,973,1092
7158,973,1092
7159,973,1090
7160,970,1088
7161,969,1088
7162,970,1090
7163,970,1090
7164,974,1090
7165,975,1086
7166,973,1084
7167,971,1089
7168,972,1089
7169,973,1087
7170,968,1091
7171,970,1088
7172,967,1086
7173,970,1090
7174,973,1090
7175,973,1089
7176,973,1090
7177,970,1088
7178,968,1088
7179,969,1089
7180,971,1090
7181,974,1093
7182,974,1089
7183,972,1084
7184,970,1084
7185,969,1086
7186,971,1088
7187,972,1088
7188,973,1086
7189,972,1086
7190,972,1086
7191,976,1090
7192,980,1095
7193,986,1095
7194,984,1096
7195,982,1095
7196,983,1095
7197,985,1101
7198,988,1102
7199,986,1105
7200,990,1104
7201,995,1103
7202,999,1102
7203,1004,1102
7204,1011,1098
7205,1016,1099
7206,1016,1097
7207,1012,1091
7208,1006,1091
7209,1006,1090
7210,1016,1093
7211,1022,1094
7212,1024,1093
7213,1020,1089
7214,1015,1088
7215,1010,1089
7216,1002,1090
7217,995,1088
7218,988,1086
7219,979,1086
7220,969,1082
7221,963,1083
7222,956,1080
7223,956,1075
7224,961,1076
7225,963,1073
7226,964,1073
7227,960,1076
7228,960,1074
7229,963,1074
7230,962,1071
7231,960,1071
7232,958,1071
7233,960,1071
7234,967,1074
7235,970,1074
7236,969,1074
7237,968,1072
7238,961,1071
7239,962,1073
7240,962,1074
7241,964,1074
7242,961,1072
7243,957,1070
7244,956,1067
7245,960,1071
7246,967,1071
7247,967,1069
7248,966,1070
7249,963,1069
7250,960,1068
7251,962,1069
7252,965,1069
7253,965,1068
7254,963,1067
7255,961,1064
7256,956,1065
7257,958,1069
7258,959,1070
7259,965,1069
7260,960,1059
7261,951,1043
7262,947,1023
7263,947,1002
7264,955,980
7265,961,948
7266,963,903
7267,962,849
7268,969,793
7269,977,751
7270,972,734
7271,956,737
7272,941,746
7273,933,754
7274,930,763
7275,930,774
7276,930,788
7277,921,799
7278,910,807
7279,898,810
7280,887,819
7281,883,831
7282,877,841
7283,867,850
7284,853,860
7285,842,870
7286,835,881
7287,838,892
7288,846,908
7289,857,929
7290,861,946
7291,866,966
7292,872,981
7293,885,997
7294,904,1016
7295,917,1033
7296,922,1046
7297,928,1058
7298,935,1073
7299,949,1082
7300,958,1093
7301,967,1100
7302,970,1103
7303,969,1101
7304,966,1106
7305,967,1108
7306,969,1109
7307,979,1114
7308,982,1110
7309,980,1112
7310,974,1111
7311,974,1115
7312,978,1117
7313,983,1117
7314,980,1117
7315,977,1116
7316,976,1116
7317,978,1119
7318,979,1122
7319,981,1123
7320,981,1122
7321,979,1121
7322,977,1122
7323,975,1122
7324,975,1125
7325,978,1123
7326,977,1123
7327,976,1122
7328,973,1124
7329,977,1125
7330,981,1129
7331,989,1129
7332,988,1126
7333,986,1125
7334,984,1122
7335,984,1126
7336,986,1126
7337,986,1125
7338,989,1126
7339,986,1124
7340,982,1124
7341,986,1126
7342,987,1129
7343,985,1126
7344,982,1126
7345,981,1123
7346,982,1122
7347,987,1123
7348,991,1126
7349,994,1125
7350,994,1123
7351,996,1123
7352,996,1123
7353,997,1124
7354,1000,1126
7355,995,1123
7356,994,1125
7357,997,1122
7358,997,1123
7359,999,1124
7360,1000,1126
7361,998,1123
7362,995,1124
7363,996,1120
7364,1001,1118
7365,1009,1121
7366,1013,1121
7367,1007,1119
7368,1005,1116
7369,1003,1116
7370,1003,1114
7371,1005,1112
7372,1008,1116
7373,1010,1114
7374,1009,1112
7375,1005,1109
7376,1002,1108
7377,1002,1108
7378,1003,1110
7379,1002,1105
7380,1003,1105
7381,1007,1100
7382,1006,1100
7383,1009,1099
7384,1007,1100
7385,1006,1096
7386,1005,1092
7387,1003,1089
7388,999,1088
7389,999,1085
7390,999,1084
7391,999,1081
7392,996,1079
7393,994,1076
7394,990,1072
7395,988,1074
7396,988,1071
7397,990,1070
7398,990,1069
7399,988,1065
7400,985,1065
7401,984,1065
7402,981,1064
7403,985,1064
7404,986,1063
7405,984,1061
7406,979,1059
7407,977,1055
7408,982,1060
7409,987,1059
7410,982,1057
7411,981,1055
7412,979,1055
7413,983,1059
7414,985,1061
7415,986,1061
7416,982,1056
7417,978,1057
7418,970,1055
7419,972,1058
7420,977,1061
7421,985,1061
7422,985,1064
7423,982,1064
7424,977,1062
7425,978,1070
7426,980,1072
7427,977,1069
7428,979,1062
7429,978,1057
7430,979,1056
7431,982,1059
7432,984,1062
7433,986,1062
7434,978,1060
7435,977,1056
7436,975,1058
7437,975,1061
7438,978,1063
7439,978,1064
7440,978,1062
7441,975,1062
7442,970,1062
7443,970,1065
7444,971,1067
7445,970,1068
7446,970,1066
7447,973,1065
7448,972,1063
7449,975,1067
7450,978,1068
7451,982,1069
7452,976,1066
7453,969,1063
7454,962,1063
7455,960,1064
7456,967,1068
7457,976,1068
7458,976,1068
7459,976,1065
7460,972,1067
7461,966,1067
7462,964,1067
7463,966,1068
7464,967,1066
7465,968,1065
7466,967,1063
7467,967,1065
7468,967,1067
7469,966,1064
7470,964,1063
7471,961,1062
7472,963,1061
7473,965,1063
7474,969,1065
7475,968,1063
7476,967,1062
7477,965,1059
7478,963,1057
7479,964,1057
7480,967,1063
7481,968,1059
7482,963,1058
7483,964,1057
7484,963,1057
7485,964,1060
7486,967,1062
7487,966,1062
7488,965,1060
7489,964,1061
7490,961,1064
7491,961,1071
7492,963,1076
7493,967,1064
7494,966,1053
7495,965,1048
7496,965,1046
7497,967,1051
7498,971,1055
7499,975,1053
7500,973,1051
7501,968,1052
7502,966,1050
7503,965,1052
7504,971,1057
7505,971,1055
7506,969,1054
7507,967,1052
7508,966,1051
7509,969,1051
7510,971,1053
7511,971,1052
7512,972,1049
7513,967,1047
7514,966,1046
7515,965,1050
7516,968,1054
7517,971,1049
7518,967,1047
7519,967,1045
7520,967,1046
7521,970,1046
7522,972,1047
7523,972,1049
7524,968,1047
7525,965,1047
7526,966,1047
7527,969,1047
7528,973,1049
7529,976,1047
7530,977,1045
7531,973,1042
7532,969,1043
7533,971,1044
7534,971,1045
7535,970,1047
7536,970,1041
7537,972,1044
7538,971,1041
7539,974,1044
7540,979,1047
7541,981,1046
7542,977,1044
7543,971,1043
7544,965,1045
7545,965,1045
7546,971,1049
7547,977,1047
7548,977,1044
7549,976,1045
7550,973,1042
7551,974,1045
7552,975,1046
7553,977,1044
7554,973,1039
7555,970,1041
7556,969,1041
7557,974,1045
7558,978,1048
7559,981,1046
7560,977,1045
7561,976,1045
7562,971,1042
7563,973,1046
7564,973,1047
7565,974,1046
7566,970,1047
7567,968,1043
7568,972,1044
7569,975,1042
7570,977,1043
7571,977,1043
7572,978,1044
7573,977,1042
7574,976,1043
7575,973,1042
7576,972,1044
7577,974,1043
7578,978,1042
7579,980,1039
7580,977,1043
7581,978,1046
7582,975,1046
7583,977,1045
7584,977,1047
7585,976,1043
7586,974,1042
7587,975,1044
7588,977,1044
7589,983,1044
7590,982,1043
7591,979,1042
7592,980,1044
7593,982,1047
7594,984,1051
7595,987,1053
7596,990,1052
7597,987,1054
7598,987,1056
7599,989,1057
7600,989,1061
7601,995,1061
7602,1002,1063
7603,1004,1063
7604,1002,1060
7605,1005,1057
7606,1011,1058
7607,1019,1056
7608,1023,1055
7609,1023,1051
7610,1023,1049
7611,1022,1051
7612,1023,1054
7613,1021,1052
7614,1021,1050
7615,1025,1052
7616,1025,1051
7617,1022,1052
7618,1010,1051
7619,1000,1049
7620,990,1051
7621,984,1046
7622,977,1046
7623,967,1044
7624,964,1045
7625,966,1042
7626,970,1039
7627,969,1039
7628,968,1036
7629,971,1040
7630,969,1040
7631,970,1041
7632,970,1039
7633,972,1037
7634,969,1037
7635,970,1038
7636,972,1040
7637,972,1039
7638,969,1039
7639,968,1037
7640,965,1036
7641,965,1037
7642,967,1039
7643,970,1039
7644,970,1037
7645,967,1034
7646,963,1034
7647,965,1035
7648,970,1036
7649,974,1036
7650,971,1036
7651,965,1033
7652,963,1033
7653,967,1034
7654,971,1035
7655,974,1035
7656,972,1032
7657,966,1033
7658,966,1035
7659,969,1035
7660,969,1030
7661,969,1016
7662,959,993
7663,958,972
7664,957,946
7665,970,914
7666,979,877
7667,981,821
7668,980,763
7669,975,719
7670,957,703
7671,946,707
7672,943,720
7673,941,729
7674,938,734
7675,936,746
7676,934,757
7677,929,773
7678,921,782
7679,913,786
7680,899,795
7681,891,800
7682,883,813
7683,875,826
7684,864,839
7685,858,849
7686,856,859
7687,854,869
7688,861,886
7689,868,912
7690,870,933
7691,874,949
7692,879,964
7693,897,980
7694,914,998
7695,930,1015
7696,938,1031
7697,945,1044
7698,954,1055
7699,964,1063
7700,967,1071
7701,972,1077
7702,974,1085
7703,979,1085
7704,979,1085
7705,977,1086
7706,977,1089
7707,980,1092
7708,982,1092
7709,986,1094
7710,984,1096
7711,977,1096
7712,979,1094
7713,978,1100
7714,984,1101
7715,987,1103
7716,986,1101
7717,987,1101
7718,981,1101
7719,981,1105
7720,986,1106
7721,987,1106
7722,984,1106
7723,983,1105
7724,983,1103
7725,988,1105
7726,990,1108
7727,988,1106
7728,986,1109
7729,983,1106
7730,985,1106
7731,987,1109
7732,992,1110
7733,989,1108
7734,983,1107
7735,981,1106
7736,983,1107
7737,992,1111
7738,998,1114
7739,999,1112
7740,997,1111
7741,993,1111
7742,989,1112
7743,987,1114
7744,994,1115
7745,1000,1114
7746,1004,1112
7747,1001,1110
7748,997,1110
7749,996,1113
7750,998,1117
7751,1002,1114
7752,1000,1114
7753,999,1110
7754,994,1110
7755,997,1112
7756,1006,1113
7757,1009,1112
7758,1010,1113
7759,1007,1111
7760,1007,1110
7761,1007,1108
7762,1010,1110
7763,1010,1110
7764,1010,1108
7765,1010,1107
7766,1007,1103
7767,1008,1104
7768,1012,1106
7769,1019,1102
7770,1020,1104
7771,1014,1099
7772,1012,1099
7773,1012,1098
7774,1010,1099
7775,1012,1095
7776,1011,1093
7777,1012,1091
7778,1008,1089
7779,1009,1089
7780,1007,1089
7781,1005,1087
7782,1008,1084
7783,1010,1080
7784,1008,1074
7785,1004,1076
7786,1001,1076
7787,999,1072
7788,1001,1070
7789,999,1067
7790,997,1063
7791,992,1062
7792,988,1061
7793,989,1060
7794,985,1056
7795,986,1054
7796,991,1051
7797,995,1052
7798,993,1055
7799,988,1053
7800,987,1051
7801,987,1048
7802,987,1048
7803,988,1050
7804,988,1051
7805,988,1050
7806,985,1048
7807,981,1048
7808,980,1046
7809,980,1047
7810,980,1050
7811,980,1049
7812,983,1048
7813,983,1048
7814,981,1047
7815,981,1050
7816,978,1052
7817,982,1054
7818,983,1051
7819,981,1049
7820,977,1052
7821,977,1051
7822,977,1053
7823,981,1053
7824,980,1054
7825,976,1052
7826,976,1052
7827,977,1054
7828,979,1056
7829,975,1055
7830,972,1055
7831,969,1053
7832,971,1052
7833,977,1057
7834,982,1059
7835,981,1060
7836,978,1059
7837,975,1057
7838,974,1058
7839,976,1060
7840,978,1064
7841,981,1061
7842,980,1060
7843,977,1059
7844,971,1056
7845,969,1059
7846,971,1061
7847,972,1060
7848,970,1060
7849,969,1057
7850,966,1059
7851,967,1060
7852,971,1061
7853,972,1061
7854,975,1058
7855,971,1059
7856,966,1059
7857,966,1059
7858,968,1060
7859,967,1059
7860,967,1056
7861,965,1054
7862,961,1052
7863,963,1054
7864,965,1056
7865,966,1054
7866,961,1052
7867,960,1049
7868,962,1049
7869,968,1053
7870,966,1056
7871,970,1053
7872,968,1051
7873,968,1054
7874,963,1052
7875,961,1050
7876,967,1051
7877,971,1054
7878,970,1049
7879,966,1045
7880,962,1043
7881,964,1050
7882,965,1048
7883,970,1049
7884,970,1047
7885,968,1047
7886,965,1044
7887,966,1047
7888,966,1050
7889,970,1045
7890,968,1048
7891,966,1044
7892,965,1044
7893,967,1046
7894,970,1048
7895,969,1048
7896,967,1044
7897,965,1042
7898,964,1043
7899,968,1043
7900,972,1046
7901,973,1046
7902,970,1043
7903,965,1040
7904,969,1040
7905,967,1042
7906,974,1044
7907,977,1044
7908,978,1041
7909,974,1042
7910,969,1042
7911,969,1045
7912,971,1046
7913,975,1044
7914,973,1043
7915,970,1043
7916,969,1043
7917,970,1040
7918,970,1045
7919,975,1043
7920,975,1043
7921,973,1039
7922,972,1037
7923,971,1040
7924,973,1041
7925,974,1041
7926,973,1041
7927,972,1039
7928,973,1040
7929,972,1042
7930,974,1047
7931,973,1043
7932,972,1042
7933,970,1039
7934,973,1042
7935,978,1042
7936,975,1043
7937,974,1043
7938,973,1041
7939,972,1040
7940,971,1037
7941,971,1042
7942,975,1046
7943,978,1043
7944,974,1042
7945,974,1039
7946,974,1037
7947,969,1044
7948,969,1045
7949,971,1044
7950,976,1043
7951,975,1039
7952,971,1041
7953,972,1042
7954,969,1043
7955,970,1042
7956,972,1041
7957,975,1038
7958,976,1038
7959,980,1040
7960,980,1044
7961,978,1041
7962,980,1041
7963,981,1042
7964,980,1042
7965,980,1045
7966,981,1048
7967,983,1051
7968,985,1052
7969,984,1050
7970,985,1053
7971,990,1058
7972,993,1059
7973,994,1058
7974,994,1060
7975,1001,1058
7976,1006,1054
7977,1010,1054
7978,1011,1052
7979,1013,1053
7980,1015,1049
7981,1016,1044
7982,1015,1044
7983,1020,1046
7984,1024,1045
7985,1024,1050
7986,1019,1048
7987,1014,1047
7988,1012,1047
7989,1009,1044
7990,1003,1046
7991,997,1046
7992,986,1041
7993,976,1038
7994,964,1032
7995,961,1033
7996,964,1034
7997,971,1033
7998,973,1032
7999,965,1029
8000,962,1030
8001,961,1031
8002,962,1032
8003,967,1033
8004,964,1032
8005,965,1033
8006,960,1029
8007,960,1030
8008,960,1034
8009,965,1031
8010,968,1030
8011,971,1029
8012,969,1029
8013,968,1029
8014,966,1030
8015,963,1033
8016,961,1030
8017,962,1027
8018,963,1026
8019,964,1029
8020,967,1030
8021,967,1028
8022,966,1028
8023,967,1028
8024,967,1026
8025,966,1029
8026,966,1029
8027,963,1028
8028,961,1029
8029,963,1029
8030,967,1026
8031,963,1019
8032,956,1005
8033,954,981
8034,956,959
8035,961,931
8036,964,893
8037,961,846
8038,962,793
8039,965,734
8040,961,702
8041,948,698
8042,937,710
8043,934,722
8044,935,732
8045,937,740
8046,934,752
8047,921,761
8048,911,769
8049,906,780
8050,897,790
8051,888,800
8052,881,810
8053,867,820
8054,856,832
8055,849,846
8056,848,859
8057,847,871
8058,854,888
8059,864,912
8060,870,932
8061,875,951
8062,888,968
8063,900,985
8064,914,999
8065,920,1010
8066,925,1023
8067,935,1038
8068,949,1050
8069,963,1060
8070,969,1066
8071,968,1071
8072,966,1072
8073,968,1079
8074,973,1079
8075,973,1084
8076,974,1084
8077,975,1084
8078,975,1086
8079,978,1089
8080,979,1094
8081,978,1091
8082,978,1095
8083,979,1093
8084,981,1094
8085,986,1097
8086,984,1098
8087,981,1097
8088,980,1097
8089,977,1096
8090,974,1097
8091,977,1101
8092,980,1104
8093,984,1102
8094,985,1100
8095,988,1099
8096,984,1103
8097,983,1103
8098,984,1107
8099,987,1106
8100,989,1106
8101,986,1105
8102,986,1104
8103,986,1107
8104,985,1108
8105,986,1106
8106,986,1107
8107,987,1106
8108,984,1105
8109,987,1108
8110,994,1109
8111,998,1109
8112,998,1108
8113,995,1106
8114,993,1106
8115,994,1109
8116,994,1112
8117,995,1112
8118,994,1110
8119,996,1107
8120,996,1108
8121,999,1110
8122,1002,1112
8123,999,1110
8124,1000,1110
8125,1000,1106
8126,1000,1104
8127,1003,1107
8128,1007,1108
8129,1008,1104
8130,1007,1104
8131,1007,1102
8132,1007,1100
8133,1011,1102
8134,1013,1105
8135,1016,1102
8136,1014,1100
8137,1012,1099
8138,1007,1096
8139,1008,1098
8140,1009,1098
8141,1008,1095
8142,1011,1091
8143,1010,1090
8144,1008,1086
8145,1004,1086
8146,1004,1084
8147,1006,1081
8148,1008,1078
8149,1004,1076
8150,1002,1072
8151,1004,1073
8152,1002,1074
8153,1000,1069
8154,999,1065
8155,996,1063
8156,991,1061
8157,988,1061
8158,990,1062
8159,992,1056
8160,995,1057
8161,993,1051
8162,988,1051
8163,986,1053
8164,987,1053
8165,986,1052
8166,985,1048
8167,986,1047
8168,980,1047
8169,979,1044
8170,980,1049
8171,982,1048
8172,983,1046
8173,981,1045
8174,980,1046
8175,980,1047
8176,977,1051
8177,974,1048
8178,974,1049
8179,975,1049
8180,978,1049
8181,981,1048
8182,986,1051
8183,986,1052
8184,986,1050
8185,980,1046
8186,979,1050
8187,976,1050
8188,979,1051
8189,980,1051
8190,980,1050
8191,975,1050
8192,971,1052
8193,974,1054
8194,972,1054
8195,976,1058
8196,975,1056
8197,976,1055
8198,974,1055
8199,974,1058
8200,976,1059
8201,979,1058
8202,977,1056
8203,975,1055
8204,970,1057
8205,971,1060
8206,972,1060
8207,974,1059
8208,970,1058
8209,965,1058
8210,959,1058
8211,963,1059
8212,971,1065
8213,978,1063
8214,976,1061
8215,972,1059
8216,969,1060
8217,967,1062
8218,968,1061
8219,966,1063
8220,967,1064
8221,965,1058
8222,964,1056
8223,965,1060
8224,967,1063
8225,967,1061
8226,963,1059
8227,960,1058
8228,958,1056
8229,958,1058
8230,960,1059
8231,961,1057
8232,963,1057
8233,961,1056
8234,957,1057
8235,955,1058
8236,954,1057
8237,954,1057
8238,961,1055
8239,966,1054
8240,965,1053
8241,966,1054
8242,967,1055
8243,964,1058
8244,963,1053
8245,962,1051
8246,958,1053
8247,959,1050
8248,968,1054
8249,970,1052
8250,966,1052
8251,966,1050
8252,964,1051
8253,966,1053
8254,967,1056
8255,966,1056
8256,966,1053
8257,965,1053
8258,962,1050
8259,966,1049
8260,966,1053
8261,967,1053
8262,970,1050
8263,963,1050
8264,962,1049
8265,962,1049
8266,967,1052
8267,970,1054
8268,971,1050
8269,971,1050
8270,969,1048
8271,968,1051
8272,968,1053
8273,969,1053
8274,973,1050
8275,967,1048
8276,963,1048
8277,966,1052
8278,973,1054
8279,976,1052
8280,973,1050
8281,969,1047
8282,967,1047
8283,969,1049
8284,971,1053
8285,973,1052
8286,973,1049
8287,970,1050
8288,964,1047
8289,968,1051
8290,971,1052
8291,971,1049
8292,969,1050
8293,968,1050
8294,968,1048
8295,969,1051
8296,972,1052
8297,969,1050
8298,971,1051
8299,970,1049
8300,970,1046
8301,970,1050
8302,972,1053
8303,970,1051
8304,965,1050
8305,964,1046
8306,966,1048
8307,972,1051
8308,976,1053
8309,975,1051
8310,973,1049
8311,972,1048
8312,969,1049
8313,967,1052
8314,975,1055
8315,975,1051
8316,975,1052
8317,971,1048
8318,968,1048
8319,973,1050
8320,975,1053
8321,975,1049
8322,972,1049
8323,972,1048
8324,971,1046
8325,972,1049
8326,974,1049
8327,975,1051
8328,972,1049
8329,969,1048
8330,965,1046
8331,965,1049
8332,972,1050
8333,979,1053
8334,980,1054
8335,979,1053
8336,979,1056
8337,987,1059
8338,988,1063
8339,988,1062
8340,989,1062
8341,988,1064
8342,989,1065
8343,990,1067
8344,995,1070
8345,1002,1070
8346,1006,1070
8347,1005,1065
8348,1001,1060
8349,1003,1062
8350,1008,1061
8351,1012,1061
8352,1013,1058
8353,1016,1057
8354,1013,1056
8355,1010,1058
8356,1012,1058
8357,1020,1061
8358,1029,1057
8359,1023,1054
8360,1010,1053
8361,993,1054
8362,988,1053
8363,984,1053
8364,977,1051
8365,966,1046
8366,961,1046
8367,965,1046
8368,971,1046
8369,970,1044
8370,963,1044
8371,960,1041
8372,962,1041
8373,968,1045
8374,967,1048
8375,966,1046
8376,965,1043
8377,964,1045
8378,966,1045
8379,966,1046
8380,965,1048
8381,966,1046
8382,968,1044
8383,964,1043
8384,963,1042
8385,963,1042
8386,966,1046
8387,971,1044
8388,968,1046
8389,964,1044
8390,960,1042
8391,954,1047
8392,961,1045
8393,966,1046
8394,966,1046
8395,968,1045
8396,960,1043
8397,959,1046
8398,968,1046
8399,971,1044
8400,967,1044
8401,960,1042
8402,962,1044
8403,970,1048
8404,974,1044
8405,968,1031
8406,960,1011
8407,955,990
8408,958,966
8409,965,941
8410,968,905
8411,970,857
8412,967,798
8413,966,743
8414,962,716
8415,951,710
8416,945,722
8417,940,732
8418,938,736
8419,937,744
8420,935,758
8421,927,770
8422,918,780
8423,912,784
8424,902,790
8425,893,798
8426,888,809
8427,887,821
8428,883,834
8429,876,848
8430,869,857
8431,860,866
8432,852,878
8433,855,899
8434,865,924
8435,873,940
8436,878,958
8437,881,969
8438,890,984
8439,909,1002
8440,925,1019
8441,933,1031
8442,940,1043
8443,947,1051
8444,955,1065
8445,961,1077
8446,969,1086
8447,971,1090
8448,975,1092
8449,978,1093
8450,975,1096
8451,976,1098
8452,978,1105
8453,980,1104
8454,982,1106
8455,983,1107
8456,983,1108
8457,984,1112
8458,982,1116
8459,981,1113
8460,983,1114
8461,984,1112
8462,983,1113
8463,983,1114
8464,980,1118
8465,982,1116
8466,983,1115
8467,983,1114
8468,983,1116
8469,981,1119
8470,980,1120
8471,980,1122
8472,980,1122
8473,985,1121
8474,984,1121
8475,986,1123
8476,988,1125
8477,993,1126
8478,997,1127
8479,996,1122
8480,989,1125
8481,989,1127
8482,993,1127
8483,993,1127
8484,990,1126
8485,987,1127
8486,988,1125
8487,991,1127
8488,995,1130
8489,993,1129
8490,990,1130
8491,987,1128
8492,990,1125
8493,995,1129
8494,999,1133
8495,994,1132
8496,995,1132
8497,1001,1129
8498,1004,1131
8499,1007,1131
8500,1004,1133
8501,1005,1132
8502,1004,1132
8503,1003,1129
8504,1002,1128
8505,1004,1129
8506,1006,1131
8507,1010,1129
8508,1012,1125
8509,1010,1125
8510,1005,1125
8511,1010,1125
8512,1012,1126
8513,1013,1127
8514,1010,1123
8515,1015,1123
8516,1015,1120
8517,1017,1121
8518,1015,1118
8519,1012,1117
8520,1010,1113
8521,1007,1109
8522,1005,1107
8523,1011,1108
8524,1016,1104
8525,1012,1102
8526,1008,1098
8527,1004,1094
8528,1001,1092
8529,998,1090
8530,1002,1092
8531,1004,1087
8532,1004,1086
8533,1001,1082
8534,995,1080
8535,993,1078
8536,994,1079
8537,995,1075
8538,997,1072
8539,993,1071
8540,991,1068
8541,990,1069
8542,989,1070
8543,987,1069
8544,988,1070
8545,991,1065
8546,990,1067
8547,991,1067
8548,994,1069
8549,989,1068
8550,990,1067
8551,984,1070
8552,983,1067
8553,985,1068
8554,988,1071
8555,991,1068
8556,990,1069
8557,987,1066
8558,988,1067
8559,990,1067
8560,989,1071
8561,989,1073
8562,983,1070
8563,983,1069
8564,980,1070
8565,985,1071
8566,988,1075
8567,989,1074
8568,989,1076
8569,987,1074
8570,983,1076
8571,984,1078
8572,984,1079
8573,984,1079
8574,986,1080
8575,987,1079
8576,980,1078
8577,979,1080
8578,979,1082
8579,979,1083
8580,980,1080
8581,980,1078
8582,981,1079
8583,983,1080
8584,985,1084
8585,983,1083
8586,981,1084
8587,979,1083
8588,982,1083
8589,982,1086
8590,981,1087
8591,979,1085
8592,977,1086
8593,977,1082
8594,977,1084
8595,979,1086
8596,979,1085
8597,976,1086
8598,976,1084
8599,974,1080
8600,973,1082
8601,973,1083
8602,975,1085
8603,975,1083
8604,974,1082
8605,973,1080
8606,972,1079
8607,972,1082
8608,973,1084
8609,973,1082
8610,973,1081
8611,970,1082
8612,970,1079
8613,971,1081
8614,975,1082
8615,975,1080
8616,971,1078
8617,967,1075
8618,968,1076
8619,975,1076
8620,980,1079
8621,980,1077
8622,978,1076
8623,976,1074
8624,973,1074
8625,977,1077
8626,977,1079
8627,976,1078
8628,976,1075
8629,975,1075
8630,975,1075
8631,977,1078
8632,977,1080
8633,980,1078
8634,981,1076
8635,978,1074
8636,975,1073
8637,974,1075
8638,975,1079
8639,978,1076
8640,979,1074
8641,980,1072
8642,982,1073
8643,982,1072
8644,982,1074
8645,983,1075
8646,984,1070
8647,984,1072
8648,980,1072
8649,980,1073
8650,982,1077
