'sample #','V5','MLII'
0,1015,1027
1,1015,1027
2,1015,1027
3,1015,1027
4,1015,1027
5,1015,1027
6,1015,1027
7,1015,1027
8,1015,1027
9,1015,1032
10,1022,1037
11,1024,1038
12,1021,1039
13,1019,1040
14,1022,1045
15,1024,1051
16,1028,1056
17,1028,1056
18,1026,1057
19,1023,1058
20,1024,1065
21,1023,1066
22,1024,1069
23,1025,1068
24,1022,1066
25,1016,1061
26,1015,1062
27,1013,1063
28,1015,1063
29,1011,1060
30,1009,1053
31,1004,1049
32,1002,1047
33,999,1050
34,1003,1049
35,998,1044
36,995,1039
37,993,1035
38,989,1036
39,991,1036
40,991,1036
41,989,1034
42,988,1028
43,984,1029
44,979,1028
45,982,1029
46,983,1032
47,979,1028
48,980,1027
49,977,1023
50,977,1024
51,979,1027
52,978,1029
53,981,1028
54,981,1027
55,973,1023
56,975,1024
57,976,1025
58,976,1027
59,977,1025
60,975,1024
61,972,1023
62,975,1024
63,975,1026
64,978,1028
65,978,1022
66,978,1020
67,975,1020
68,974,1018
69,977,1024
70,978,1026
71,977,1022
72,977,1020
73,972,1017
74,970,1019
75,973,1019
76,978,1023
77,977,1022
78,978,1019
79,973,1016
80,973,1018
81,973,1021
82,976,1019
83,977,1020
84,974,1016
85,972,1016
86,972,1017
87,972,1019
88,976,1021
89,979,1018
90,977,1016
91,973,1015
92,973,1019
93,975,1020
94,979,1023
95,977,1022
96,977,1019
97,974,1017
98,972,1020
99,976,1023
100,981,1023
101,980,1022
102,977,1021
103,975,1020
104,977,1021
105,977,1024
106,978,1025
107,979,1023
108,978,1021
109,975,1021
110,973,1021
111,974,1026
112,979,1025
113,978,1024
114,975,1019
115,971,1020
116,973,1021
117,974,1024
118,975,1025
119,978,1024
120,976,1021
121,970,1020
122,970,1018
123,974,1024
124,976,1026
125,975,1024
126,973,1021
127,969,1020
128,970,1019
129,967,1022
130,971,1025
131,973,1024
132,970,1021
133,967,1020
134,967,1020
135,969,1023
136,971,1023
137,968,1021
138,970,1019
139,967,1017
140,966,1021
141,967,1021
142,971,1022
143,970,1021
144,970,1020
145,967,1018
146,967,1016
147,969,1018
148,971,1020
149,970,1020
150,966,1018
151,967,1016
152,964,1018
153,967,1019
154,969,1020
155,971,1018
156,969,1017
157,965,1017
158,966,1017
159,969,1018
160,970,1021
161,970,1019
162,967,1016
163,965,1013
164,965,1018
165,967,1018
166,967,1021
167,968,1018
168,967,1015
169,965,1015
170,962,1016
171,966,1016
172,969,1021
173,971,1018
174,967,1016
175,964,1015
176,966,1018
177,966,1020
178,968,1021
179,969,1018
180,967,1015
181,965,1015
182,967,1018
183,967,1017
184,967,1019
185,967,1017
186,967,1018
187,966,1013
188,965,1016
189,965,1019
190,970,1021
191,971,1021
192,969,1018
193,967,1015
194,965,1016
195,968,1018
196,970,1019
197,971,1018
198,970,1017
199,967,1014
200,967,1013
201,970,1016
202,972,1020
203,971,1019
204,971,1016
205,963,1014
206,965,1018
207,970,1020
208,970,1021
209,971,1021
210,969,1014
211,966,1014
212,965,1019
213,968,1021
214,971,1022
215,972,1020
216,971,1018
217,965,1018
218,966,1018
219,967,1020
220,968,1024
221,975,1022
222,970,1019
223,971,1016
224,970,1021
225,973,1022
226,976,1025
227,979,1026
228,977,1025
229,975,1024
230,976,1026
231,979,1031
232,985,1031
233,985,1028
234,985,1029
235,983,1026
236,983,1031
237,984,1033
238,988,1035
239,984,1034
240,980,1029
241,978,1028
242,978,1028
243,978,1027
244,977,1029
245,976,1027
246,975,1025
247,973,1023
248,972,1027
249,975,1030
250,978,1030
251,976,1031
252,975,1030
253,971,1029
254,976,1031
255,979,1035
256,979,1036
257,980,1030
258,979,1025
259,972,1023
260,971,1023
261,968,1025
262,969,1028
263,967,1025
264,964,1023
265,966,1023
266,966,1021
267,968,1023
268,972,1025
269,972,1023
270,964,1020
271,965,1020
272,963,1021
273,965,1023
274,967,1024
275,969,1021
276,965,1019
277,962,1018
278,963,1021
279,967,1023
280,969,1025
281,967,1023
282,966,1019
283,966,1018
284,961,1021
285,966,1022
286,968,1025
287,970,1024
288,966,1023
289,965,1020
290,964,1023
291,965,1027
292,968,1029
293,968,1029
294,969,1028
295,965,1030
296,966,1037
297,973,1046
298,976,1052
299,981,1062
300,985,1071
301,989,1081
302,991,1095
303,989,1121
304,977,1151
305,963,1184
306,954,1217
307,943,1249
308,927,1289
309,916,1331
310,915,1376
311,930,1420
312,956,1434
313,988,1400
314,1012,1304
315,1015,1178
316,981,1080
317,921,1026
318,879,1010
319,870,1013
320,886,1019
321,918,1023
322,947,1024
323,963,1023
324,966,1016
325,967,1011
326,969,1009
327,970,1012
328,975,1010
329,974,1010
330,974,1006
331,975,1002
332,977,1005
333,979,1006
334,984,1009
335,982,1008
336,984,1005
337,980,1003
338,981,1008
339,982,1006
340,986,1007
341,986,1006
342,986,1003
343,983,1003
344,983,1003
345,984,1006
346,989,1007
347,989,1004
348,987,999
349,983,997
350,984,1001
351,986,1002
352,991,1005
353,990,1000
354,988,995
355,985,999
356,985,1000
357,988,999
358,988,1003
359,990,1001
360,989,997
361,987,995
362,988,999
363,990,999
364,992,1001
365,992,1001
366,987,998
367,990,998
368,988,1000
369,991,999
370,996,1002
371,998,1001
372,999,999
373,996,999
374,995,1003
375,997,1003
376,998,1005
377,1001,1003
378,999,999
379,1000,1001
380,1000,1002
381,1000,1005
382,1002,1007
383,1005,1007
384,1004,1003
385,1003,1004
386,1002,1005
387,1004,1012
388,1009,1012
389,1009,1013
390,1007,1012
391,1010,1010
392,1008,1016
393,1012,1019
394,1016,1023
395,1018,1024
396,1017,1023
397,1016,1025
398,1018,1030
399,1022,1035
400,1023,1043
401,1025,1042
402,1025,1043
403,1023,1044
404,1023,1050
405,1026,1056
406,1029,1062
407,1029,1062
408,1024,1060
409,1022,1061
410,1022,1065
411,1020,1070
412,1026,1072
413,1026,1071
414,1022,1068
415,1018,1067
416,1017,1067
417,1016,1067
418,1017,1069
419,1013,1066
420,1011,1060
421,1008,1055
422,1004,1056
423,1005,1056
424,1005,1055
425,1001,1051
426,998,1046
427,994,1043
428,991,1042
429,991,1044
430,991,1042
431,988,1039
432,988,1037
433,982,1032
434,984,1035
435,984,1036
436,986,1038
437,985,1034
438,981,1031
439,980,1029
440,980,1032
441,981,1033
442,982,1033
443,981,1031
444,979,1028
445,978,1027
446,974,1027
447,977,1030
448,980,1034
449,979,1030
450,977,1028
451,975,1026
452,975,1029
453,976,1031
454,979,1029
455,980,1027
456,975,1027
457,971,1024
458,975,1027
459,975,1027
460,977,1028
461,977,1026
462,976,1023
463,971,1023
464,971,1023
465,973,1026
466,977,1030
467,979,1025
468,975,1022
469,972,1023
470,972,1021
471,973,1024
472,976,1025
473,975,1024
474,974,1020
475,971,1020
476,973,1022
477,973,1027
478,975,1027
479,977,1023
480,974,1023
481,971,1022
482,972,1022
483,974,1026
484,977,1028
485,978,1026
486,976,1024
487,973,1022
488,974,1024
489,976,1027
490,980,1027
491,980,1025
492,976,1024
493,976,1024
494,976,1027
495,976,1029
496,979,1028
497,979,1026
498,977,1023
499,977,1024
500,975,1026
501,978,1030
502,980,1030
503,981,1028
504,978,1027
505,976,1026
506,973,1026
507,975,1031
508,980,1031
509,978,1030
510,976,1028
511,973,1025
512,972,1027
513,975,1029
514,976,1030
515,977,1028
516,973,1025
517,971,1023
518,970,1025
519,974,1026
520,977,1028
521,976,1027
522,974,1024
523,972,1022
524,972,1023
525,974,1026
526,976,1030
527,976,1024
528,973,1025
529,971,1021
530,970,1023
531,971,1027
532,974,1030
533,973,1026
534,968,1023
535,966,1020
536,968,1023
537,968,1024
538,972,1027
539,971,1025
540,969,1022
541,967,1021
542,967,1022
543,971,1024
544,974,1027
545,973,1023
546,970,1020
547,968,1018
548,968,1023
549,971,1024
550,975,1023
551,972,1024
552,971,1023
553,970,1021
554,970,1022
555,972,1022
556,973,1025
557,974,1023
558,970,1022
559,970,1022
560,968,1023
561,970,1023
562,971,1023
563,972,1022
564,967,1019
565,967,1020
566,967,1020
567,967,1022
568,972,1023
569,969,1023
570,969,1020
571,968,1018
572,969,1021
573,969,1022
574,971,1025
575,974,1024
576,970,1020
577,969,1022
578,966,1020
579,970,1024
580,971,1024
581,971,1023
582,970,1020
583,965,1018
584,965,1021
585,967,1024
586,971,1024
587,972,1023
588,970,1022
589,967,1019
590,962,1019
591,966,1021
592,970,1023
593,970,1023
594,968,1019
595,965,1018
596,965,1022
597,967,1025
598,969,1023
599,970,1022
600,968,1019
601,967,1017
602,964,1022
603,970,1024
604,969,1024
605,968,1023
606,969,1019
607,968,1018
608,967,1019
609,970,1022
610,973,1024
611,973,1023
612,971,1020
613,970,1020
614,966,1020
615,972,1024
616,975,1024
617,973,1023
618,971,1019
619,967,1018
620,967,1020
621,971,1023
622,975,1026
623,973,1023
624,970,1021
625,969,1018
626,967,1023
627,970,1022
628,973,1024
629,974,1024
630,972,1021
631,970,1020
632,970,1025
633,972,1025
634,978,1024
635,976,1024
636,975,1022
637,975,1022
638,976,1029
639,981,1029
640,985,1032
641,984,1032
642,982,1028
643,982,1027
644,983,1030
645,985,1033
646,988,1034
647,989,1036
648,989,1033
649,986,1030
650,984,1034
651,985,1035
652,987,1038
653,987,1033
654,981,1027
655,980,1024
656,977,1029
657,978,1029
658,980,1029
659,979,1032
660,976,1030
661,975,1028
662,977,1030
663,975,1034
664,982,1035
665,980,1035
666,978,1030
667,976,1029
668,977,1032
669,979,1033
670,982,1031
671,982,1026
672,979,1021
673,975,1022
674,968,1023
675,970,1026
676,972,1026
677,969,1024
678,968,1023
679,967,1022
680,968,1025
681,971,1026
682,972,1024
683,973,1024
684,968,1021
685,969,1019
686,968,1021
687,971,1024
688,973,1024
689,972,1021
690,969,1022
691,968,1022
692,968,1023
693,970,1024
694,974,1026
695,973,1022
696,970,1019
697,967,1020
698,967,1022
699,970,1026
700,974,1025
701,974,1024
702,971,1024
703,970,1021
704,969,1021
705,972,1027
706,973,1029
707,975,1028
708,975,1027
709,975,1031
710,976,1040
711,979,1049
712,984,1055
713,988,1066
714,990,1072
715,994,1084
716,996,1101
717,991,1122
718,981,1149
719,974,1177
720,963,1203
721,953,1231
722,943,1264
723,932,1294
724,923,1327
725,923,1361
726,932,1397
727,943,1427
728,965,1430
729,994,1407
730,1019,1349
731,1029,1254
732,1017,1163
733,983,1091
734,938,1046
735,904,1025
736,890,1015
737,889,1011
738,898,1010
739,907,1015
740,924,1018
741,951,1021
742,969,1021
743,972,1018
744,974,1011
745,974,1008
746,976,1007
747,978,1006
748,983,1006
749,982,1006
750,982,1002
751,978,1000
752,981,1004
753,985,1002
754,988,1004
755,988,1001
756,989,1001
757,987,1000
758,987,1002
759,991,1005
760,993,1003
761,993,1001
762,991,997
763,990,997
764,990,999
765,993,1002
766,993,1001
767,998,1000
768,993,999
769,991,997
770,990,996
771,994,1000
772,998,999
773,996,996
774,994,994
775,991,992
776,991,995
777,993,998
778,996,997
779,996,996
780,995,990
781,994,991
782,993,992
783,996,994
784,1000,996
785,998,994
786,997,991
787,997,991
788,993,992
789,996,994
790,1002,994
791,998,993
792,997,991
793,999,992
794,999,994
795,1001,996
796,1004,996
797,1003,994
798,1003,991
799,1000,990
800,1001,993
801,1001,998
802,1005,1000
803,1008,997
804,1002,995
805,1003,993
806,1002,996
807,1006,1000
808,1010,998
809,1011,997
810,1009,996
811,1008,997
812,1007,998
813,1013,1003
814,1015,1003
815,1016,1003
816,1016,1002
817,1016,1002
818,1014,1003
819,1020,1010
820,1023,1012
821,1024,1012
822,1023,1011
823,1021,1014
824,1022,1018
825,1024,1024
826,1029,1026
827,1029,1027
828,1028,1026
829,1026,1028
830,1026,1034
831,1030,1037
832,1034,1041
833,1032,1044
834,1030,1044
835,1029,1047
836,1032,1051
837,1036,1057
838,1040,1058
839,1038,1061
840,1035,1060
841,1031,1059
842,1034,1064
843,1033,1064
844,1033,1068
845,1031,1066
846,1028,1063
847,1023,1060
848,1021,1060
849,1023,1061
850,1023,1057
851,1020,1054
852,1017,1051
853,1011,1045
854,1007,1046
855,1008,1047
856,1010,1043
857,1005,1041
858,1002,1036
859,996,1034
860,997,1032
861,998,1035
862,999,1035
863,996,1033
864,994,1030
865,994,1027
866,993,1030
867,995,1031
868,994,1030
869,995,1029
870,989,1025
871,990,1026
872,989,1027
873,993,1029
874,994,1027
875,992,1025
876,991,1023
877,989,1023
878,987,1024
879,988,1027
880,990,1027
881,992,1027
882,987,1022
883,986,1021
884,984,1022
885,984,1021
886,989,1024
887,987,1022
888,985,1020
889,984,1021
890,984,1020
891,989,1025
892,990,1023
893,985,1021
894,987,1016
895,986,1018
896,985,1019
897,985,1022
898,990,1022
899,989,1019
900,988,1017
901,986,1018
902,985,1017
903,985,1020
904,986,1020
905,987,1019
906,985,1016
907,981,1013
908,981,1017
909,983,1021
910,986,1018
911,983,1017
912,981,1013
913,980,1016
914,981,1018
915,983,1020
916,987,1022
917,986,1021
918,985,1018
919,984,1017
920,981,1018
921,983,1020
922,986,1023
923,987,1020
924,985,1016
925,984,1018
926,982,1019
927,986,1024
928,990,1022
929,988,1021
930,984,1019
931,984,1019
932,982,1022
933,981,1023
934,987,1024
935,985,1023
936,984,1019
937,979,1020
938,979,1022
939,981,1022
940,983,1023
941,982,1024
942,978,1021
943,977,1019
944,978,1021
945,982,1024
946,983,1022
947,982,1021
948,978,1020
949,976,1019
950,977,1021
951,980,1024
952,983,1024
953,981,1020
954,980,1018
955,978,1017
956,975,1020
957,979,1022
958,979,1023
959,978,1022
960,977,1016
961,975,1016
962,973,1016
963,973,1019
964,975,1021
965,974,1019
966,973,1016
967,970,1017
968,971,1019
969,973,1021
970,977,1019
971,975,1018
972,974,1014
973,971,1015
974,972,1017
975,974,1019
976,974,1018
977,972,1020
978,970,1013
979,970,1013
980,969,1016
981,973,1018
982,975,1017
983,973,1014
984,971,1016
985,966,1014
986,968,1017
987,970,1021
988,972,1019
989,970,1017
990,968,1014
991,967,1015
992,965,1016
993,970,1021
994,973,1020
995,970,1019
996,969,1016
997,966,1013
998,968,1016
999,975,1016
1000,970,1016
1001,967,1015
1002,968,1014
1003,966,1016
1004,971,1019
1005,973,1018
1006,972,1019
1007,969,1016
1008,966,1016
1009,969,1016
1010,968,1022
1011,969,1021
1012,971,1018
1013,969,1015
1014,966,1016
1015,966,1018
1016,966,1020
1017,970,1019
1018,971,1018
1019,966,1017
1020,965,1015
1021,966,1019
1022,968,1023
1023,972,1022
1024,971,1019
1025,969,1017
1026,964,1018
1027,966,1018
1028,970,1020
1029,970,1021
1030,969,1017
1031,968,1016
1032,967,1016
1033,963,1019
1034,970,1023
1035,974,1021
1036,971,1020
1037,968,1016
1038,965,1014
1039,966,1016
1040,967,1021
1041,970,1022
1042,972,1020
1043,968,1019
1044,965,1015
1045,966,1018
1046,968,1022
1047,974,1024
1048,971,1021
1049,970,1018
1050,968,1020
1051,968,1021
1052,974,1023
1053,977,1023
1054,974,1024
1055,973,1022
1056,974,1023
1057,976,1027
1058,980,1028
1059,984,1029
1060,977,1030
1061,979,1026
1062,975,1025
1063,977,1030
1064,981,1032
1065,985,1033
1066,986,1032
1067,984,1031
1068,979,1030
1069,979,1031
1070,978,1033
1071,981,1031
1072,977,1027
1073,976,1027
1074,973,1025
1075,971,1028
1076,974,1031
1077,975,1032
1078,978,1027
1079,976,1028
1080,973,1027
1081,976,1032
1082,975,1034
1083,980,1032
1084,979,1032
1085,979,1029
1086,978,1025
1087,977,1024
1088,977,1025
1089,975,1025
1090,970,1020
1091,967,1020
1092,963,1020
1093,963,1021
1094,968,1024
1095,970,1023
1096,968,1023
1097,968,1021
1098,965,1018
1099,966,1021
1100,968,1024
1101,970,1024
1102,967,1022
1103,966,1019
1104,966,1018
1105,967,1021
1106,967,1023
1107,970,1023
1108,972,1023
1109,970,1020
1110,966,1021
1111,966,1021
1112,968,1022
1113,972,1025
1114,970,1019
1115,968,1019
1116,965,1018
1117,967,1021
1118,968,1024
1119,972,1023
1120,967,1023
1121,968,1019
1122,968,1020
1123,969,1021
1124,972,1029
1125,975,1030
1126,974,1032
1127,973,1034
1128,975,1039
1129,978,1048
1130,984,1062
1131,990,1070
1132,996,1079
1133,994,1086
1134,991,1100
1135,977,1127
1136,966,1159
1137,962,1187
1138,951,1214
1139,939,1239
1140,919,1265
1141,906,1297
1142,905,1336
1143,915,1379
1144,935,1409
1145,957,1412
1146,981,1389
1147,1005,1333
1148,1019,1255
1149,1017,1170
1150,990,1099
1151,949,1050
1152,906,1024
1153,888,1014
1154,887,1012
1155,895,1014
1156,904,1017
1157,917,1015
1158,935,1014
1159,952,1015
1160,964,1015
1161,970,1019
1162,970,1013
1163,970,1009
1164,971,1006
1165,972,1003
1166,975,1007
1167,977,1006
1168,977,1002
1169,974,1002
1170,975,1001
1171,978,1002
1172,976,1007
1173,984,1007
1174,984,1000
1175,981,1000
1176,981,998
1177,978,1002
1178,985,1002
1179,986,1004
1180,988,1002
1181,984,999
1182,981,999
1183,985,1000
1184,987,1000
1185,989,1000
1186,991,1002
1187,987,998
1188,983,995
1189,987,998
1190,988,1000
1191,990,1001
1192,991,997
1193,988,995
1194,985,994
1195,985,998
1196,989,1000
1197,992,999
1198,990,996
1199,991,995
1200,986,995
1201,988,995
1202,990,1000
1203,991,997
1204,995,998
1205,990,994
1206,987,995
1207,989,997
1208,990,1000
1209,994,998
1210,994,997
1211,992,994
1212,990,993
1213,992,995
1214,993,997
1215,998,1001
1216,997,999
1217,994,995
1218,995,994
1219,994,995
1220,998,998
1221,999,1000
1222,1000,1000
1223,999,997
1224,998,998
1225,998,1001
1226,999,1004
1227,1004,1003
1228,1004,1001
1229,1002,1000
1230,1000,1000
1231,1002,1004
1232,1005,1006
1233,1007,1008
1234,1008,1007
1235,1007,1008
1236,1006,1008
1237,1008,1010
1238,1011,1013
1239,1014,1014
1240,1016,1014
1241,1016,1015
1242,1013,1018
1243,1016,1020
1244,1019,1025
1245,1020,1027
1246,1020,1028
1247,1021,1030
1248,1021,1031
1249,1022,1036
1250,1023,1042
1251,1028,1045
1252,1025,1044
1253,1021,1048
1254,1020,1048
1255,1022,1054
1256,1024,1060
1257,1025,1063
1258,1026,1061
1259,1025,1062
1260,1021,1063
1261,1023,1066
1262,1024,1068
1263,1021,1066
1264,1020,1067
1265,1017,1063
1266,1011,1060
1267,1008,1064
1268,1010,1060
1269,1010,1059
1270,1008,1056
1271,1006,1051
1272,1000,1048
1273,999,1050
1274,1001,1049
1275,1001,1049
1276,997,1044
1277,994,1039
1278,988,1037
1279,987,1038
1280,990,1040
1281,991,1040
1282,990,1037
1283,987,1032
1284,985,1033
1285,985,1034
1286,987,1035
1287,987,1035
1288,988,1032
1289,983,1028
1290,979,1031
1291,981,1034
1292,985,1034
1293,987,1035
1294,986,1030
1295,982,1027
1296,978,1027
1297,980,1029
1298,983,1034
1299,986,1032
1300,985,1031
1301,981,1027
1302,980,1027
1303,978,1027
1304,979,1029
1305,982,1029
1306,981,1027
1307,980,1026
1308,979,1024
1309,979,1024
1310,981,1029
1311,982,1027
1312,980,1025
1313,980,1021
1314,976,1019
1315,977,1025
1316,977,1026
1317,986,1028
1318,981,1024
1319,980,1022
1320,977,1018
1321,982,1020
1322,979,1023
1323,980,1024
1324,984,1021
1325,980,1019
1326,977,1022
1327,979,1022
1328,981,1025
1329,985,1023
1330,987,1020
1331,983,1021
1332,980,1020
1333,982,1022
1334,983,1026
1335,987,1028
1336,985,1026
1337,982,1023
1338,979,1023
1339,980,1024
1340,980,1026
1341,983,1028
1342,984,1027
1343,982,1024
1344,982,1023
1345,982,1025
1346,983,1029
1347,986,1028
1348,984,1026
1349,982,1023
1350,979,1023
1351,980,1026
1352,983,1030
1353,984,1028
1354,985,1026
1355,981,1022
1356,980,1025
1357,976,1023
1358,978,1026
1359,981,1027
1360,981,1024
1361,977,1022
1362,975,1023
1363,975,1024
1364,979,1026
1365,979,1025
1366,978,1023
1367,977,1020
1368,975,1021
1369,975,1021
1370,980,1024
1371,978,1025
1372,980,1022
1373,976,1019
1374,974,1020
1375,974,1023
1376,976,1025
1377,977,1022
1378,977,1022
1379,973,1017
1380,975,1018
1381,972,1017
1382,975,1021
1383,976,1021
1384,975,1020
1385,972,1015
1386,970,1016
1387,968,1018
1388,973,1021
1389,975,1021
1390,975,1016
1391,971,1016
1392,966,1016
1393,969,1019
1394,970,1020
1395,974,1021
1396,973,1019
1397,972,1017
1398,970,1016
1399,969,1018
1400,970,1020
1401,974,1019
1402,974,1019
1403,970,1016
1404,966,1017
1405,969,1019
1406,972,1020
1407,975,1021
1408,974,1020
1409,971,1015
1410,965,1014
1411,966,1018
1412,971,1021
1413,973,1022
1414,971,1018
1415,967,1013
1416,964,1017
1417,965,1017
1418,971,1020
1419,972,1019
1420,973,1020
1421,972,1017
1422,970,1014
1423,970,1018
1424,972,1020
1425,974,1019
1426,973,1020
1427,973,1017
1428,971,1017
1429,968,1019
1430,972,1021
1431,976,1021
1432,975,1019
1433,973,1016
1434,968,1015
1435,969,1018
1436,970,1021
1437,973,1022
1438,976,1020
1439,972,1017
1440,970,1015
1441,969,1017
1442,971,1021
1443,973,1022
1444,972,1022
1445,970,1018
1446,970,1017
1447,970,1019
1448,970,1020
1449,975,1021
1450,975,1020
1451,973,1014
1452,971,1017
1453,971,1019
1454,973,1019
1455,978,1021
1456,974,1017
1457,974,1016
1458,973,1015
1459,970,1019
1460,973,1022
1461,975,1022
1462,975,1019
1463,972,1016
1464,969,1017
1465,969,1020
1466,973,1021
1467,976,1023
1468,974,1020
1469,974,1020
1470,972,1019
1471,970,1022
1472,976,1022
1473,981,1025
1474,982,1023
1475,981,1023
1476,981,1026
1477,980,1027
1478,984,1031
1479,987,1029
1480,987,1026
1481,985,1029
1482,986,1028
1483,985,1028
1484,989,1031
1485,989,1031
1486,988,1031
1487,984,1027
1488,983,1024
1489,981,1026
1490,979,1026
1491,981,1027
1492,977,1026
1493,977,1022
1494,976,1024
1495,975,1025
1496,979,1031
1497,979,1031
1498,981,1029
1499,983,1027
1500,981,1024
1501,982,1023
1502,982,1023
1503,979,1018
1504,975,1019
1505,970,1016
1506,966,1018
1507,969,1019
1508,970,1020
1509,975,1018
1510,973,1016
1511,971,1015
1512,968,1016
1513,968,1017
1514,970,1021
1515,973,1020
1516,973,1019
1517,969,1014
1518,968,1015
1519,968,1017
1520,969,1020
1521,972,1019
1522,971,1019
1523,969,1015
1524,968,1014
1525,968,1018
1526,972,1020
1527,974,1019
1528,974,1018
1529,969,1017
1530,969,1015
1531,969,1018
1532,972,1021
1533,975,1022
1534,973,1023
1535,973,1020
1536,969,1023
1537,972,1031
1538,977,1037
1539,982,1046
1540,985,1053
1541,985,1064
1542,987,1077
1543,995,1091
1544,993,1115
1545,986,1146
1546,972,1177
1547,961,1205
1548,953,1240
1549,941,1273
1550,931,1307
1551,924,1339
1552,926,1380
1553,939,1413
1554,957,1431
1555,986,1421
1556,1011,1371
1557,1027,1284
1558,1022,1180
1559,993,1101
1560,949,1050
1561,909,1026
1562,891,1016
1563,893,1015
1564,898,1013
1565,909,1013
1566,922,1016
1567,949,1015
1568,965,1017
1569,971,1014
1570,973,1012
1571,973,1002
1572,970,1000
1573,970,999
1574,974,1002
1575,978,1002
1576,980,998
1577,979,997
1578,977,996
1579,977,998
1580,983,1000
1581,985,998
1582,985,995
1583,984,992
1584,983,995
1585,984,995
1586,987,998
1587,990,998
1588,989,996
1589,987,994
1590,984,994
1591,985,995
1592,986,998
1593,990,996
1594,988,995
1595,984,992
1596,984,989
1597,987,992
1598,988,993
1599,992,994
1600,991,989
1601,988,989
1602,987,989
1603,990,991
1604,992,993
1605,994,994
1606,994,990
1607,992,986
1608,991,987
1609,990,989
1610,993,990
1611,997,992
1612,995,991
1613,993,989
1614,992,986
1615,994,990
1616,995,993
1617,997,993
1618,997,994
1619,993,988
1620,996,988
1621,996,990
1622,998,993
1623,1000,992
1624,999,991
1625,998,989
1626,996,992
1627,997,993
1628,1003,995
1629,1008,997
1630,1007,995
1631,1003,992
1632,1003,992
1633,1004,996
1634,1004,998
1635,1011,1000
1636,1012,1000
1637,1009,994
1638,1008,998
1639,1010,1001
1640,1012,1003
1641,1017,1003
1642,1016,1002
1643,1015,1002
1644,1012,1007
1645,1017,1008
1646,1020,1015
1647,1023,1015
1648,1022,1015
1649,1024,1014
1650,1024,1019
1651,1023,1024
1652,1029,1031
1653,1031,1033
1654,1032,1033
1655,1031,1034
1656,1029,1037
1657,1029,1043
1658,1032,1050
1659,1035,1052
1660,1036,1053
1661,1032,1052
1662,1034,1057
1663,1033,1061
1664,1036,1065
1665,1036,1066
1666,1034,1066
1667,1030,1060
1668,1026,1062
1669,1025,1063
1670,1027,1063
1671,1025,1062
1672,1024,1060
1673,1017,1054
1674,1014,1052
1675,1012,1051
1676,1014,1051
1677,1014,1049
1678,1010,1046
1679,1006,1041
1680,1004,1038
1681,999,1040
1682,1004,1038
1683,1003,1038
1684,1000,1032
1685,996,1030
1686,994,1030
1687,992,1028
1688,997,1032
1689,996,1031
1690,994,1026
1691,992,1027
1692,990,1024
1693,989,1026
1694,988,1030
1695,994,1029
1696,993,1026
1697,991,1023
1698,987,1024
1699,988,1026
1700,990,1027
1701,988,1027
1702,991,1024
1703,987,1021
1704,985,1023
1705,986,1026
1706,987,1029
1707,992,1027
1708,989,1025
1709,987,1021
1710,983,1021
1711,987,1024
1712,991,1023
1713,990,1023
1714,989,1022
1715,988,1019
1716,985,1019
1717,988,1019
1718,988,1020
1719,990,1021
1720,987,1018
1721,985,1018
1722,985,1017
1723,987,1017
1724,989,1022
1725,989,1020
1726,989,1017
1727,985,1016
1728,981,1016
1729,985,1017
1730,989,1019
1731,990,1018
1732,987,1017
1733,985,1016
1734,984,1016
1735,985,1018
1736,990,1020
1737,990,1018
1738,990,1017
1739,988,1016
1740,986,1015
1741,987,1020
1742,989,1021
1743,992,1019
1744,990,1018
1745,991,1016
1746,987,1017
1747,986,1019
1748,991,1023
1749,992,1023
1750,991,1021
1751,989,1018
1752,986,1019
1753,987,1020
1754,988,1024
1755,992,1026
1756,991,1023
1757,989,1020
1758,986,1021
1759,988,1022
1760,992,1026
1761,994,1025
1762,992,1023
1763,989,1020
1764,986,1020
1765,986,1023
1766,987,1026
1767,990,1026
1768,990,1026
1769,985,1022
1770,984,1021
1771,985,1022
1772,984,1024
1773,988,1024
1774,987,1025
1775,985,1021
1776,981,1020
1777,984,1022
1778,984,1023
1779,987,1023
1780,983,1023
1781,985,1022
1782,980,1019
1783,978,1021
1784,982,1024
1785,984,1023
1786,983,1022
1787,982,1019
1788,980,1022
1789,982,1020
1790,985,1025
1791,987,1022
1792,983,1022
1793,981,1019
1794,979,1018
1795,980,1020
1796,985,1022
1797,984,1022
1798,984,1021
1799,978,1019
1800,978,1015
1801,979,1022
1802,979,1021
1803,979,1020
1804,983,1020
1805,980,1018
1806,975,1016
1807,978,1023
1808,978,1024
1809,980,1024
1810,982,1022
1811,980,1017
1812,977,1019
1813,979,1020
1814,980,1025
1815,983,1023
1816,983,1023
1817,980,1020
1818,979,1018
1819,976,1023
1820,982,1024
1821,983,1024
1822,981,1023
1823,981,1018
1824,979,1019
1825,980,1022
1826,982,1024
1827,981,1025
1828,983,1021
1829,978,1020
1830,977,1018
1831,977,1022
1832,980,1025
1833,982,1024
1834,981,1025
1835,981,1020
1836,978,1020
1837,977,1021
1838,979,1025
1839,982,1024
1840,982,1023
1841,980,1020
1842,977,1018
1843,977,1023
1844,977,1026
1845,981,1022
1846,981,1020
1847,976,1021
1848,975,1020
1849,976,1024
1850,979,1025
1851,982,1025
1852,983,1022
1853,978,1019
1854,978,1021
1855,977,1020
1856,983,1025
1857,984,1025
1858,980,1023
1859,980,1020
1860,976,1020
1861,979,1024
1862,984,1024
1863,982,1024
1864,983,1023
1865,980,1018
1866,977,1020
1867,979,1023
1868,978,1023
1869,980,1022
1870,983,1019
1871,980,1018
1872,980,1019
1873,984,1023
1874,987,1027
1875,990,1027
1876,990,1026
1877,989,1026
1878,989,1026
1879,990,1028
1880,994,1032
1881,998,1034
1882,995,1030
1883,992,1030
1884,992,1032
1885,993,1032
1886,995,1036
1887,998,1036
1888,997,1033
1889,994,1031
1890,992,1030
1891,991,1034
1892,994,1035
1893,994,1033
1894,990,1028
1895,987,1023
1896,982,1024
1897,983,1027
1898,986,1027
1899,989,1029
1900,988,1029
1901,983,1026
1902,982,1028
1903,982,1030
1904,986,1037
1905,990,1033
1906,991,1032
1907,988,1029
1908,987,1031
1909,988,1028
1910,991,1027
1911,990,1025
1912,984,1021
1913,978,1021
1914,977,1021
1915,978,1023
1916,981,1027
1917,983,1028
1918,981,1026
1919,978,1022
1920,973,1021
1921,973,1022
1922,975,1025
1923,982,1026
1924,982,1024
1925,977,1021
1926,975,1020
1927,976,1020
1928,976,1023
1929,982,1024
1930,980,1022
1931,976,1019
1932,977,1020
1933,977,1021
1934,982,1022
1935,982,1024
1936,981,1023
1937,978,1018
1938,977,1020
1939,976,1024
1940,979,1026
1941,981,1025
1942,980,1025
1943,980,1024
1944,978,1023
1945,978,1025
1946,983,1031
1947,984,1034
1948,985,1037
1949,985,1040
1950,984,1046
1951,987,1057
1952,995,1071
1953,1003,1082
1954,1008,1087
1955,1006,1099
1956,998,1123
1957,987,1154
1958,979,1187
1959,977,1218
1960,969,1246
1961,956,1273
1962,941,1300
1963,933,1332
1964,934,1375
1965,947,1415
1966,965,1437
1967,988,1436
1968,1007,1403
1969,1029,1334
1970,1039,1244
1971,1026,1151
1972,986,1079
1973,939,1038
1974,905,1018
1975,895,1014
1976,901,1017
1977,912,1019
1978,924,1017
1979,939,1016
1980,958,1017
1981,976,1017
1982,983,1017
1983,986,1016
1984,988,1009
1985,987,1007
1986,984,1004
1987,985,1003
1988,990,1005
1989,990,1002
1990,995,1001
1991,991,999
1992,992,1000
1993,993,1002
1994,997,1003
1995,1001,1001
1996,1000,1000
1997,998,999
1998,994,997
1999,996,1002
2000,998,1004
2001,1001,1003
2002,1003,1001
2003,1001,997
2004,998,998
2005,999,999
2006,1003,1002
2007,1005,1001
2008,1004,997
2009,1000,995
2010,1000,996
2011,999,1000
2012,1004,1002
2013,1005,999
2014,1004,995
2015,1004,994
2016,1000,994
2017,1004,998
2018,1004,998
2019,1008,1001
2020,1006,995
2021,1001,994
2022,1000,997
2023,1005,997
2024,1007,1000
2025,1005,998
2026,1006,997
2027,1003,996
2028,1004,995
2029,1005,998
2030,1009,999
2031,1009,999
2032,1010,998
2033,1005,993
2034,1005,995
2035,1009,1000
2036,1011,1000
2037,1013,1000
2038,1012,1000
2039,1008,996
2040,1005,997
2041,1009,1000
2042,1014,1004
2043,1016,1001
2044,1018,1001
2045,1017,1000
2046,1012,1001
2047,1015,1003
2048,1015,1006
2049,1019,1005
2050,1022,1005
2051,1020,1004
2052,1018,1003
2053,1020,1007
2054,1023,1010
2055,1029,1009
2056,1023,1010
2057,1025,1010
2058,1026,1012
2059,1026,1016
2060,1031,1023
2061,1032,1025
2062,1033,1024
2063,1031,1024
2064,1033,1028
2065,1036,1033
2066,1039,1040
2067,1042,1039
2068,1042,1043
2069,1040,1043
2070,1039,1049
2071,1040,1056
2072,1044,1058
2073,1047,1061
2074,1045,1063
2075,1044,1066
2076,1042,1067
2077,1041,1071
2078,1044,1077
2079,1044,1075
2080,1043,1074
2081,1038,1071
2082,1034,1071
2083,1035,1071
2084,1036,1072
2085,1037,1070
2086,1031,1066
2087,1028,1060
2088,1023,1058
2089,1022,1057
2090,1022,1060
2091,1019,1055
2092,1017,1050
2093,1012,1045
2094,1008,1043
2095,1006,1044
2096,1007,1043
2097,1007,1041
2098,1006,1038
2099,1001,1035
2100,998,1036
2101,1000,1037
2102,1001,1039
2103,1003,1036
2104,1000,1034
2105,997,1031
2106,997,1034
2107,996,1033
2108,996,1037
2109,998,1035
2110,1000,1035
2111,994,1033
2112,993,1030
2113,991,1034
2114,994,1034
2115,997,1034
2116,994,1034
2117,991,1029
2118,991,1028
2119,989,1031
2120,992,1031
2121,993,1031
2122,996,1029
2123,990,1025
2124,987,1027
2125,989,1030
2126,993,1032
2127,995,1030
2128,993,1027
2129,990,1023
2130,989,1025
2131,991,1026
2132,992,1031
2133,996,1030
2134,992,1027
2135,991,1023
2136,989,1025
2137,988,1026
2138,994,1028
2139,995,1029
2140,993,1026
2141,990,1022
2142,987,1024
2143,989,1025
2144,993,1027
2145,994,1028
2146,994,1028
2147,990,1026
2148,991,1028
2149,992,1029
2150,993,1032
2151,994,1030
2152,995,1029
2153,992,1025
2154,989,1027
2155,991,1030
2156,994,1034
2157,995,1030
2158,996,1030
2159,992,1025
2160,992,1028
2161,991,1030
2162,993,1031
2163,997,1029
2164,993,1029
2165,992,1027
2166,988,1027
2167,989,1027
2168,988,1031
2169,992,1030
2170,990,1028
2171,990,1026
2172,988,1027
2173,989,1029
2174,992,1029
2175,992,1029
2176,989,1028
2177,988,1027
2178,983,1026
2179,984,1027
2180,987,1030
2181,990,1031
2182,988,1025
2183,986,1024
2184,982,1025
2185,983,1027
2186,986,1029
2187,988,1028
2188,990,1027
2189,985,1025
2190,983,1024
2191,983,1027
2192,983,1028
2193,987,1026
2194,986,1027
2195,985,1023
2196,983,1025
2197,984,1026
2198,985,1029
2199,988,1028
2200,986,1025
2201,982,1022
2202,982,1024
2203,983,1024
2204,984,1028
2205,987,1027
2206,987,1026
2207,982,1021
2208,979,1021
2209,985,1025
2210,986,1027
2211,988,1026
2212,985,1027
2213,984,1022
2214,980,1023
2215,982,1025
2216,983,1026
2217,986,1024
2218,984,1023
2219,980,1022
2220,978,1024
2221,980,1024
2222,983,1027
2223,986,1029
2224,984,1023
2225,982,1022
2226,980,1020
2227,979,1024
2228,980,1027
2229,982,1026
2230,983,1026
2231,981,1023
2232,979,1023
2233,978,1024
2234,983,1027
2235,985,1026
2236,982,1023
2237,982,1021
2238,977,1023
2239,980,1026
2240,983,1027
2241,981,1029
2242,978,1027
2243,979,1022
2244,975,1022
2245,977,1025
2246,981,1027
2247,983,1028
2248,981,1024
2249,979,1023
2250,977,1023
2251,976,1026
2252,980,1028
2253,984,1026
2254,981,1026
2255,978,1024
2256,979,1025
2257,979,1025
2258,981,1028
2259,984,1028
2260,982,1026
2261,981,1022
2262,980,1024
2263,979,1027
2264,983,1028
2265,984,1029
2266,983,1026
2267,983,1024
2268,976,1025
2269,982,1028
2270,983,1033
2271,988,1030
2272,989,1028
2273,988,1026
2274,987,1031
2275,988,1035
2276,991,1037
2277,996,1037
2278,994,1035
2279,991,1033
2280,990,1035
2281,992,1038
2282,999,1041
2283,1000,1041
2284,1000,1039
2285,996,1038
2286,995,1039
2287,994,1042
2288,995,1043
2289,995,1040
2290,994,1035
2291,989,1034
2292,985,1033
2293,984,1034
2294,985,1039
2295,988,1040
2296,986,1041
2297,983,1034
2298,981,1038
2299,984,1036
2300,986,1040
2301,992,1039
2302,993,1038
2303,989,1036
2304,989,1036
2305,987,1035
2306,992,1035
2307,992,1033
2308,986,1028
2309,980,1025
2310,979,1026
2311,978,1029
2312,981,1031
2313,984,1029
2314,982,1028
2315,982,1025
2316,978,1025
2317,976,1027
2318,980,1029
2319,981,1028
2320,978,1025
2321,973,1023
2322,974,1024
2323,976,1027
2324,981,1030
2325,982,1027
2326,980,1024
2327,977,1023
2328,975,1023
2329,977,1029
2330,980,1030
2331,982,1027
2332,981,1025
2333,976,1023
2334,976,1025
2335,975,1028
2336,980,1032
2337,982,1030
2338,981,1030
2339,976,1031
2340,977,1031
2341,980,1034
2342,982,1040
2343,986,1045
2344,986,1052
2345,985,1060
2346,989,1073
2347,1000,1086
2348,1009,1100
2349,1009,1116
2350,996,1140
2351,981,1172
2352,968,1204
2353,960,1242
2354,955,1274
2355,941,1302
2356,928,1333
2357,924,1372
2358,933,1416
2359,953,1443
2360,983,1437
2361,1011,1388
2362,1027,1300
2363,1024,1193
2364,996,1106
2365,950,1055
2366,909,1031
2367,893,1020
2368,895,1015
2369,901,1016
2370,914,1023
2371,937,1024
2372,959,1023
2373,974,1022
2374,977,1020
2375,977,1016
2376,977,1014
2377,978,1013
2378,982,1014
2379,982,1011
2380,987,1009
2381,984,1004
2382,983,1005
2383,986,1008
2384,988,1013
2385,991,1011
2386,991,1008
2387,992,1004
2388,989,1006
2389,993,1007
2390,996,1008
2391,998,1009
2392,996,1007
2393,994,1006
2394,993,1004
2395,996,1006
2396,999,1007
2397,1000,1007
2398,996,1005
2399,995,1004
2400,996,1004
2401,996,1004
2402,1000,1007
2403,1001,1005
2404,999,1002
2405,998,999
2406,993,1001
2407,998,1005
2408,1001,1009
2409,1001,1007
2410,1002,1003
2411,1000,1000
2412,999,1000
2413,1001,1003
2414,1001,1006
2415,1005,1006
2416,1004,1003
2417,1002,1004
2418,1000,1005
2419,1002,1006
2420,1003,1006
2421,1007,1007
2422,1008,1004
2423,1002,1002
2424,1001,1005
2425,1006,1006
2426,1010,1011
2427,1012,1008
2428,1011,1007
2429,1008,1004
2430,1009,1007
2431,1010,1009
2432,1016,1012
2433,1017,1013
2434,1015,1011
2435,1012,1011
2436,1010,1009
2437,1015,1013
2438,1017,1019
2439,1018,1018
2440,1018,1018
2441,1017,1018
2442,1017,1020
2443,1019,1023
2444,1023,1025
2445,1028,1026
2446,1028,1027
2447,1024,1030
2448,1025,1034
2449,1027,1036
2450,1030,1043
2451,1036,1043
2452,1035,1045
2453,1033,1047
2454,1034,1052
2455,1035,1058
2456,1039,1064
2457,1042,1064
2458,1040,1067
2459,1038,1067
2460,1035,1071
2461,1035,1077
2462,1038,1082
2463,1039,1080
2464,1036,1079
2465,1030,1075
2466,1029,1073
2467,1025,1075
2468,1027,1074
2469,1027,1073
2470,1023,1068
2471,1019,1061
2472,1014,1059
2473,1011,1057
2474,1012,1054
2475,1010,1052
2476,1006,1048
2477,1000,1044
2478,997,1044
2479,996,1044
2480,995,1043
2481,997,1041
2482,994,1039
2483,992,1036
2484,991,1037
2485,990,1037
2486,990,1038
2487,992,1038
2488,990,1034
2489,987,1031
2490,986,1032
2491,986,1036
2492,986,1037
2493,987,1035
2494,988,1032
2495,986,1028
2496,985,1032
2497,984,1030
2498,987,1032
2499,989,1031
2500,987,1027
2501,986,1027
2502,982,1028
2503,982,1028
2504,984,1029
2505,984,1027
2506,984,1024
2507,983,1024
2508,979,1023
2509,979,1025
2510,984,1029
2511,986,1026
2512,984,1023
2513,983,1018
2514,978,1019
2515,981,1023
2516,980,1025
2517,985,1024
2518,986,1024
2519,981,1022
2520,978,1022
2521,980,1023
2522,982,1025
2523,986,1026
2524,985,1023
2525,979,1021
2526,979,1023
2527,978,1027
2528,984,1027
2529,984,1026
2530,982,1023
2531,977,1023
2532,978,1024
2533,980,1026
2534,980,1027
2535,984,1029
2536,981,1024
2537,979,1023
2538,974,1022
2539,977,1027
2540,979,1030
2541,982,1026
2542,985,1023
2543,979,1024
2544,977,1024
2545,979,1024
2546,980,1025
2547,979,1025
2548,982,1022
2549,978,1022
2550,976,1020
2551,978,1024
2552,979,1023
2553,978,1022
2554,974,1021
2555,972,1021
2556,972,1020
2557,974,1024
2558,975,1024
2559,978,1021
2560,975,1019
2561,973,1016
2562,970,1018
2563,970,1020
2564,974,1024
2565,976,1024
2566,973,1021
2567,972,1019
2568,973,1022
2569,972,1021
2570,974,1024
2571,976,1023
2572,972,1022
2573,971,1018
2574,968,1022
2575,973,1021
2576,973,1023
2577,974,1022
2578,974,1019
2579,972,1014
2580,968,1019
2581,969,1018
2582,972,1024
2583,974,1023
2584,973,1018
2585,966,1017
2586,968,1018
2587,968,1019
2588,972,1023
2589,974,1021
2590,974,1021
2591,970,1016
2592,969,1020
2593,970,1019
2594,973,1020
2595,973,1020
2596,974,1021
2597,968,1020
2598,967,1019
2599,970,1022
2600,971,1024
2601,973,1021
2602,971,1017
2603,968,1016
2604,968,1017
2605,966,1020
2606,972,1021
2607,972,1021
2608,971,1018
2609,969,1018
2610,966,1018
2611,969,1021
2612,970,1020
2613,971,1021
2614,970,1019
2615,967,1017
2616,966,1018
2617,966,1018
2618,971,1023
2619,973,1022
2620,971,1020
2621,967,1016
2622,967,1019
2623,968,1020
2624,970,1023
2625,971,1023
2626,972,1019
2627,968,1018
2628,967,1019
2629,968,1019
2630,971,1022
2631,971,1020
2632,971,1019
2633,967,1017
2634,966,1019
2635,970,1020
2636,970,1024
2637,972,1023
2638,972,1018
2639,967,1018
2640,966,1019
2641,969,1022
2642,971,1024
2643,972,1021
2644,973,1019
2645,969,1016
2646,967,1019
2647,972,1021
2648,975,1025
2649,978,1025
2650,980,1025
2651,978,1025
2652,976,1025
2653,977,1029
2654,980,1030
2655,982,1030
2656,981,1028
2657,979,1028
2658,980,1029
2659,983,1031
2660,985,1032
2661,985,1032
2662,985,1029
2663,983,1027
2664,981,1028
2665,982,1028
2666,984,1029
2667,985,1027
2668,979,1026
2669,974,1024
2670,970,1025
2671,972,1027
2672,974,1031
2673,977,1029
2674,977,1028
2675,972,1026
2676,971,1030
2677,973,1031
2678,976,1032
2679,980,1030
2680,977,1027
2681,977,1022
2682,977,1020
2683,977,1023
2684,978,1023
2685,976,1021
2686,974,1019
2687,966,1017
2688,962,1021
2689,965,1022
2690,969,1023
2691,969,1023
2692,969,1021
2693,966,1018
2694,965,1020
2695,967,1021
2696,969,1021
2697,971,1019
2698,968,1020
2699,965,1017
2700,962,1017
2701,964,1019
2702,967,1023
2703,967,1021
2704,967,1017
2705,965,1018
2706,961,1017
2707,964,1021
2708,966,1021
2709,969,1021
2710,966,1019
2711,962,1015
2712,964,1020
2713,966,1021
2714,968,1026
2715,970,1026
2716,969,1024
2717,967,1020
2718,967,1021
2719,967,1027
2720,968,1029
2721,973,1028
2722,970,1029
2723,969,1031
2724,968,1036
2725,971,1047
2726,979,1053
2727,981,1059
2728,988,1071
2729,990,1077
2730,990,1082
2731,991,1098
2732,986,1117
2733,974,1141
2734,962,1164
2735,953,1188
2736,942,1216
2737,932,1246
2738,916,1276
2739,902,1301
2740,896,1328
2741,898,1363
2742,910,1399
2743,928,1424
2744,955,1429
2745,982,1396
2746,1005,1328
2747,1011,1236
2748,1002,1147
2749,971,1087
2750,932,1051
2751,903,1028
2752,893,1016
2753,893,1016
2754,898,1018
2755,918,1022
2756,939,1023
2757,955,1020
2758,964,1018
2759,966,1014
2760,967,1012
2761,968,1012
2762,972,1011
2763,975,1005
2764,972,1003
2765,971,1000
2766,972,1000
2767,973,1003
2768,977,1006
2769,980,1004
2770,983,1000
2771,977,996
2772,977,999
2773,981,1001
2774,983,1004
2775,984,1004
2776,986,1000
2777,983,996
2778,985,997
2779,984,1002
2780,983,1005
2781,986,1002
2782,985,1001
2783,985,999
2784,984,999
2785,986,1000
2786,985,1004
2787,990,1001
2788,988,997
2789,987,996
2790,981,995
2791,983,1000
2792,987,1003
2793,989,998
2794,987,994
2795,985,994
2796,986,995
2797,983,998
2798,988,1003
2799,991,1000
2800,987,995
2801,986,994
2802,986,997
2803,983,998
2804,989,1000
2805,991,997
2806,988,998
2807,989,995
2808,987,996
2809,990,997
2810,992,1000
2811,994,1001
2812,992,998
2813,992,996
2814,991,998
2815,994,997
2816,995,999
2817,996,998
2818,991,996
2819,992,999
2820,990,1000
2821,992,1001
2822,997,1004
2823,997,1000
2824,998,999
2825,996,997
2826,997,997
2827,998,1001
2828,998,1005
2829,1003,1006
2830,1002,1003
2831,1000,1002
2832,999,1002
2833,1002,1005
2834,1006,1007
2835,1006,1008
2836,1005,1006
2837,1003,1004
2838,1004,1009
2839,1007,1011
2840,1010,1017
2841,1011,1013
2842,1012,1013
2843,1009,1014
2844,1009,1016
2845,1011,1020
2846,1015,1027
2847,1018,1027
2848,1017,1028
2849,1016,1029
2850,1015,1032
2851,1017,1036
2852,1020,1044
2853,1024,1044
2854,1022,1046
2855,1022,1049
2856,1020,1051
2857,1022,1058
2858,1025,1062
2859,1027,1064
2860,1024,1063
2861,1024,1063
2862,1022,1065
2863,1023,1070
2864,1024,1074
2865,1024,1073
2866,1023,1070
2867,1021,1071
2868,1016,1071
2869,1016,1068
2870,1014,1072
2871,1014,1065
2872,1011,1063
2873,1006,1058
2874,1004,1059
2875,1001,1059
2876,1003,1058
2877,1002,1056
2878,999,1052
2879,997,1047
2880,993,1046
2881,994,1044
2882,995,1049
2883,996,1046
2884,992,1042
2885,988,1038
2886,987,1039
2887,984,1043
2888,990,1044
2889,991,1041
2890,990,1037
2891,985,1038
2892,984,1035
2893,985,1041
2894,987,1041
2895,988,1037
2896,987,1036
2897,979,1034
2898,980,1035
2899,981,1039
2900,984,1038
2901,986,1039
2902,982,1038
2903,981,1034
2904,979,1035
2905,979,1038
2906,982,1037
2907,985,1036
2908,982,1035
2909,980,1033
2910,979,1031
2911,980,1037
2912,983,1039
2913,984,1035
2914,982,1035
2915,980,1029
2916,976,1031
2917,978,1031
2918,984,1033
2919,984,1032
2920,981,1029
2921,980,1027
2922,979,1028
2923,981,1029
2924,986,1030
2925,983,1029
2926,984,1028
2927,982,1027
2928,979,1029
2929,982,1030
2930,985,1031
2931,985,1030
2932,984,1028
2933,982,1026
2934,977,1025
2935,978,1027
2936,984,1032
2937,987,1031
2938,983,1031
2939,982,1029
2940,981,1029
2941,982,1032
2942,984,1032
2943,986,1031
2944,986,1028
2945,983,1026
2946,980,1029
2947,983,1032
2948,987,1034
2949,987,1034
2950,986,1032
2951,981,1029
2952,979,1029
2953,984,1031
2954,987,1033
2955,987,1029
2956,986,1028
2957,984,1026
2958,982,1030
2959,983,1030
2960,987,1031
2961,986,1031
2962,985,1030
2963,983,1028
2964,982,1030
2965,984,1031
2966,983,1033
2967,984,1033
2968,985,1030
2969,980,1030
2970,979,1026
2971,977,1029
2972,979,1033
2973,981,1033
2974,980,1029
2975,980,1027
2976,979,1027
2977,979,1028
2978,983,1029
2979,982,1030
2980,982,1029
2981,976,1025
2982,976,1028
2983,977,1030
2984,982,1032
2985,982,1030
2986,982,1028
2987,979,1023
2988,976,1023
2989,979,1028
2990,982,1029
2991,981,1028
2992,980,1027
2993,978,1023
2994,976,1024
2995,979,1028
2996,978,1030
2997,983,1029
2998,980,1026
2999,974,1027
3000,975,1026
3001,978,1027
3002,980,1031
3003,984,1028
3004,981,1024
3005,978,1025
3006,975,1024
3007,977,1027
3008,981,1030
3009,982,1031
3010,979,1029
3011,979,1025
3012,978,1025
3013,977,1027
3014,983,1028
3015,980,1029
3016,980,1026
3017,976,1026
3018,977,1026
3019,975,1027
3020,981,1030
3021,983,1028
3022,980,1026
3023,973,1024
3024,974,1027
3025,977,1027
3026,981,1031
3027,980,1026
3028,979,1028
3029,978,1022
3030,977,1026
3031,978,1030
3032,981,1030
3033,980,1029
3034,980,1026
3035,977,1025
3036,976,1025
3037,979,1028
3038,981,1027
3039,981,1030
3040,982,1029
3041,979,1028
3042,981,1028
3043,978,1032
3044,983,1031
3045,985,1032
3046,983,1026
3047,978,1027
3048,975,1029
3049,982,1032
3050,982,1034
3051,984,1030
3052,984,1026
3053,979,1025
3054,980,1028
3055,980,1027
3056,985,1031
3057,985,1031
3058,984,1029
3059,982,1025
3060,981,1029
3061,982,1031
3062,985,1032
3063,986,1030
3064,983,1028
3065,980,1027
3066,979,1029
3067,982,1031
3068,985,1036
3069,987,1033
3070,986,1031
3071,984,1030
3072,986,1030
3073,986,1033
3074,990,1036
3075,992,1038
3076,990,1035
3077,992,1036
3078,991,1037
3079,987,1040
3080,994,1041
3081,996,1042
3082,996,1041
3083,995,1037
3084,998,1040
3085,998,1043
3086,998,1043
3087,999,1043
3088,997,1040
3089,995,1039
3090,990,1038
3091,991,1037
3092,991,1040
3093,989,1040
3094,988,1035
3095,985,1032
3096,984,1035
3097,985,1038
3098,989,1040
3099,990,1038
3100,986,1037
3101,985,1039
3102,986,1038
3103,988,1038
3104,993,1043
3105,994,1040
3106,993,1037
3107,992,1031
3108,988,1033
3109,989,1033
3110,991,1035
3111,985,1032
3112,983,1032
3113,982,1027
3114,978,1027
3115,982,1030
3116,982,1032
3117,984,1031
3118,984,1030
3119,981,1026
3120,981,1028
3121,979,1030
3122,986,1032
3123,985,1031
3124,984,1028
3125,979,1026
3126,978,1027
3127,981,1030
3128,983,1032
3129,984,1028
3130,983,1029
3131,980,1022
3132,978,1027
3133,979,1027
3134,983,1030
3135,980,1031
3136,979,1029
3137,977,1024
3138,974,1024
3139,980,1027
3140,984,1030
3141,985,1028
3142,984,1027
3143,980,1027
3144,981,1028
3145,981,1033
3146,987,1037
3147,989,1038
3148,987,1039
3149,985,1043
3150,988,1050
3151,992,1061
3152,998,1075
3153,1001,1086
3154,1007,1094
3155,1002,1104
3156,991,1128
3157,977,1156
3158,968,1190
3159,959,1223
3160,953,1252
3161,937,1282
3162,923,1315
3163,914,1352
3164,916,1391
3165,926,1433
3166,941,1465
3167,962,1472
3168,984,1459
3169,1009,1417
3170,1025,1351
3171,1030,1269
3172,1015,1184
3173,983,1119
3174,946,1073
3175,919,1043
3176,909,1029
3177,909,1023
3178,912,1024
3179,920,1022
3180,939,1024
3181,960,1026
3182,978,1025
3183,982,1024
3184,984,1016
3185,984,1014
3186,986,1009
3187,988,1010
3188,993,1011
3189,995,1008
3190,994,1007
3191,994,1003
3192,993,1005
3193,995,1007
3194,1000,1008
3195,999,1007
3196,1000,1004
3197,998,1002
3198,996,1000
3199,998,1006
3200,1004,1007
3201,1006,1006
3202,1002,1003
3203,1002,1002
3204,1000,1000
3205,1001,1002
3206,1004,1006
3207,1006,1003
3208,1002,1002
3209,1002,999
3210,1001,999
3211,1001,999
3212,1002,1000
3213,1006,999
3214,1005,997
3215,1003,995
3216,1003,994
3217,1008,999
3218,1008,1000
3219,1011,999
3220,1010,997
3221,1005,991
3222,1003,994
3223,1009,997
3224,1011,1000
3225,1013,998
3226,1009,995
3227,1008,995
3228,1008,995
3229,1009,998
3230,1012,998
3231,1015,997
3232,1012,996
3233,1010,994
3234,1009,998
3235,1010,999
3236,1015,999
3237,1014,999
3238,1014,994
3239,1014,993
3240,1014,996
3241,1016,998
3242,1021,1001
3243,1022,1000
3244,1023,998
3245,1019,996
3246,1016,997
3247,1020,1001
3248,1025,1003
3249,1027,1005
3250,1027,1003
3251,1025,1001
3252,1025,1002
3253,1029,1007
3254,1032,1008
3255,1034,1007
3256,1033,1005
3257,1030,1005
3258,1030,1010
3259,1034,1014
3260,1034,1017
3261,1038,1019
3262,1037,1019
3263,1040,1018
3264,1040,1023
3265,1044,1030
3266,1048,1035
3267,1048,1036
3268,1045,1037
3269,1046,1039
3270,1045,1044
3271,1048,1050
3272,1053,1058
3273,1052,1058
3274,1050,1058
3275,1051,1061
3276,1052,1063
3277,1051,1071
3278,1053,1073
3279,1055,1076
3280,1052,1074
3281,1048,1071
3282,1044,1071
3283,1042,1075
3284,1044,1076
3285,1042,1075
3286,1040,1067
3287,1036,1062
3288,1030,1063
3289,1030,1062
3290,1032,1061
3291,1029,1062
3292,1025,1056
3293,1021,1051
3294,1019,1049
3295,1017,1049
3296,1020,1049
3297,1017,1046
3298,1016,1042
3299,1011,1041
3300,1008,1040
3301,1010,1041
3302,1010,1042
3303,1014,1037
3304,1010,1038
3305,1006,1034
3306,1005,1034
3307,1002,1037
3308,1008,1039
3309,1011,1038
3310,1007,1038
3311,1005,1034
3312,1002,1036
3313,1004,1036
3314,1006,1037
3315,1008,1037
3316,1005,1036
3317,1001,1031
3318,997,1034
3319,999,1036
3320,1004,1039
3321,1004,1036
3322,1004,1035
3323,1001,1032
3324,1001,1034
3325,999,1037
3326,1001,1037
3327,1004,1034
3328,1002,1033
3329,1001,1030
3330,1000,1030
3331,1000,1034
3332,1004,1034
3333,1005,1032
3334,1003,1029
3335,998,1028
3336,998,1028
3337,997,1032
3338,1002,1033
3339,1004,1032
3340,1000,1030
3341,998,1027
3342,999,1030
3343,1001,1030
3344,1003,1032
3345,1003,1029
3346,999,1027
3347,997,1028
3348,998,1026
3349,998,1031
3350,1004,1034
3351,1003,1033
3352,999,1029
3353,999,1027
3354,998,1030
3355,998,1033
3356,1002,1038
3357,1003,1037
3358,1002,1034
3359,1001,1033
3360,1000,1032
3361,1000,1033
3362,1003,1037
3363,1004,1037
3364,1002,1035
3365,1000,1033
3366,999,1035
3367,1001,1038
3368,1001,1039
3369,1002,1035
3370,1002,1034
3371,996,1034
3372,996,1035
3373,997,1038
3374,1000,1039
3375,1000,1037
3376,998,1035
3377,995,1033
3378,993,1033
3379,995,1035
3380,1001,1038
3381,1000,1037
3382,999,1034
3383,994,1032
3384,993,1031
3385,996,1035
3386,998,1035
3387,999,1035
3388,996,1032
3389,993,1031
3390,994,1031
3391,994,1034
3392,999,1035
3393,997,1032
3394,992,1031
3395,988,1029
3396,989,1031
3397,991,1030
3398,993,1032
3399,994,1034
3400,991,1030
3401,990,1028
3402,989,1029
3403,990,1031
3404,994,1035
3405,993,1031
3406,991,1029
3407,988,1029
3408,989,1029
3409,991,1032
3410,994,1034
3411,992,1031
3412,993,1030
3413,990,1027
3414,990,1029
3415,990,1032
3416,992,1032
3417,993,1032
3418,991,1029
3419,987,1026
3420,990,1028
3421,991,1031
3422,995,1033
3423,992,1032
3424,991,1030
3425,989,1026
3426,988,1028
3427,986,1031
3428,994,1030
3429,993,1030
3430,992,1027
3431,990,1026
3432,987,1027
3433,991,1031
3434,992,1035
3435,993,1032
3436,992,1031
3437,989,1029
3438,988,1030
3439,989,1031
3440,993,1032
3441,992,1031
3442,992,1029
3443,989,1028
3444,987,1030
3445,989,1033
3446,991,1033
3447,990,1034
3448,988,1030
3449,984,1029
3450,986,1028
3451,986,1031
3452,990,1036
3453,991,1034
3454,991,1030
3455,987,1028
3456,985,1031
3457,989,1033
3458,990,1035
3459,992,1035
3460,993,1032
3461,990,1031
3462,991,1029
3463,989,1031
3464,992,1035
3465,996,1034
3466,992,1031
3467,992,1030
3468,993,1033
3469,994,1033
3470,993,1038
3471,993,1037
3472,993,1032
3473,992,1029
3474,990,1033
3475,992,1036
3476,995,1037
3477,996,1037
3478,995,1033
3479,991,1031
3480,993,1034
3481,998,1035
3482,1000,1038
3483,1001,1040
3484,1002,1038
3485,1002,1037
3486,1000,1041
3487,1003,1043
3488,1007,1042
3489,1008,1042
3490,1009,1041
3491,1006,1038
3492,1006,1042
3493,1007,1048
3494,1010,1048
3495,1008,1048
3496,1005,1044
3497,1002,1039
3498,999,1040
3499,999,1041
3500,1000,1044
3501,998,1040
3502,993,1039
3503,991,1039
3504,989,1039
3505,990,1042
3506,997,1044
3507,1000,1043
3508,994,1042
3509,995,1038
3510,996,1041
3511,996,1044
3512,999,1045
3513,1004,1044
3514,1002,1042
3515,999,1040
3516,997,1035
3517,996,1038
3518,996,1039
3519,993,1039
3520,990,1034
3521,987,1032
3522,985,1033
3523,988,1034
3524,988,1035
3525,990,1032
3526,989,1032
3527,985,1030
3528,987,1032
3529,988,1034
3530,989,1038
3531,991,1037
3532,991,1033
3533,988,1031
3534,986,1032
3535,988,1034
3536,992,1036
3537,991,1034
3538,991,1030
3539,987,1029
3540,987,1031
3541,987,1032
3542,990,1036
3543,989,1034
3544,987,1031
3545,987,1029
3546,986,1032
3547,986,1037
3548,992,1040
3549,995,1038
3550,991,1038
3551,989,1038
3552,988,1043
3553,990,1050
3554,998,1058
3555,998,1068
3556,1005,1077
3557,1006,1088
3558,1011,1102
3559,1015,1121
3560,1008,1144
3561,994,1172
3562,981,1207
3563,969,1235
3564,961,1269
3565,946,1303
3566,934,1333
3567,929,1370
3568,933,1408
3569,948,1446
3570,973,1457
3571,1000,1439
3572,1028,1380
3573,1045,1283
3574,1034,1176
3575,997,1095
3576,948,1053
3577,915,1034
3578,906,1027
3579,911,1027
3580,922,1026
3581,937,1029
3582,954,1028
3583,979,1030
3584,992,1028
3585,996,1025
3586,995,1021
3587,995,1016
3588,995,1016
3589,996,1016
3590,999,1019
3591,999,1015
3592,1002,1013
3593,998,1013
3594,1002,1013
3595,1000,1015
3596,1005,1015
3597,1005,1014
3598,1005,1011
3599,1004,1008
3600,1003,1014
3601,1008,1016
3602,1011,1017
3603,1011,1015
3604,1008,1009
3605,1006,1008
3606,1005,1009
3607,1008,1012
3608,1008,1014
3609,1009,1009
3610,1010,1009
3611,1007,1004
3612,1006,1007
3613,1007,1010
3614,1010,1013
3615,1013,1008
3616,1011,1007
3617,1010,1005
3618,1009,1008
3619,1012,1011
3620,1015,1010
3621,1012,1009
3622,1010,1005
3623,1008,1003
3624,1009,1007
3625,1012,1008
3626,1014,1011
3627,1015,1009
3628,1013,1005
3629,1010,1004
3630,1009,1005
3631,1017,1006
3632,1019,1008
3633,1018,1008
3634,1014,1006
3635,1013,1005
3636,1014,1007
3637,1019,1009
3638,1019,1011
3639,1020,1010
3640,1018,1006
3641,1016,1007
3642,1018,1007
3643,1018,1010
3644,1022,1014
3645,1022,1012
3646,1025,1009
3647,1023,1008
3648,1023,1013
3649,1026,1016
3650,1029,1018
3651,1031,1019
3652,1030,1015
3653,1031,1014
3654,1027,1020
3655,1032,1027
3656,1038,1027
3657,1041,1032
3658,1039,1031
3659,1037,1033
3660,1037,1035
3661,1042,1044
3662,1049,1047
3663,1047,1050
3664,1049,1049
3665,1048,1051
3666,1047,1057
3667,1049,1063
3668,1052,1069
3669,1057,1070
3670,1054,1072
3671,1054,1073
3672,1054,1075
3673,1054,1080
3674,1055,1080
3675,1055,1079
3676,1050,1074
3677,1046,1075
3678,1045,1074
3679,1045,1075
3680,1044,1078
3681,1045,1073
3682,1040,1069
3683,1033,1068
3684,1031,1063
3685,1031,1063
3686,1033,1063
3687,1032,1058
3688,1029,1054
3689,1023,1050
3690,1021,1050
3691,1022,1050
3692,1022,1051
3693,1021,1045
3694,1018,1043
3695,1012,1038
3696,1010,1037
3697,1010,1041
3698,1015,1046
3699,1013,1041
3700,1011,1037
3701,1007,1034
3702,1006,1036
3703,1009,1037
3704,1010,1038
3705,1009,1039
3706,1007,1034
3707,1003,1032
3708,1001,1033
3709,1005,1036
3710,1006,1038
3711,1005,1038
3712,1002,1033
3713,1000,1030
3714,1001,1032
3715,1003,1033
3716,1007,1035
3717,1008,1035
3718,1006,1033
3719,1003,1032
3720,1002,1032
3721,1005,1033
3722,1004,1033
3723,1005,1034
3724,1004,1030
3725,998,1027
3726,994,1030
3727,999,1031
3728,1001,1035
3729,1004,1031
3730,999,1026
3731,998,1027
3732,998,1029
3733,1000,1029
3734,1001,1029
3735,1004,1028
3736,1000,1024
3737,997,1023
3738,998,1023
3739,999,1025
3740,1000,1028
3741,1002,1025
3742,1000,1023
3743,997,1022
3744,995,1025
3745,998,1026
3746,1000,1028
3747,1003,1025
3748,999,1023
3749,997,1024
3750,996,1024
3751,999,1028
3752,1000,1031
3753,1002,1028
3754,1001,1025
3755,997,1024
3756,996,1026
3757,998,1027
3758,1002,1029
3759,1000,1026
3760,1000,1026
3761,996,1027
3762,997,1027
3763,1000,1029
3764,1002,1030
3765,1003,1029
3766,1000,1026
3767,998,1025
3768,992,1027
3769,997,1029
3770,999,1031
3771,1000,1026
3772,997,1026
3773,993,1022
3774,992,1027
3775,992,1031
3776,998,1031
3777,996,1030
3778,996,1028
3779,993,1024
3780,989,1024
3781,992,1028
3782,997,1027
3783,997,1027
3784,994,1025
3785,993,1023
3786,992,1024
3787,992,1027
3788,994,1028
3789,995,1027
3790,994,1026
3791,993,1024
3792,992,1024
3793,993,1028
3794,995,1028
3795,996,1025
3796,993,1022
3797,990,1023
3798,987,1022
3799,989,1023
3800,992,1027
3801,994,1025
3802,993,1022
3803,987,1019
3804,986,1022
3805,989,1023
3806,993,1025
3807,994,1023
3808,992,1021
3809,989,1020
3810,984,1023
3811,989,1025
3812,992,1024
3813,993,1021
3814,990,1019
3815,988,1019
3816,985,1021
3817,986,1025
3818,991,1026
3819,993,1024
3820,990,1023
3821,988,1019
3822,986,1020
3823,989,1022
3824,993,1024
3825,991,1025
3826,987,1021
3827,988,1019
3828,988,1019
3829,989,1023
3830,990,1023
3831,992,1023
3832,988,1022
3833,988,1020
3834,983,1023
3835,988,1025
3836,991,1026
3837,992,1021
3838,988,1019
3839,983,1021
3840,985,1020
3841,986,1021
3842,986,1026
3843,989,1023
3844,987,1017
3845,985,1018
3846,987,1019
3847,988,1022
3848,991,1022
3849,991,1020
3850,987,1015
3851,986,1014
3852,982,1017
3853,985,1021
3854,989,1022
3855,991,1022
3856,989,1017
3857,987,1017
3858,986,1019
3859,989,1020
3860,986,1023
3861,987,1021
3862,985,1019
3863,983,1016
3864,984,1017
3865,986,1022
3866,989,1025
3867,991,1025
3868,988,1019
3869,986,1018
3870,988,1018
3871,988,1021
3872,995,1023
3873,997,1024
3874,996,1025
3875,995,1025
3876,996,1024
3877,997,1028
3878,999,1029
3879,1001,1029
3880,999,1029
3881,997,1027
3882,997,1031
3883,999,1037
3884,1003,1037
3885,1003,1035
3886,999,1032
3887,998,1029
3888,998,1031
3889,996,1030
3890,998,1031
3891,995,1033
3892,994,1029
3893,990,1030
3894,989,1031
3895,993,1031
3896,994,1030
3897,995,1030
3898,994,1030
3899,991,1028
3900,991,1031
3901,995,1033
3902,995,1035
3903,997,1032
3904,998,1030
3905,996,1026
3906,994,1026
3907,995,1023
3908,991,1023
3909,989,1023
3910,985,1023
3911,980,1021
3912,977,1023
3913,984,1025
3914,985,1025
3915,988,1025
3916,984,1023
3917,983,1022
3918,982,1024
3919,985,1026
3920,986,1025
3921,986,1024
3922,986,1022
3923,981,1021
3924,981,1019
3925,985,1023
3926,986,1023
3927,987,1022
3928,983,1019
3929,982,1017
3930,979,1019
3931,981,1025
3932,986,1027
3933,986,1024
3934,985,1021
3935,980,1019
3936,978,1020
3937,982,1023
3938,979,1025
3939,980,1023
3940,979,1022
3941,979,1021
3942,983,1026
3943,986,1032
3944,988,1035
3945,990,1039
3946,991,1040
3947,992,1047
3948,995,1061
3949,1001,1073
3950,1008,1083
3951,1009,1093
3952,1001,1107
3953,986,1129
3954,976,1159
3955,966,1192
3956,957,1221
3957,945,1247
3958,924,1271
3959,908,1299
3960,904,1334
3961,913,1375
3962,936,1409
3963,960,1417
3964,981,1399
3965,1006,1345
3966,1019,1257
3967,1022,1161
3968,999,1093
3969,956,1052
3970,918,1025
3971,902,1014
3972,903,1011
3973,912,1018
3974,929,1021
3975,946,1020
3976,959,1020
3977,972,1012
3978,977,1016
3979,982,1015
3980,988,1016
3981,987,1009
3982,989,1004
3983,985,1002
3984,985,1001
3985,989,1002
3986,994,1004
3987,993,1002
3988,988,998
3989,991,997
3990,992,997
3991,996,1001
3992,999,1000
3993,1000,1002
3994,997,1000
3995,996,998
3996,991,998
3997,994,1000
3998,995,1001
3999,998,1000
4000,1000,995
4001,997,995
4002,995,996
4003,997,997
4004,998,998
4005,1002,998
4006,999,994
4007,998,991
4008,999,994
4009,999,996
4010,1000,995
4011,1003,994
4012,999,990
4013,994,988
4014,996,991
4015,998,995
4016,1001,996
4017,1002,995
4018,1001,994
4019,999,992
4020,998,991
4021,1002,992
4022,1002,995
4023,1003,989
4024,1000,989
4025,995,988
4026,998,990
4027,1001,995
4028,1005,994
4029,1005,992
4030,1005,989
4031,1001,987
4032,998,988
4033,1004,988
4034,1006,990
4035,1006,991
4036,1003,991
4037,1001,990
4038,1003,990
4039,1005,994
4040,1010,996
4041,1010,996
4042,1009,990
4043,1011,992
4044,1010,993
4045,1011,998
4046,1017,998
4047,1018,998
4048,1020,997
4049,1013,995
4050,1014,996
4051,1019,999
4052,1019,1002
4053,1017,1006
4054,1020,1004
4055,1018,1005
4056,1017,1008
4057,1022,1010
4058,1025,1015
4059,1024,1015
4060,1025,1017
4061,1024,1018
4062,1025,1021
4063,1029,1026
4064,1032,1031
4065,1033,1034
4066,1029,1039
4067,1029,1040
4068,1030,1045
4069,1028,1050
4070,1033,1053
4071,1033,1056
4072,1033,1058
4073,1027,1059
4074,1026,1061
4075,1029,1062
4076,1030,1060
4077,1029,1058
4078,1025,1055
4079,1016,1053
4080,1018,1054
4081,1017,1055
4082,1019,1054
4083,1018,1051
4084,1014,1043
4085,1008,1040
4086,1005,1040
4087,1006,1041
4088,1007,1038
4089,1006,1034
4090,1002,1030
4091,996,1029
4092,994,1029
4093,996,1032
4094,1000,1033
4095,999,1030
4096,995,1024
4097,990,1021
4098,990,1022
4099,990,1029
4100,995,1030
4101,995,1029
4102,989,1022
4103,988,1021
4104,988,1023
4105,990,1026
4106,991,1027
4107,992,1027
4108,989,1023
4109,985,1024
4110,984,1021
4111,987,1024
4112,987,1028
4113,989,1025
4114,987,1022
4115,986,1019
4116,986,1019
4117,987,1022
4118,989,1021
4119,989,1021
4120,988,1020
4121,982,1017
4122,982,1017
4123,987,1018
4124,987,1022
4125,988,1019
4126,988,1015
4127,986,1014
4128,984,1015
4129,983,1017
4130,986,1020
4131,987,1019
4132,988,1015
4133,984,1016
4134,983,1015
4135,987,1017
4136,988,1018
4137,986,1017
4138,984,1014
4139,983,1012
4140,986,1013
4141,984,1017
4142,985,1020
4143,984,1018
4144,988,1015
4145,985,1015
4146,985,1016
4147,985,1019
4148,987,1022
4149,987,1021
4150,986,1017
4151,985,1016
4152,985,1015
4153,985,1016
4154,988,1018
4155,988,1019
4156,984,1013
4157,982,1014
4158,985,1018
4159,984,1019
4160,986,1020
4161,987,1020
4162,982,1014
4163,982,1010
4164,979,1013
4165,983,1018
4166,983,1020
4167,983,1015
4168,985,1015
4169,975,1013
4170,978,1014
4171,979,1017
4172,981,1018
4173,982,1015
4174,980,1011
4175,975,1010
4176,977,1014
4177,976,1016
4178,981,1017
4179,980,1015
4180,980,1014
4181,977,1010
4182,975,1014
4183,977,1017
4184,980,1017
4185,979,1015
4186,978,1012
4187,975,1009
4188,974,1012
4189,975,1015
4190,978,1016
4191,979,1017
4192,976,1014
4193,975,1011
4194,975,1013
4195,977,1013
4196,980,1018
4197,979,1015
4198,977,1013
4199,974,1010
4200,974,1012
4201,977,1016
4202,979,1019
4203,980,1016
4204,977,1013
4205,969,1011
4206,971,1014
4207,977,1015
4208,978,1018
4209,976,1014
4210,975,1013
4211,969,1012
4212,975,1013
4213,974,1018
4214,979,1019
4215,979,1016
4216,975,1016
4217,974,1015
4218,973,1018
4219,974,1017
4220,975,1018
4221,977,1017
4222,975,1013
4223,974,1011
4224,974,1013
4225,976,1018
4226,978,1018
4227,980,1016
4228,976,1014
4229,975,1014
4230,972,1014
4231,976,1015
4232,980,1020
4233,979,1016
4234,978,1014
4235,972,1013
4236,975,1013
4237,977,1016
4238,978,1020
4239,979,1015
4240,979,1016
4241,977,1014
4242,976,1017
4243,981,1018
4244,981,1017
4245,983,1018
4246,980,1015
4247,974,1012
4248,975,1015
4249,978,1017
4250,982,1019
4251,980,1017
4252,976,1014
4253,977,1013
4254,974,1014
4255,978,1016
4256,980,1017
4257,980,1016
4258,977,1013
4259,974,1013
4260,974,1018
4261,978,1018
4262,982,1019
4263,981,1018
4264,980,1016
4265,980,1014
4266,982,1018
4267,984,1020
4268,985,1023
4269,988,1023
4270,988,1020
4271,987,1021
4272,987,1023
4273,989,1025
4274,990,1029
4275,993,1027
4276,991,1027
4277,991,1024
4278,992,1025
4279,992,1030
4280,990,1029
4281,993,1027
4282,990,1025
4283,983,1022
4284,982,1021
4285,985,1023
4286,985,1023
4287,984,1020
4288,980,1019
4289,978,1018
4290,977,1020
4291,980,1023
4292,982,1026
4293,982,1024
4294,980,1022
4295,981,1025
4296,982,1024
4297,986,1025
4298,990,1028
4299,988,1024
4300,984,1022
4301,984,1018
4302,981,1016
4303,980,1015
4304,979,1018
4305,976,1017
4306,974,1014
4307,972,1013
4308,971,1014
4309,976,1018
4310,979,1017
4311,978,1016
4312,974,1014
4313,972,1011
4314,970,1013
4315,972,1016
4316,974,1018
4317,975,1017
4318,975,1013
4319,970,1012
4320,973,1014
4321,971,1014
4322,976,1017
4323,975,1015
4324,972,1013
4325,970,1010
4326,971,1013
4327,974,1017
4328,975,1018
4329,974,1017
4330,971,1014
4331,971,1016
4332,974,1020
4333,976,1024
4334,981,1028
4335,981,1028
4336,980,1031
4337,981,1038
4338,985,1049
4339,988,1066
4340,996,1075
4341,1002,1086
4342,998,1096
4343,982,1114
4344,964,1144
4345,951,1180
4346,945,1214
4347,930,1247
4348,913,1277
4349,893,1309
4350,886,1346
4351,889,1394
4352,910,1435
4353,932,1454
4354,961,1442
4355,985,1385
4356,1003,1300
4357,1004,1201
4358,980,1124
4359,941,1067
4360,908,1032
4361,892,1020
4362,899,1020
4363,915,1025
4364,940,1023
4365,959,1019
4366,972,1015
4367,974,1010
4368,980,1010
4369,983,1006
4370,987,1003
4371,988,1001
4372,986,997
4373,982,995
4374,985,997
4375,985,998
4376,989,999
4377,993,996
4378,990,992
4379,987,992
4380,989,994
4381,992,994
4382,996,995
4383,996,992
4384,996,990
4385,995,988
4386,994,990
4387,995,995
4388,996,996
4389,998,992
4390,997,991
4391,997,989
4392,994,989
4393,997,990
4394,998,991
4395,998,991
4396,998,988
4397,996,989
4398,997,987
4399,998,988
4400,999,991
4401,1001,988
4402,998,986
4403,998,986
4404,997,987
4405,1000,994
4406,1005,991
4407,1004,990
4408,1004,987
4409,1002,986
4410,1003,986
4411,1004,989
4412,1008,993
4413,1008,992
4414,1006,987
4415,1004,988
4416,1004,989
4417,1006,991
4418,1010,991
4419,1009,991
4420,1008,989
4421,1007,989
4422,1008,991
4423,1010,992
4424,1013,992
4425,1015,991
4426,1014,992
4427,1010,989
4428,1015,994
4429,1017,995
4430,1020,998
4431,1021,994
4432,1020,994
4433,1019,994
4434,1018,999
4435,1021,1000
4436,1025,1005
4437,1026,1005
4438,1025,1004
4439,1025,1002
4440,1025,1008
4441,1029,1013
4442,1036,1016
4443,1035,1018
4444,1034,1017
4445,1033,1020
4446,1035,1025
4447,1038,1031
4448,1043,1035
4449,1043,1038
4450,1039,1039
4451,1038,1038
4452,1038,1046
4453,1044,1051
4454,1045,1057
4455,1044,1060
4456,1043,1059
4457,1041,1060
4458,1038,1064
4459,1040,1067
4460,1041,1072
4461,1041,1070
4462,1036,1069
4463,1034,1066
4464,1032,1070
4465,1033,1070
4466,1031,1068
4467,1030,1066
4468,1025,1060
4469,1021,1057
4470,1019,1057
4471,1017,1058
4472,1015,1055
4473,1015,1051
4474,1015,1046
4475,1008,1042
4476,1004,1040
4477,1007,1042
4478,1009,1041
4479,1005,1038
4480,1002,1034
4481,998,1032
4482,996,1030
4483,997,1033
4484,1000,1035
4485,999,1033
4486,996,1028
4487,994,1031
4488,993,1030
4489,993,1034
4490,994,1033
4491,992,1032
4492,993,1029
4493,989,1029
4494,989,1031
4495,995,1033
4496,997,1032
4497,996,1033
4498,993,1031
4499,989,1029
4500,986,1029
4501,991,1034
4502,995,1035
4503,995,1033
4504,992,1031
4505,989,1029
4506,990,1031
4507,992,1030
4508,995,1033
4509,991,1031
4510,988,1028
4511,990,1026
4512,987,1028
4513,990,1030
4514,995,1034
4515,992,1028
4516,989,1026
4517,989,1024
4518,989,1027
4519,991,1027
4520,992,1029
4521,993,1028
4522,991,1027
4523,990,1024
4524,992,1025
4525,991,1030
4526,996,1031
4527,994,1030
4528,993,1028
4529,991,1025
4530,991,1028
4531,992,1032
4532,996,1031
4533,995,1027
4534,994,1029
4535,991,1026
4536,989,1028
4537,991,1033
4538,994,1034
4539,995,1033
4540,996,1030
4541,989,1027
4542,990,1030
4543,995,1031
4544,996,1034
4545,999,1031
4546,996,1029
4547,993,1028
4548,995,1029
4549,996,1031
4550,997,1032
4551,997,1031
4552,993,1030
4553,992,1028
4554,991,1032
4555,994,1032
4556,996,1034
4557,995,1031
4558,991,1028
4559,987,1027
4560,988,1027
4561,989,1031
4562,992,1033
4563,988,1031
4564,986,1027
4565,984,1025
4566,983,1028
4567,987,1028
4568,988,1029
4569,987,1029
4570,988,1026
4571,984,1027
4572,983,1028
4573,987,1029
4574,991,1029
4575,990,1026
4576,987,1026
4577,985,1024
4578,984,1026
4579,986,1029
4580,987,1030
4581,983,1026
4582,981,1025
4583,981,1021
4584,982,1024
4585,982,1029
4586,984,1028
4587,984,1026
4588,981,1024
4589,981,1022
4590,984,1024
4591,984,1027
4592,986,1026
4593,983,1026
4594,983,1023
4595,979,1022
4596,980,1025
4597,983,1025
4598,984,1029
4599,983,1026
4600,985,1023
4601,982,1021
4602,981,1025
4603,984,1029
4604,986,1028
4605,984,1027
4606,981,1020
4607,980,1023
4608,980,1024
4609,983,1028
4610,986,1027
4611,987,1027
4612,984,1024
4613,980,1024
4614,977,1026
4615,979,1029
4616,984,1028
4617,983,1028
4618,982,1023
4619,979,1024
4620,979,1027
4621,983,1026
4622,987,1027
4623,985,1024
4624,981,1022
4625,980,1020
4626,979,1023
4627,981,1027
4628,985,1027
4629,983,1024
4630,980,1022
4631,978,1022
4632,979,1024
4633,980,1028
4634,985,1028
4635,982,1027
4636,983,1022
4637,979,1020
4638,979,1023
4639,980,1027
4640,983,1027
4641,983,1025
4642,982,1023
4643,978,1024
4644,978,1025
4645,979,1026
4646,983,1027
4647,986,1027
4648,981,1027
4649,980,1026
4650,984,1027
4651,988,1032
4652,993,1034
4653,996,1036
4654,995,1036
4655,991,1034
4656,992,1036
4657,996,1040
4658,998,1041
4659,1000,1042
4660,996,1038
4661,995,1038
4662,995,1039
4663,994,1037
4664,995,1037
4665,996,1035
4666,989,1032
4667,985,1030
4668,985,1033
4669,987,1036
4670,991,1037
4671,991,1037
4672,988,1039
4673,987,1035
4674,987,1039
4675,993,1039
4676,998,1039
4677,994,1034
4678,991,1028
4679,983,1028
4680,977,1031
4681,979,1033
4682,983,1034
4683,985,1030
4684,984,1027
4685,981,1026
4686,981,1027
4687,978,1031
4688,983,1033
4689,984,1030
4690,982,1026
4691,978,1025
4692,981,1028
4693,982,1031
4694,983,1032
4695,984,1028
4696,981,1026
4697,979,1025
4698,977,1026
4699,980,1028
4700,983,1030
4701,979,1029
4702,982,1027
4703,978,1027
4704,979,1030
4705,979,1031
4706,983,1032
4707,984,1033
4708,982,1031
4709,980,1031
4710,977,1039
4711,982,1044
4712,988,1050
4713,992,1055
4714,991,1062
4715,992,1075
4716,998,1091
4717,1004,1106
4718,1007,1124
4719,994,1148
4720,976,1181
4721,962,1213
4722,956,1251
4723,949,1288
4724,937,1323
4725,922,1356
4726,915,1392
4727,922,1432
4728,940,1468
4729,964,1484
4730,993,1469
4731,1020,1416
4732,1033,1333
4733,1027,1237
4734,1002,1155
4735,961,1097
4736,927,1061
4737,905,1037
4738,902,1027
4739,906,1028
4740,921,1034
4741,940,1033
4742,964,1033
4743,977,1028
4744,979,1022
4745,983,1021
4746,984,1016
4747,986,1015
4748,992,1015
4749,991,1011
4750,988,1009
4751,987,1005
4752,989,1008
4753,993,1009
4754,998,1012
4755,998,1009
4756,994,1005
4757,994,1004
4758,993,1004
4759,997,1009
4760,1001,1010
4761,1001,1009
4762,1001,1006
4763,996,1002
4764,999,1004
4765,999,1007
4766,1005,1007
4767,1004,1005
4768,1002,1000
4769,998,1001
4770,998,1002
4771,999,1003
4772,1003,1003
4773,1003,1003
4774,1002,1000
4775,1002,1001
4776,1002,1001
4777,1003,1002
4778,1008,1002
4779,1008,999
4780,1006,999
4781,1001,998
4782,1003,999
4783,1005,1001
4784,1008,1005
4785,1009,999
4786,1008,999
4787,1007,998
4788,1006,999
4789,1008,1002
4790,1011,1001
4791,1011,1001
4792,1007,998
4793,1004,999
4794,1008,999
4795,1010,1002
4796,1016,1004
4797,1015,1002
4798,1013,998
4799,1011,1000
4800,1012,1001
4801,1013,1003
4802,1016,1003
4803,1019,1004
4804,1017,998
4805,1016,999
4806,1016,1002
4807,1019,1007
4808,1024,1006
4809,1021,1006
4810,1021,1005
4811,1020,1003
4812,1021,1006
4813,1023,1009
4814,1028,1009
4815,1028,1009
4816,1028,1009
4817,1024,1011
4818,1028,1014
4819,1030,1019
4820,1036,1022
4821,1037,1024
4822,1037,1023
4823,1036,1023
4824,1038,1027
4825,1038,1033
4826,1045,1037
4827,1044,1040
4828,1045,1043
4829,1044,1044
4830,1046,1049
4831,1048,1056
4832,1052,1059
4833,1052,1063
4834,1050,1062
4835,1050,1065
4836,1050,1072
4837,1052,1074
4838,1056,1078
4839,1053,1076
4840,1048,1077
4841,1046,1076
4842,1042,1081
4843,1045,1083
4844,1047,1081
4845,1041,1081
4846,1037,1075
4847,1034,1073
4848,1031,1073
4849,1033,1072
4850,1033,1072
4851,1029,1067
4852,1024,1062
4853,1020,1060
4854,1017,1058
4855,1018,1057
4856,1018,1056
4857,1015,1052
4858,1010,1046
4859,1006,1045
4860,1008,1047
4861,1008,1049
4862,1010,1051
4863,1010,1046
4864,1005,1043
4865,1004,1042
4866,998,1043
4867,999,1048
4868,1002,1046
4869,1003,1043
4870,1001,1043
4871,999,1039
4872,996,1042
4873,998,1042
4874,1004,1044
4875,1000,1039
4876,998,1038
4877,994,1039
4878,995,1040
4879,1000,1041
4880,1001,1040
4881,1002,1039
4882,999,1037
4883,997,1037
4884,995,1037
4885,998,1041
4886,1004,1040
4887,999,1038
4888,997,1035
4889,996,1035
4890,995,1035
4891,998,1037
4892,1000,1039
4893,1000,1036
4894,998,1033
4895,995,1031
4896,990,1033
4897,994,1036
4898,997,1035
4899,995,1035
4900,993,1030
4901,992,1030
4902,990,1031
4903,995,1034
4904,999,1034
4905,997,1032
4906,995,1028
4907,993,1030
4908,992,1030
4909,993,1032
4910,995,1031
4911,996,1031
4912,994,1029
4913,994,1029
4914,994,1031
4915,997,1033
4916,1001,1031
4917,998,1031
4918,997,1025
4919,994,1029
4920,994,1031
4921,997,1035
4922,998,1036
4923,996,1033
4924,997,1030
4925,995,1031
4926,994,1034
4927,997,1037
4928,999,1034
4929,997,1034
4930,996,1031
4931,995,1031
4932,995,1036
4933,998,1038
4934,1002,1038
4935,1000,1036
4936,997,1032
4937,995,1032
4938,993,1033
4939,997,1036
4940,1000,1036
4941,998,1032
4942,996,1032
4943,992,1030
4944,993,1032
4945,993,1036
4946,996,1036
4947,994,1033
4948,991,1030
4949,990,1029
4950,984,1031
4951,990,1035
4952,991,1033
4953,991,1031
4954,988,1029
4955,987,1027
4956,989,1029
4957,990,1035
4958,993,1031
4959,991,1030
4960,987,1028
4961,984,1027
4962,986,1027
4963,989,1027
4964,992,1030
4965,991,1028
4966,986,1024
4967,984,1025
4968,983,1028
4969,985,1029
4970,989,1035
4971,987,1029
4972,986,1026
4973,985,1024
4974,986,1028
4975,986,1028
4976,987,1029
4977,986,1028
4978,985,1025
4979,983,1022
4980,983,1022
4981,983,1027
4982,986,1027
4983,986,1029
4984,983,1026
4985,984,1025
4986,983,1027
4987,986,1028
4988,988,1030
4989,983,1026
4990,981,1025
4991,980,1023
4992,981,1025
4993,984,1027
4994,985,1026
4995,985,1024
4996,984,1023
4997,980,1020
4998,980,1023
4999,983,1025
5000,984,1026
5001,985,1025
5002,981,1023
5003,980,1024
5004,982,1027
5005,982,1031
5006,987,1028
5007,986,1025
5008,981,1025
5009,980,1023
5010,981,1026
5011,983,1029
5012,986,1028
5013,985,1028
5014,980,1025
5015,980,1025
5016,982,1028
5017,984,1031
5018,985,1027
5019,985,1027
5020,982,1024
5021,981,1022
5022,980,1024
5023,983,1027
5024,986,1027
5025,984,1025
5026,982,1020
5027,981,1023
5028,982,1024
5029,981,1025
5030,985,1027
5031,985,1021
5032,985,1021
5033,982,1021
5034,983,1025
5035,985,1028
5036,987,1028
5037,985,1027
5038,982,1024
5039,978,1023
5040,980,1030
5041,982,1029
5042,986,1029
5043,990,1027
5044,987,1027
5045,986,1027
5046,985,1029
5047,991,1031
5048,992,1036
5049,992,1033
5050,992,1030
5051,992,1032
5052,991,1036
5053,994,1040
5054,998,1040
5055,999,1038
5056,997,1038
5057,991,1039
5058,992,1039
5059,997,1042
5060,999,1042
5061,996,1037
5062,992,1034
5063,988,1032
5064,984,1034
5065,985,1036
5066,987,1035
5067,986,1034
5068,984,1031
5069,982,1033
5070,983,1033
5071,986,1037
5072,990,1038
5073,989,1039
5074,989,1038
5075,984,1039
5076,988,1038
5077,991,1040
5078,994,1039
5079,994,1038
5080,990,1031
5081,987,1032
5082,984,1032
5083,984,1033
5084,983,1033
5085,980,1029
5086,977,1029
5087,974,1027
5088,974,1031
5089,979,1033
5090,982,1035
5091,980,1034
5092,979,1029
5093,975,1028
5094,973,1029
5095,974,1033
5096,980,1031
5097,979,1028
5098,977,1026
5099,975,1025
5100,976,1028
5101,976,1031
5102,976,1034
5103,977,1029
5104,978,1023
5105,972,1021
5106,970,1026
5107,976,1029
5108,982,1033
5109,982,1032
5110,982,1031
5111,978,1028
5112,980,1030
5113,980,1034
5114,983,1034
5115,978,1034
5116,980,1032
5117,977,1030
5118,979,1035
5119,978,1041
5120,981,1044
5121,982,1047
5122,983,1050
5123,986,1057
5124,988,1067
5125,994,1081
5126,999,1088
5127,1006,1097
5128,1006,1107
5129,998,1122
5130,988,1147
5131,980,1176
5132,975,1206
5133,966,1231
5134,955,1257
5135,936,1285
5136,921,1313
5137,911,1347
5138,913,1381
5139,925,1417
5140,938,1442
5141,959,1450
5142,984,1437
5143,1009,1396
5144,1028,1323
5145,1031,1235
5146,1011,1155
5147,976,1101
5148,937,1063
5149,914,1043
5150,907,1032
5151,907,1027
5152,910,1027
5153,921,1025
5154,940,1030
5155,958,1033
5156,975,1030
5157,976,1025
5158,978,1020
5159,977,1016
5160,978,1015
5161,981,1015
5162,984,1014
5163,983,1011
5164,982,1009
5165,981,1009
5166,982,1008
5167,985,1012
5168,990,1008
5169,990,1005
5170,989,1004
5171,989,1009
5172,990,1008
5173,990,1009
5174,994,1009
5175,995,1006
5176,991,1002
5177,991,1002
5178,991,1003
5179,991,1004
5180,995,1006
5181,996,1005
5182,994,1002
5183,993,1000
5184,992,1003
5185,995,1007
5186,995,1005
5187,998,999
5188,994,997
5189,991,999
5190,989,1002
5191,993,1005
5192,995,1006
5193,999,1003
5194,995,1000
5195,994,998
5196,993,999
5197,994,1002
5198,1001,1002
5199,998,1003
5200,996,999
5201,995,996
5202,996,998
5203,996,1000
5204,997,998
5205,1002,997
5206,998,994
5207,998,997
5208,996,997
5209,996,1001
5210,1002,1000
5211,998,1001
5212,996,994
5213,998,996
5214,999,995
5215,1003,997
5216,1004,999
5217,1005,999
5218,1001,996
5219,1001,999
5220,1001,999
5221,1007,1001
5222,1008,999
5223,1008,999
5224,1004,998
5225,1003,998
5226,1005,998
5227,1009,1002
5228,1013,1003
5229,1012,1000
5230,1011,1003
5231,1007,1004
5232,1012,1004
5233,1015,1009
5234,1021,1008
5235,1019,1009
5236,1015,1008
5237,1014,1014
5238,1018,1018
5239,1024,1020
5240,1027,1025
5241,1027,1027
5242,1023,1028
5243,1023,1031
5244,1026,1036
5245,1028,1041
5246,1029,1044
5247,1029,1045
5248,1029,1048
5249,1026,1052
5250,1028,1059
5251,1031,1065
5252,1035,1067
5253,1033,1068
5254,1030,1065
5255,1027,1068
5256,1029,1074
5257,1026,1079
5258,1031,1078
5259,1030,1076
5260,1025,1071
5261,1019,1068
5262,1018,1068
5263,1020,1069
5264,1019,1067
5265,1017,1066
5266,1013,1063
5267,1007,1058
5268,1006,1057
5269,1009,1056
5270,1005,1055
5271,1005,1051
5272,1001,1047
5273,996,1044
5274,993,1044
5275,998,1045
5276,996,1045
5277,997,1041
5278,991,1036
5279,986,1037
5280,985,1038
5281,989,1041
5282,992,1042
5283,992,1041
5284,987,1036
5285,985,1034
5286,986,1034
5287,987,1035
5288,987,1037
5289,986,1037
5290,988,1035
5291,982,1035
5292,983,1038
5293,983,1040
5294,987,1039
5295,986,1036
5296,983,1031
5297,983,1031
5298,981,1033
5299,985,1038
5300,988,1036
5301,985,1033
5302,982,1031
5303,982,1028
5304,980,1030
5305,983,1031
5306,984,1032
5307,983,1031
5308,982,1027
5309,983,1027
5310,981,1027
5311,983,1030
5312,986,1029
5313,984,1026
5314,978,1024
5315,976,1027
5316,974,1027
5317,982,1031
5318,984,1032
5319,982,1028
5320,982,1027
5321,979,1024
5322,979,1025
5323,979,1027
5324,981,1028
5325,984,1027
5326,983,1025
5327,981,1028
5328,979,1028
5329,983,1030
5330,985,1029
5331,985,1025
5332,980,1022
5333,978,1024
5334,978,1028
5335,980,1031
5336,982,1032
5337,983,1028
5338,979,1027
5339,977,1026
5340,978,1029
5341,982,1029
5342,984,1032
5343,982,1031
5344,981,1027
5345,979,1027
5346,974,1030
5347,980,1031
5348,984,1028
5349,984,1029
5350,979,1025
5351,974,1027
5352,978,1028
5353,981,1032
5354,983,1030
5355,981,1028
5356,978,1026
5357,975,1025
5358,976,1028
5359,979,1027
5360,980,1032
5361,978,1029
5362,977,1026
5363,973,1025
5364,971,1029
5365,973,1030
5366,980,1029
5367,975,1027
5368,975,1025
5369,971,1026
5370,970,1029
5371,974,1029
5372,979,1032
5373,977,1030
5374,974,1025
5375,973,1027
5376,972,1027
5377,971,1030
5378,978,1030
5379,979,1027
5380,973,1027
5381,971,1025
5382,973,1027
5383,975,1026
5384,977,1026
5385,976,1026
5386,970,1022
5387,970,1024
5388,970,1027
5389,972,1028
5390,975,1028
5391,972,1026
5392,968,1025
5393,967,1024
5394,969,1026
5395,972,1029
5396,973,1027
5397,971,1027
5398,970,1025
5399,969,1023
5400,969,1023
5401,974,1027
5402,972,1027
5403,973,1024
5404,969,1021
5405,971,1022
5406,968,1026
5407,972,1026
5408,978,1026
5409,974,1026
5410,972,1025
5411,971,1024
5412,969,1026
5413,970,1026
5414,973,1029
5415,973,1024
5416,972,1024
5417,969,1021
5418,970,1025
5419,971,1027
5420,975,1029
5421,972,1027
5422,970,1023
5423,968,1022
5424,966,1026
5425,968,1028
5426,974,1029
5427,972,1027
5428,972,1022
5429,964,1024
5430,967,1025
5431,968,1026
5432,974,1028
5433,972,1027
5434,971,1023
5435,970,1023
5436,968,1026
5437,973,1026
5438,976,1029
5439,976,1025
5440,968,1022
5441,969,1023
5442,968,1027
5443,969,1026
5444,974,1028
5445,975,1025
5446,969,1025
5447,968,1024
5448,971,1025
5449,973,1028
5450,973,1027
5451,974,1025
5452,972,1023
5453,967,1023
5454,968,1024
5455,970,1026
5456,973,1028
5457,976,1025
5458,975,1025
5459,972,1028
5460,978,1029
5461,979,1034
5462,981,1032
5463,982,1031
5464,978,1030
5465,980,1029
5466,980,1032
5467,983,1036
5468,988,1038
5469,988,1034
5470,986,1034
5471,984,1035
5472,983,1037
5473,983,1039
5474,985,1037
5475,985,1034
5476,978,1029
5477,973,1028
5478,973,1030
5479,976,1031
5480,975,1031
5481,975,1030
5482,974,1027
5483,970,1028
5484,974,1030
5485,977,1034
5486,980,1037
5487,980,1033
5488,976,1033
5489,974,1031
5490,977,1033
5491,980,1035
5492,984,1035
5493,983,1032
5494,981,1026
5495,975,1023
5496,971,1023
5497,971,1025
5498,971,1023
5499,969,1025
5500,965,1021
5501,965,1023
5502,965,1023
5503,968,1026
5504,972,1024
5505,970,1023
5506,968,1019
5507,963,1020
5508,965,1021
5509,968,1023
5510,971,1023
5511,968,1022
5512,967,1020
5513,964,1021
5514,966,1023
5515,969,1023
5516,972,1022
5517,968,1019
5518,965,1019
5519,965,1021
5520,967,1023
5521,972,1026
5522,973,1023
5523,970,1023
5524,968,1021
5525,966,1022
5526,967,1025
5527,972,1030
5528,974,1032
5529,973,1034
5530,973,1034
5531,973,1039
5532,975,1050
5533,981,1061
5534,986,1074
5535,987,1083
5536,988,1092
5537,981,1100
5538,970,1128
5539,955,1158
5540,942,1189
5541,929,1217
5542,915,1245
5543,895,1279
5544,881,1312
5545,873,1348
5546,879,1387
5547,892,1428
5548,910,1453
5549,930,1452
5550,959,1414
5551,987,1345
5552,997,1248
5553,985,1162
5554,951,1101
5555,914,1056
5556,894,1030
5557,890,1020
5558,896,1021
5559,907,1021
5560,923,1021
5561,939,1018
5562,960,1021
5563,966,1021
5564,975,1020
5565,977,1014
5566,979,1007
5567,976,1004
5568,975,1005
5569,979,1004
5570,981,1003
5571,984,1000
5572,982,996
5573,981,998
5574,983,998
5575,983,999
5576,986,1001
5577,986,1000
5578,987,996
5579,984,994
5580,988,998
5581,993,998
5582,994,998
5583,993,996
5584,993,991
5585,990,992
5586,992,996
5587,994,995
5588,996,995
5589,998,990
5590,994,988
5591,995,988
5592,995,991
5593,996,993
5594,996,993
5595,997,990
5596,995,986
5597,993,986
5598,994,988
5599,995,988
5600,1000,990
5601,997,988
5602,995,984
5603,995,986
5604,995,987
5605,999,990
5606,1000,989
5607,999,987
5608,997,984
5609,995,984
5610,997,988
5611,1000,990
5612,1001,993
5613,1000,991
5614,999,985
5615,1000,986
5616,1003,988
5617,1004,991
5618,1008,991
5619,1009,989
5620,1008,986
5621,1006,990
5622,1005,992
5623,1010,995
5624,1013,992
5625,1013,992
5626,1012,991
5627,1010,990
5628,1013,993
5629,1012,998
5630,1017,999
5631,1018,996
5632,1019,996
5633,1015,997
5634,1018,1002
5635,1024,1008
5636,1024,1008
5637,1025,1008
5638,1023,1010
5639,1023,1012
5640,1025,1017
5641,1029,1022
5642,1031,1024
5643,1031,1025
5644,1031,1027
5645,1027,1030
5646,1031,1035
5647,1034,1042
5648,1039,1043
5649,1037,1044
5650,1037,1046
5651,1034,1052
5652,1036,1056
5653,1039,1065
5654,1042,1068
5655,1038,1067
5656,1036,1068
5657,1038,1068
5658,1037,1072
5659,1038,1076
5660,1039,1075
5661,1038,1073
5662,1032,1072
5663,1029,1069
5664,1026,1074
5665,1027,1073
5666,1025,1070
5667,1022,1067
5668,1020,1063
5669,1016,1060
5670,1013,1061
5671,1014,1061
5672,1015,1059
5673,1011,1053
5674,1006,1048
5675,1003,1048
5676,1001,1047
5677,1001,1048
5678,1002,1045
5679,1000,1044
5680,997,1038
5681,994,1039
5682,994,1039
5683,995,1042
5684,995,1039
5685,996,1040
5686,990,1036
5687,989,1035
5688,990,1037
5689,991,1040
5690,991,1039
5691,989,1036
5692,987,1032
5693,986,1034
5694,988,1036
5695,991,1039
5696,990,1037
5697,988,1035
5698,990,1032
5699,984,1032
5700,987,1035
5701,986,1037
5702,989,1036
5703,989,1036
5704,989,1033
5705,985,1035
5706,985,1035
5707,990,1036
5708,992,1036
5709,989,1033
5710,986,1029
5711,983,1031
5712,987,1031
5713,991,1034
5714,993,1032
5715,992,1032
5716,987,1027
5717,985,1028
5718,987,1030
5719,987,1030
5720,990,1032
5721,989,1029
5722,986,1028
5723,985,1028
5724,986,1031
5725,992,1032
5726,993,1032
5727,993,1028
5728,989,1026
5729,988,1028
5730,986,1031
5731,990,1034
5732,992,1032
5733,992,1031
5734,991,1027
5735,988,1027
5736,989,1030
5737,991,1033
5738,992,1033
5739,993,1031
5740,990,1032
5741,984,1029
5742,983,1031
5743,989,1033
5744,990,1031
5745,990,1029
5746,986,1030
5747,985,1030
5748,986,1031
5749,989,1035
5750,992,1033
5751,991,1031
5752,985,1029
5753,984,1029
5754,986,1031
5755,988,1034
5756,990,1034
5757,987,1033
5758,984,1027
5759,984,1029
5760,984,1030
5761,986,1030
5762,986,1032
5763,985,1031
5764,984,1028
5765,980,1026
5766,980,1028
5767,980,1030
5768,983,1032
5769,981,1028
5770,976,1026
5771,977,1028
5772,976,1030
5773,982,1031
5774,982,1028
5775,979,1026
5776,979,1024
5777,975,1022
5778,973,1028
5779,977,1028
5780,981,1028
5781,979,1025
5782,978,1024
5783,977,1024
5784,972,1025
5785,977,1028
5786,981,1027
5787,980,1026
5788,977,1024
5789,974,1024
5790,972,1028
5791,978,1028
5792,976,1027
5793,975,1026
5794,974,1023
5795,972,1023
5796,973,1028
5797,976,1027
5798,979,1027
5799,978,1026
5800,976,1024
5801,974,1025
5802,973,1028
5803,976,1027
5804,979,1027
5805,976,1025
5806,975,1023
5807,972,1027
5808,972,1028
5809,972,1031
5810,977,1029
5811,974,1028
5812,973,1023
5813,970,1026
5814,971,1026
5815,975,1031
5816,978,1031
5817,978,1030
5818,975,1025
5819,973,1027
5820,975,1030
5821,978,1032
5822,980,1029
5823,980,1026
5824,976,1024
5825,975,1028
5826,975,1030
5827,979,1034
5828,980,1029
5829,980,1031
5830,976,1026
5831,972,1024
5832,974,1030
5833,977,1033
5834,979,1032
5835,978,1029
5836,976,1029
5837,976,1027
5838,976,1030
5839,979,1033
5840,980,1029
5841,978,1028
5842,976,1026
5843,974,1027
5844,975,1030
5845,980,1033
5846,985,1034
5847,986,1033
5848,982,1030
5849,984,1033
5850,985,1037
5851,989,1039
5852,993,1041
5853,990,1039
5854,989,1036
5855,988,1038
5856,987,1041
5857,992,1043
5858,995,1044
5859,994,1040
5860,989,1039
5861,986,1042
5862,984,1044
5863,990,1044
5864,990,1040
5865,990,1039
5866,983,1033
5867,979,1033
5868,978,1037
5869,980,1040
5870,983,1037
5871,982,1037
5872,980,1035
5873,977,1037
5874,978,1040
5875,982,1044
5876,983,1042
5877,985,1039
5878,984,1037
5879,981,1036
5880,985,1038
5881,989,1040
5882,988,1035
5883,984,1031
5884,978,1026
5885,973,1028
5886,971,1030
5887,973,1033
5888,975,1031
5889,971,1033
5890,971,1029
5891,971,1028
5892,974,1028
5893,973,1031
5894,974,1032
5895,974,1030
5896,973,1026
5897,971,1026
5898,974,1029
5899,978,1031
5900,979,1031
5901,977,1027
5902,974,1027
5903,971,1026
5904,973,1027
5905,974,1030
5906,976,1030
5907,979,1028
5908,971,1024
5909,970,1026
5910,972,1029
5911,976,1027
5912,975,1029
5913,979,1028
5914,975,1028
5915,972,1029
5916,971,1033
5917,975,1035
5918,981,1035
5919,976,1036
5920,975,1036
5921,977,1042
5922,981,1053
5923,983,1065
5924,987,1077
5925,991,1084
5926,995,1096
5927,994,1111
5928,989,1133
5929,972,1166
5930,964,1199
5931,957,1231
5932,947,1259
5933,932,1290
5934,915,1327
5935,906,1360
5936,910,1400
5937,921,1440
5938,935,1465
5939,960,1473
5940,987,1458
5941,1015,1402
5942,1031,1317
5943,1026,1222
5944,994,1145
5945,952,1090
5946,922,1059
5947,906,1041
5948,906,1029
5949,908,1027
5950,912,1029
5951,925,1027
5952,947,1030
5953,961,1026
5954,975,1026
5955,980,1023
5956,978,1017
5957,979,1016
5958,983,1014
5959,986,1013
5960,989,1010
5961,988,1008
5962,985,1003
5963,984,1004
5964,987,1008
5965,994,1010
5966,999,1008
5967,996,1006
5968,992,1004
5969,994,1003
5970,995,1007
5971,997,1007
5972,1000,1009
5973,999,1006
5974,998,1004
5975,999,1004
5976,997,1006
5977,1003,1008
5978,1004,1006
5979,1003,1005
5980,1002,1001
5981,997,1000
5982,998,1003
5983,1003,1004
5984,999,1007
5985,1003,1002
5986,1001,999
5987,999,1000
5988,997,1003
5989,1000,1006
5990,1004,1004
5991,1004,1004
5992,1004,1001
5993,1001,999
5994,1004,1003
5995,1007,1005
5996,1009,1002
5997,1009,998
5998,1005,998
5999,1002,997
6000,1004,998
6001,1009,1002
6002,1012,1002
6003,1008,1000
6004,1007,997
6005,1007,998
6006,1007,1000
6007,1012,1003
6008,1014,1004
6009,1011,1003
6010,1011,998
6011,1009,1000
6012,1009,1004
6013,1011,1005
6014,1012,1002
6015,1014,1003
6016,1012,1002
6017,1012,1003
6018,1014,1005
6019,1016,1010
6020,1020,1007
6021,1019,1007
6022,1020,1002
6023,1018,1004
6024,1020,1008
6025,1023,1013
6026,1025,1014
6027,1026,1012
6028,1026,1011
6029,1022,1017
6030,1027,1020
6031,1029,1023
6032,1033,1024
6033,1035,1023
6034,1029,1024
6035,1032,1031
6036,1033,1034
6037,1038,1039
6038,1038,1043
6039,1040,1042
6040,1039,1046
6041,1038,1049
6042,1042,1056
6043,1045,1061
6044,1050,1067
6045,1046,1065
6046,1046,1065
6047,1043,1072
6048,1045,1078
6049,1045,1081
6050,1052,1084
6051,1046,1083
6052,1044,1084
6053,1040,1082
6054,1040,1084
6055,1039,1086
6056,1038,1082
6057,1037,1080
6058,1032,1076
6059,1028,1073
6060,1024,1074
6061,1024,1074
6062,1026,1070
6063,1019,1068
6064,1011,1061
6065,1008,1057
6066,1009,1058
6067,1009,1061
6068,1008,1054
6069,1005,1050
6070,1004,1046
6071,1002,1047
6072,1000,1047
6073,1002,1050
6074,999,1045
6075,997,1044
6076,996,1043
6077,995,1040
6078,997,1043
6079,996,1044
6080,999,1044
6081,999,1042
6082,996,1038
6083,993,1041
6084,993,1045
6085,995,1043
6086,999,1042
6087,995,1038
6088,989,1036
6089,988,1037
6090,989,1040
6091,993,1042
6092,996,1041
6093,995,1039
6094,993,1034
6095,990,1032
6096,988,1036
6097,993,1038
6098,995,1037
6099,993,1034
6100,992,1032
6101,986,1032
6102,988,1033
6103,992,1034
6104,993,1033
6105,990,1033
6106,991,1030
6107,987,1031
6108,987,1031
6109,991,1032
6110,992,1030
6111,989,1029
6112,986,1026
6113,981,1027
6114,982,1031
6115,988,1034
6116,989,1033
6117,987,1030
6118,983,1028
6119,984,1028
6120,985,1032
6121,990,1036
6122,990,1033
6123,988,1035
6124,990,1027
6125,987,1030
6126,988,1031
6127,991,1031
6128,993,1032
6129,991,1033
6130,989,1033
6131,985,1034
6132,989,1036
6133,989,1038
6134,993,1038
6135,990,1035
6136,987,1032
6137,984,1030
6138,987,1035
6139,989,1038
6140,991,1038
6141,990,1037
6142,987,1033
6143,986,1034
6144,986,1033
6145,988,1036
6146,987,1037
6147,988,1034
6148,984,1031
6149,981,1031
6150,983,1032
6151,986,1038
6152,987,1036
6153,986,1033
6154,982,1030
6155,980,1028
6156,984,1033
6157,986,1032
6158,984,1034
6159,983,1030
6160,976,1027
6161,978,1027
6162,980,1030
6163,982,1033
6164,985,1032
6165,983,1031
6166,981,1026
6167,979,1027
6168,981,1028
6169,982,1032
6170,985,1030
6171,982,1028
6172,979,1027
6173,978,1030
6174,979,1029
6175,980,1029
6176,982,1029
6177,980,1028
6178,975,1027
6179,976,1028
6180,976,1030
6181,979,1031
6182,981,1028
6183,978,1028
6184,975,1024
6185,974,1025
6186,975,1027
6187,980,1029
6188,981,1028
6189,977,1027
6190,974,1024
6191,972,1025
6192,974,1027
6193,976,1028
6194,978,1029
6195,978,1026
6196,974,1024
6197,974,1026
6198,973,1028
6199,973,1034
6200,978,1032
6201,976,1026
6202,973,1023
6203,973,1024
6204,973,1026
6205,975,1030
6206,977,1028
6207,974,1027
6208,971,1026
6209,970,1024
6210,972,1027
6211,976,1027
6212,979,1026
6213,976,1022
6214,974,1022
6215,972,1024
6216,971,1025
6217,975,1028
6218,975,1026
6219,973,1027
6220,975,1023
6221,972,1024
6222,973,1025
6223,977,1028
6224,979,1028
6225,977,1024
6226,975,1024
6227,974,1023
6228,975,1025
6229,976,1029
6230,979,1028
6231,975,1026
6232,974,1024
6233,973,1027
6234,973,1028
6235,975,1028
6236,975,1026
6237,973,1026
6238,972,1025
6239,971,1028
6240,978,1030
6241,981,1032
6242,979,1034
6243,982,1032
6244,981,1028
6245,978,1031
6246,979,1032
6247,985,1035
6248,989,1035
6249,988,1036
6250,983,1036
6251,983,1037
6252,983,1037
6253,987,1040
6254,988,1038
6255,984,1034
6256,981,1032
6257,977,1032
6258,976,1033
6259,977,1034
6260,977,1035
6261,974,1032
6262,971,1026
6263,969,1029
6264,974,1032
6265,974,1035
6266,976,1036
6267,976,1034
6268,973,1032
6269,972,1032
6270,978,1035
6271,981,1037
6272,984,1035
6273,983,1031
6274,977,1027
6275,975,1026
6276,971,1026
6277,972,1026
6278,969,1025
6279,970,1026
6280,966,1023
6281,967,1025
6282,971,1030
6283,971,1032
6284,973,1029
6285,970,1026
6286,966,1020
6287,964,1023
6288,967,1024
6289,968,1026
6290,971,1027
6291,968,1023
6292,964,1024
6293,963,1022
6294,964,1024
6295,968,1028
6296,967,1027
6297,968,1023
6298,965,1022
6299,964,1022
6300,966,1026
6301,968,1026
6302,970,1024
6303,969,1025
6304,964,1023
6305,961,1025
6306,964,1031
6307,967,1033
6308,973,1032
6309,971,1031
6310,970,1034
6311,969,1041
6312,972,1050
6313,981,1060
6314,984,1071
6315,984,1080
6316,986,1089
6317,990,1103
6318,987,1124
6319,979,1151
6320,968,1180
6321,957,1214
6322,944,1241
6323,929,1274
6324,915,1308
6325,900,1341
6326,901,1377
6327,905,1417
6328,924,1449
6329,948,1459
6330,980,1439
6331,1007,1377
6332,1021,1274
6333,1009,1173
6334,967,1099
6335,924,1055
6336,898,1033
6337,895,1027
6338,904,1027
6339,918,1024
6340,933,1022
6341,954,1020
6342,964,1023
6343,967,1020
6344,972,1015
6345,973,1010
6346,972,1001
6347,968,1002
6348,969,1003
6349,974,1004
6350,978,1003
6351,979,1001
6352,977,1000
6353,975,1000
6354,979,1001
6355,982,1002
6356,985,1000
6357,984,997
6358,977,997
6359,978,995
6360,983,995
6361,984,999
6362,985,997
6363,983,995
6364,982,997
6365,982,998
6366,981,998
6367,987,998
6368,987,995
6369,987,995
6370,984,990
6371,982,992
6372,984,995
6373,987,997
6374,989,996
6375,987,996
6376,986,993
6377,986,990
6378,984,991
6379,989,996
6380,989,993
6381,987,993
6382,987,991
6383,985,991
6384,988,991
6385,990,995
6386,992,995
6387,990,991
6388,987,990
6389,986,991
6390,990,992
6391,992,994
6392,995,994
6393,991,993
6394,991,989
6395,989,986
6396,990,991
6397,994,993
6398,997,992
6399,994,994
6400,996,992
6401,995,993
6402,997,995
6403,1000,996
6404,1001,996
6405,1000,993
6406,999,989
6407,1000,992
6408,1001,997
6409,1003,1000
6410,1007,999
6411,1006,998
6412,1003,998
6413,1004,999
6414,1006,1003
6415,1008,1005
6416,1011,1008
6417,1010,1009
6418,1012,1006
6419,1012,1010
6420,1014,1015
6421,1016,1021
6422,1018,1022
6423,1020,1023
6424,1018,1025
6425,1019,1029
6426,1022,1036
6427,1023,1040
6428,1026,1042
6429,1024,1045
6430,1024,1045
6431,1022,1052
6432,1023,1057
6433,1025,1059
6434,1028,1063
6435,1027,1060
6436,1024,1062
6437,1022,1063
6438,1022,1069
6439,1025,1071
6440,1024,1070
6441,1023,1066
6442,1017,1063
6443,1016,1063
6444,1015,1062
6445,1010,1061
6446,1010,1060
6447,1009,1056
6448,1003,1051
6449,999,1047
6450,998,1045
6451,998,1049
6452,997,1043
6453,998,1040
6454,992,1038
6455,990,1037
6456,990,1038
6457,992,1039
6458,992,1035
6459,989,1034
6460,987,1031
6461,982,1028
6462,986,1033
6463,984,1033
6464,985,1033
6465,987,1031
6466,984,1029
6467,980,1029
6468,981,1031
6469,985,1032
6470,985,1028
6471,985,1027
6472,981,1028
6473,978,1028
6474,980,1029
6475,983,1029
6476,984,1028
6477,982,1025
6478,980,1024
6479,978,1023
6480,978,1023
6481,982,1026
6482,983,1024
6483,983,1022
6484,979,1019
6485,977,1020
6486,976,1021
6487,983,1022
6488,985,1024
6489,985,1019
6490,981,1019
6491,978,1019
6492,980,1020
6493,982,1023
6494,983,1021
6495,982,1018
6496,979,1015
6497,978,1012
6498,979,1015
6499,981,1018
6500,983,1019
6501,983,1017
6502,981,1015
6503,979,1015
6504,980,1015
6505,983,1019
6506,984,1016
6507,984,1015
6508,982,1015
6509,981,1014
6510,979,1016
6511,982,1020
6512,985,1017
6513,984,1016
6514,983,1015
6515,981,1015
6516,981,1018
6517,986,1021
6518,985,1019
6519,986,1017
6520,983,1015
6521,981,1016
6522,982,1019
6523,984,1020
6524,984,1021
6525,985,1016
6526,980,1017
6527,980,1015
6528,977,1016
6529,983,1019
6530,984,1014
6531,984,1014
6532,980,1012
6533,977,1013
6534,979,1015
6535,982,1017
6536,983,1017
6537,982,1013
6538,978,1011
6539,975,1013
6540,978,1016
6541,980,1020
6542,980,1015
6543,982,1016
6544,977,1007
6545,975,1010
6546,977,1014
6547,976,1015
6548,979,1016
6549,979,1013
6550,976,1008
6551,973,1013
6552,976,1013
6553,977,1016
6554,978,1015
6555,978,1014
6556,973,1010
6557,974,1011
6558,975,1016
6559,978,1016
6560,979,1013
6561,978,1012
6562,975,1011
6563,973,1010
6564,974,1012
6565,975,1016
6566,975,1014
6567,977,1011
6568,972,1009
6569,972,1010
6570,973,1012
6571,975,1014
6572,976,1013
6573,974,1011
6574,973,1008
6575,967,1010
6576,969,1010
6577,973,1013
6578,975,1013
6579,974,1008
6580,970,1006
6581,968,1007
6582,969,1009
6583,975,1012
6584,976,1013
6585,977,1013
6586,974,1007
6587,970,1006
6588,972,1008
6589,974,1011
6590,978,1011
6591,977,1010
6592,973,1006
6593,972,1007
6594,973,1010
6595,975,1009
6596,975,1008
6597,974,1009
6598,974,1008
6599,971,1007
6600,973,1009
6601,976,1013
6602,976,1012
6603,974,1007
6604,972,1007
6605,970,1005
6606,971,1009
6607,975,1009
6608,977,1010
6609,975,1009
6610,975,1007
6611,974,1009
6612,974,1008
6613,976,1011
6614,979,1008
6615,977,1006
6616,973,1008
6617,975,1006
6618,974,1010
6619,977,1012
6620,980,1010
6621,977,1008
6622,975,1006
6623,975,1006
6624,976,1011
6625,975,1013
6626,980,1013
6627,979,1010
6628,978,1010
6629,980,1011
6630,982,1015
6631,986,1018
6632,989,1018
6633,990,1018
6634,988,1014
6635,987,1017
6636,988,1019
6637,991,1022
6638,994,1024
6639,994,1021
6640,992,1020
6641,990,1022
6642,989,1020
6643,992,1023
6644,993,1018
6645,990,1016
6646,984,1014
6647,979,1013
6648,982,1015
6649,982,1019
6650,984,1018
6651,984,1017
6652,981,1012
6653,980,1015
6654,979,1020
6655,982,1021
6656,986,1019
6657,984,1022
6658,985,1014
6659,983,1016
6660,985,1015
6661,986,1015
6662,985,1013
6663,980,1008
6664,973,1009
6665,968,1011
6666,970,1011
6667,977,1013
6668,979,1011
6669,974,1010
6670,974,1008
6671,971,1010
6672,972,1012
6673,974,1016
6674,974,1010
6675,974,1009
6676,969,1007
6677,971,1009
6678,973,1011
6679,975,1017
6680,976,1013
6681,973,1008
6682,971,1008
6683,970,1008
6684,971,1012
6685,972,1014
6686,975,1014
6687,973,1010
6688,971,1010
6689,969,1009
6690,970,1012
6691,974,1017
6692,977,1017
6693,977,1016
6694,976,1019
6695,976,1025
6696,978,1035
6697,985,1046
6698,987,1059
6699,994,1069
6700,995,1077
6701,988,1100
6702,973,1131
6703,958,1167
6704,944,1200
6705,934,1233
6706,916,1266
6707,898,1302
6708,883,1340
6709,888,1387
6710,901,1429
6711,923,1459
6712,946,1458
6713,971,1427
6714,998,1356
6715,1006,1263
6716,995,1166
6717,959,1096
6718,919,1048
6719,896,1020
6720,892,1014
6721,901,1015
6722,917,1012
6723,934,1011
6724,952,1006
6725,964,1008
6726,971,1006
6727,977,1007
6728,981,1003
6729,982,996
6730,979,993
6731,980,990
6732,981,991
6733,986,992
6734,989,992
6735,988,988
6736,985,988
6737,985,987
6738,986,990
6739,991,990
6740,993,987
6741,991,985
6742,989,984
6743,990,986
6744,990,986
6745,995,988
6746,996,985
6747,993,985
6748,993,979
6749,994,983
6750,992,987
6751,998,986
6752,999,986
6753,997,981
6754,997,980
6755,997,979
6756,995,983
6757,995,984
6758,1001,982
6759,1000,980
6760,996,978
6761,996,979
6762,998,982
6763,1001,983
6764,1003,979
6765,1001,976
6766,999,974
6767,999,976
6768,1003,980
6769,1003,981
6770,1002,980
6771,1002,976
6772,1000,975
6773,1000,976
6774,1000,980
6775,1001,978
6776,1005,980
6777,1009,979
6778,1006,977
6779,1006,980
6780,1005,982
6781,1009,984
6782,1010,980
6783,1011,981
6784,1009,979
6785,1008,980
6786,1011,985
6787,1014,986
6788,1015,982
6789,1017,983
6790,1014,982
6791,1013,984
6792,1017,988
6793,1020,992
6794,1025,992
6795,1026,992
6796,1023,991
6797,1025,994
6798,1027,1000
6799,1032,1006
6800,1037,1007
6801,1031,1009
6802,1032,1011
6803,1034,1016
6804,1038,1025
6805,1040,1031
6806,1043,1033
6807,1045,1037
6808,1041,1039
6809,1041,1046
6810,1043,1053
6811,1047,1058
6812,1046,1058
6813,1047,1057
6814,1040,1058
6815,1038,1059
6816,1037,1061
6817,1037,1064
6818,1033,1059
6819,1032,1057
6820,1025,1051
6821,1022,1047
6822,1021,1048
6823,1019,1048
6824,1018,1044
6825,1014,1039
6826,1010,1035
6827,1006,1032
6828,1005,1031
6829,1006,1031
6830,1005,1028
6831,1000,1027
6832,996,1023
6833,996,1023
6834,995,1022
6835,995,1025
6836,998,1022
6837,996,1022
6838,992,1018
6839,990,1018
6840,991,1022
6841,993,1024
6842,993,1022
6843,992,1019
6844,988,1016
6845,988,1016
6846,988,1017
6847,993,1019
6848,995,1018
6849,994,1015
6850,991,1013
6851,989,1012
6852,991,1017
6853,992,1017
6854,993,1016
6855,992,1015
6856,990,1010
6857,989,1012
6858,986,1013
6859,991,1015
6860,994,1012
6861,993,1013
6862,990,1009
6863,986,1009
6864,987,1012
6865,992,1013
6866,992,1011
6867,991,1008
6868,988,1004
6869,986,1006
6870,989,1009
6871,992,1010
6872,992,1012
6873,992,1010
6874,988,1008
6875,988,1007
6876,991,1011
6877,989,1015
6878,992,1014
6879,990,1010
6880,990,1010
6881,984,1013
6882,988,1014
6883,990,1017
6884,990,1015
6885,990,1012
6886,989,1011
6887,989,1015
6888,990,1019
6889,992,1021
6890,994,1014
6891,990,1015
6892,988,1014
6893,986,1016
6894,988,1017
6895,990,1019
6896,989,1020
6897,989,1017
6898,986,1017
6899,984,1017
6900,984,1016
6901,988,1020
6902,989,1018
6903,987,1016
6904,985,1013
6905,984,1015
6906,986,1015
6907,987,1017
6908,991,1017
6909,985,1014
6910,985,1011
6911,984,1015
6912,982,1013
6913,986,1016
6914,985,1016
6915,983,1015
6916,981,1012
6917,979,1013
6918,980,1014
6919,982,1017
6920,982,1015
6921,983,1014
6922,979,1011
6923,977,1011
6924,981,1014
6925,981,1015
6926,984,1015
6927,983,1011
6928,979,1012
6929,977,1012
6930,978,1014
6931,980,1018
6932,982,1013
6933,981,1012
6934,979,1011
6935,978,1009
6936,980,1012
6937,983,1014
6938,984,1013
6939,981,1011
6940,978,1007
6941,978,1010
6942,979,1010
6943,982,1014
6944,983,1011
6945,983,1010
6946,979,1008
6947,979,1011
6948,980,1012
6949,983,1016
6950,986,1013
6951,983,1008
6952,978,1005
6953,977,1008
6954,980,1011
6955,983,1013
6956,984,1013
6957,979,1010
6958,980,1010
6959,977,1011
6960,978,1013
6961,979,1016
6962,981,1014
6963,982,1012
6964,979,1010
6965,980,1011
6966,981,1015
6967,985,1015
6968,985,1013
6969,984,1010
6970,981,1010
6971,979,1011
6972,982,1012
6973,984,1015
6974,986,1015
6975,983,1012
6976,979,1008
6977,978,1013
6978,979,1012
6979,983,1017
6980,983,1014
6981,983,1013
6982,981,1011
6983,981,1010
6984,981,1012
6985,985,1014
6986,981,1014
6987,984,1011
6988,981,1011
6989,981,1012
6990,981,1014
6991,986,1013
6992,987,1014
6993,983,1012
6994,985,1009
6995,984,1012
6996,982,1015
6997,987,1017
6998,988,1015
6999,988,1013
7000,989,1011
7001,988,1012
7002,993,1016
7003,996,1020
7004,1000,1021
7005,998,1021
7006,996,1021
7007,994,1022
7008,995,1024
7009,998,1025
7010,1000,1023
7011,998,1024
7012,998,1024
7013,995,1026
7014,997,1026
7015,997,1028
7016,1000,1026
7017,994,1025
7018,992,1020
7019,990,1019
7020,990,1020
7021,988,1022
7022,989,1020
7023,987,1018
7024,982,1019
7025,981,1020
7026,982,1020
7027,988,1021
7028,987,1023
7029,987,1021
7030,986,1019
7031,986,1019
7032,987,1024
7033,990,1024
7034,991,1021
7035,989,1017
7036,986,1010
7037,980,1011
7038,980,1011
7039,980,1015
7040,980,1014
7041,978,1011
7042,977,1011
7043,975,1012
7044,978,1013
7045,978,1018
7046,981,1014
7047,980,1011
7048,976,1006
7049,973,1007
7050,974,1011
7051,976,1014
7052,978,1012
7053,976,1009
7054,975,1011
7055,974,1011
7056,976,1012
7057,977,1016
7058,979,1017
7059,978,1012
7060,973,1013
7061,973,1011
7062,976,1014
7063,978,1015
7064,980,1017
7065,975,1014
7066,972,1012
7067,975,1015
7068,977,1016
7069,978,1018
7070,981,1017
7071,978,1017
7072,975,1019
7073,976,1023
7074,983,1031
7075,986,1038
7076,989,1045
7077,990,1049
7078,989,1061
7079,993,1074
7080,999,1087
7081,998,1103
7082,985,1127
7083,967,1152
7084,955,1180
7085,945,1211
7086,935,1244
7087,921,1272
7088,904,1301
7089,895,1331
7090,896,1366
7091,906,1407
7092,929,1435
7093,955,1442
7094,983,1420
7095,1004,1367
7096,1016,1286
7097,1013,1193
7098,990,1117
7099,954,1069
7100,917,1036
7101,897,1013
7102,890,1004
7103,899,1007
7104,911,1013
7105,928,1018
7106,949,1017
7107,968,1011
7108,977,1010
7109,979,1007
7110,984,1007
7111,988,1007
7112,988,1002
7113,988,997
7114,986,995
7115,988,997
7116,988,1000
7117,993,1002
7118,995,999
7119,992,996
7120,992,995
7121,991,995
7122,994,998
7123,997,1002
7124,999,998
7125,998,998
7126,996,993
7127,992,996
7128,993,998
7129,995,1000
7130,997,999
7131,1000,996
7132,993,993
7133,995,992
7134,997,998
7135,999,998
7136,1000,998
7137,999,993
7138,997,992
7139,997,991
7140,1001,993
7141,1002,994
7142,1004,994
7143,999,992
7144,1000,991
7145,997,992
7146,1000,994
7147,1003,994
7148,1003,991
7149,1002,992
7150,999,989
7151,997,990
7152,999,994
7153,1004,996
7154,1005,994
7155,1001,988
7156,1002,988
7157,998,988
7158,1001,993
7159,1002,993
7160,1006,992
7161,1003,990
7162,1006,989
7163,1003,992
7164,1008,993
7165,1009,996
7166,1010,993
7167,1007,994
7168,1002,988
7169,1002,993
7170,1007,992
7171,1012,996
7172,1012,994
7173,1013,994
7174,1009,994
7175,1011,992
7176,1014,997
7177,1015,996
7178,1016,997
7179,1015,996
7180,1012,995
7181,1014,998
7182,1015,999
7183,1020,1002
7184,1023,1003
7185,1023,1000
7186,1019,1001
7187,1018,1004
7188,1023,1009
7189,1029,1014
7190,1027,1016
7191,1028,1013
7192,1027,1013
7193,1028,1018
7194,1031,1020
7195,1033,1025
7196,1035,1027
7197,1034,1027
7198,1034,1027
7199,1032,1033
7200,1033,1038
7201,1036,1046
7202,1041,1047
7203,1039,1046
7204,1038,1046
7205,1035,1052
7206,1037,1055
7207,1039,1060
7208,1037,1062
7209,1037,1059
7210,1032,1057
7211,1028,1059
7212,1031,1064
7213,1031,1066
7214,1030,1064
7215,1027,1059
7216,1023,1053
7217,1018,1053
7218,1021,1054
7219,1022,1055
7220,1020,1054
7221,1016,1047
7222,1008,1044
7223,1004,1040
7224,1006,1042
7225,1005,1043
7226,1003,1039
7227,1003,1031
7228,998,1030
7229,994,1026
7230,996,1031
7231,995,1032
7232,995,1030
7233,993,1026
7234,989,1022
7235,988,1025
7236,988,1025
7237,990,1025
7238,990,1024
7239,992,1022
7240,986,1020
7241,984,1021
7242,987,1024
7243,987,1026
7244,990,1022
7245,989,1021
7246,985,1018
7247,986,1019
7248,986,1022
7249,989,1023
7250,990,1022
7251,988,1023
7252,986,1018
7253,983,1019
7254,986,1019
7255,985,1021
7256,987,1018
7257,983,1018
7258,983,1013
7259,981,1017
7260,983,1017
7261,983,1019
7262,985,1015
7263,984,1011
7264,980,1011
7265,978,1010
7266,979,1012
7267,982,1017
7268,984,1013
7269,981,1011
7270,982,1009
7271,978,1009
7272,980,1010
7273,984,1013
7274,983,1012
7275,981,1011
7276,979,1008
7277,979,1010
7278,980,1011
7279,984,1014
7280,984,1012
7281,983,1010
7282,980,1008
7283,982,1010
7284,983,1012
7285,985,1013
7286,985,1011
7287,982,1013
7288,980,1011
7289,979,1013
7290,979,1015
7291,982,1014
7292,982,1014
7293,979,1013
7294,979,1010
7295,977,1014
7296,981,1017
7297,982,1020
7298,982,1019
7299,979,1015
7300,977,1013
7301,979,1015
7302,980,1016
7303,983,1020
7304,984,1014
7305,983,1014
7306,975,1012
7307,973,1014
7308,978,1016
7309,981,1018
7310,980,1018
7311,980,1014
7312,977,1011
7313,977,1012
7314,978,1015
7315,981,1014
7316,979,1014
7317,978,1010
7318,972,1009
7319,972,1011
7320,976,1015
7321,977,1015
7322,978,1015
7323,979,1012
7324,975,1012
7325,973,1013
7326,974,1016
7327,974,1015
7328,976,1015
7329,974,1013
7330,972,1008
7331,970,1011
7332,970,1013
7333,971,1017
7334,975,1014
7335,971,1011
7336,970,1007
7337,970,1009
7338,971,1012
7339,973,1014
7340,975,1013
7341,975,1012
7342,970,1010
7343,970,1012
7344,971,1015
7345,972,1016
7346,975,1015
7347,973,1012
7348,971,1009
7349,970,1010
7350,970,1012
7351,971,1014
7352,973,1012
7353,972,1010
7354,968,1008
7355,968,1009
7356,969,1011
7357,972,1012
7358,971,1012
7359,969,1012
7360,965,1010
7361,967,1009
7362,968,1011
7363,971,1014
7364,970,1012
7365,970,1010
7366,964,1005
7367,964,1009
7368,966,1010
7369,969,1016
7370,967,1012
7371,970,1011
7372,967,1007
7373,965,1008
7374,968,1013
7375,969,1015
7376,969,1015
7377,968,1012
7378,964,1009
7379,965,1009
7380,962,1013
7381,969,1012
7382,969,1015
7383,968,1011
7384,967,1009
7385,966,1012
7386,967,1012
7387,970,1018
7388,968,1016
7389,967,1012
7390,962,1009
7391,962,1010
7392,964,1013
7393,967,1015
7394,968,1013
7395,964,1010
7396,961,1014
7397,965,1013
7398,966,1015
7399,969,1014
7400,967,1014
7401,969,1011
7402,962,1010
7403,964,1010
7404,966,1015
7405,969,1013
7406,969,1014
7407,966,1012
7408,963,1010
7409,960,1011
7410,965,1013
7411,969,1018
7412,972,1016
7413,969,1016
7414,969,1015
7415,970,1017
7416,970,1020
7417,977,1021
7418,977,1021
7419,977,1022
7420,974,1022
7421,972,1023
7422,975,1024
7423,979,1028
7424,979,1029
7425,982,1027
7426,979,1024
7427,978,1026
7428,978,1029
7429,981,1028
7430,979,1028
7431,975,1025
7432,972,1022
7433,970,1021
7434,969,1021
7435,972,1021
7436,971,1021
7437,969,1022
7438,964,1017
7439,962,1022
7440,963,1023
7441,968,1028
7442,969,1026
7443,969,1023
7444,968,1023
7445,968,1023
7446,971,1026
7447,975,1029
7448,974,1024
7449,972,1022
7450,970,1016
7451,965,1013
7452,963,1017
7453,961,1019
7454,962,1016
7455,959,1015
7456,960,1014
7457,958,1014
7458,959,1019
7459,961,1020
7460,963,1016
7461,963,1014
7462,961,1012
7463,957,1012
7464,959,1018
7465,966,1018
7466,965,1018
7467,962,1016
7468,960,1013
7469,960,1015
7470,961,1017
7471,964,1019
7472,965,1019
7473,965,1016
7474,960,1010
7475,959,1013
7476,960,1014
7477,963,1018
7478,963,1015
7479,960,1015
7480,955,1015
7481,955,1017
7482,960,1018
7483,964,1020
7484,965,1020
7485,962,1018
7486,959,1018
7487,960,1023
7488,962,1025
7489,967,1032
7490,968,1038
7491,967,1044
7492,971,1054
7493,975,1068
7494,982,1080
7495,986,1091
7496,989,1102
7497,974,1125
7498,958,1151
7499,944,1180
7500,936,1215
7501,926,1248
7502,911,1276
7503,890,1301
7504,878,1334
7505,882,1374
7506,897,1416
7507,921,1443
7508,949,1440
7509,975,1405
7510,993,1336
7511,1000,1247
7512,988,1160
7513,959,1094
7514,919,1050
7515,892,1024
7516,881,1011
7517,883,1011
7518,894,1017
7519,915,1023
7520,937,1018
7521,951,1015
7522,958,1012
7523,959,1009
7524,958,1007
7525,966,1006
7526,969,1004
7527,967,999
7528,965,999
7529,967,997
7530,969,997
7531,973,1000
7532,972,997
7533,972,995
7534,971,990
7535,971,991
7536,974,994
7537,978,998
7538,978,994
7539,973,992
7540,974,989
7541,973,990
7542,977,993
7543,978,997
7544,979,993
7545,976,991
7546,973,990
7547,974,991
7548,978,992
7549,980,995
7550,980,994
7551,977,988
7552,977,986
7553,976,989
7554,979,992
7555,979,992
7556,980,990
7557,979,986
7558,975,984
7559,977,986
7560,979,988
7561,983,990
7562,984,990
7563,982,988
7564,976,986
7565,978,986
7566,980,990
7567,982,989
7568,984,990
7569,980,989
7570,982,986
7571,979,986
7572,983,986
7573,987,990
7574,984,985
7575,982,984
7576,982,982
7577,980,984
7578,986,988
7579,990,989
7580,992,989
7581,991,986
7582,987,984
7583,988,986
7584,989,990
7585,995,992
7586,994,993
7587,995,988
7588,993,988
7589,992,989
7590,997,990
7591,999,992
7592,999,995
7593,998,993
7594,997,993
7595,998,997
7596,1000,997
7597,1003,1001
7598,1004,1000
7599,1002,1001
7600,1002,998
7601,1003,1002
7602,1006,1009
7603,1009,1014
7604,1012,1013
7605,1008,1015
7606,1008,1016
7607,1006,1017
7608,1011,1022
7609,1016,1028
7610,1018,1032
7611,1014,1030
7612,1013,1033
7613,1014,1038
7614,1016,1043
7615,1021,1048
7616,1019,1050
7617,1019,1051
7618,1015,1050
7619,1011,1054
7620,1014,1059
7621,1015,1061
7622,1017,1059
7623,1012,1053
7624,1007,1051
7625,1003,1051
7626,1002,1054
7627,1004,1056
7628,1004,1053
7629,1001,1046
7630,997,1045
7631,994,1040
7632,992,1043
7633,995,1044
7634,991,1039
7635,988,1034
7636,986,1031
7637,983,1032
7638,982,1031
7639,984,1032
7640,983,1031
7641,982,1028
7642,979,1024
7643,978,1028
7644,974,1030
7645,980,1028
7646,979,1028
7647,978,1026
7648,976,1023
7649,974,1022
7650,975,1024
7651,978,1026
7652,977,1024
7653,976,1022
7654,974,1018
7655,972,1022
7656,973,1024
7657,977,1024
7658,976,1023
7659,972,1018
7660,969,1016
7661,969,1018
7662,972,1021
7663,977,1021
7664,976,1018
7665,976,1015
7666,973,1014
7667,974,1015
7668,973,1018
7669,977,1019
7670,979,1018
7671,975,1015
7672,971,1011
7673,972,1014
7674,976,1016
7675,976,1016
7676,976,1014
7677,977,1009
7678,973,1010
7679,974,1011
7680,976,1013
7681,976,1013
7682,975,1013
7683,973,1011
7684,970,1009
7685,972,1011
7686,972,1011
7687,977,1015
7688,978,1013
7689,972,1011
7690,972,1009
7691,974,1011
7692,977,1014
7693,979,1014
7694,982,1012
7695,978,1013
7696,975,1012
7697,976,1014
7698,976,1016
7699,979,1016
7700,978,1016
7701,976,1013
7702,977,1010
7703,975,1013
7704,975,1016
7705,979,1020
7706,979,1018
7707,977,1011
7708,973,1012
7709,973,1014
7710,975,1018
7711,978,1016
7712,977,1012
7713,976,1010
7714,972,1010
7715,973,1012
7716,970,1015
7717,974,1018
7718,979,1014
7719,975,1010
7720,971,1008
7721,970,1009
7722,974,1014
7723,976,1016
7724,975,1015
7725,971,1009
7726,969,1009
7727,970,1011
7728,970,1013
7729,973,1016
7730,971,1013
7731,972,1010
7732,969,1006
7733,967,1011
7734,969,1013
7735,970,1016
7736,970,1012
7737,967,1011
7738,964,1009
7739,963,1008
7740,967,1013
7741,970,1011
7742,969,1010
7743,966,1007
7744,965,1007
7745,964,1008
7746,965,1013
7747,968,1013
7748,965,1012
7749,966,1007
7750,964,1008
7751,962,1008
7752,965,1012
7753,967,1013
7754,968,1015
7755,966,1007
7756,963,1007
7757,963,1009
7758,966,1013
7759,967,1011
7760,968,1010
7761,964,1008
7762,963,1007
7763,964,1010
7764,965,1012
7765,967,1011
7766,968,1010
7767,964,1008
7768,964,1005
7769,965,1008
7770,964,1010
7771,967,1011
7772,969,1013
7773,966,1008
7774,962,1006
7775,964,1008
7776,966,1011
7777,968,1013
7778,968,1011
7779,968,1008
7780,962,1007
7781,963,1007
7782,964,1011
7783,969,1011
7784,968,1012
7785,967,1009
7786,964,1006
7787,964,1008
7788,967,1012
7789,965,1014
7790,969,1011
7791,966,1008
7792,963,1005
7793,962,1007
7794,965,1010
7795,969,1016
7796,969,1012
7797,966,1010
7798,963,1005
7799,964,1009
7800,963,1012
7801,967,1014
7802,969,1012
7803,967,1012
7804,967,1007
7805,964,1009
7806,967,1012
7807,968,1013
7808,968,1010
7809,967,1009
7810,964,1008
7811,964,1010
7812,965,1014
7813,968,1015
7814,969,1012
7815,966,1008
7816,962,1007
7817,966,1011
7818,971,1015
7819,974,1016
7820,976,1017
7821,976,1014
7822,973,1016
7823,976,1016
7824,977,1020
7825,979,1022
7826,978,1023
7827,977,1019
7828,979,1021
7829,976,1021
7830,982,1025
7831,985,1027
7832,984,1027
7833,982,1023
7834,975,1020
7835,975,1021
7836,977,1022
7837,977,1023
7838,975,1019
7839,971,1017
7840,967,1016
7841,964,1017
7842,969,1020
7843,970,1021
7844,972,1020
7845,970,1018
7846,967,1020
7847,967,1024
7848,970,1023
7849,974,1024
7850,978,1021
7851,974,1018
7852,973,1018
7853,974,1015
7854,972,1015
7855,970,1016
7856,967,1013
7857,963,1009
7858,959,1010
7859,958,1014
7860,960,1013
7861,964,1014
7862,966,1015
7863,966,1008
7864,962,1010
7865,963,1011
7866,962,1016
7867,965,1016
7868,965,1014
7869,963,1013
7870,962,1008
7871,960,1012
7872,964,1010
7873,963,1015
7874,963,1011
7875,961,1008
7876,959,1009
7877,961,1013
7878,962,1015
7879,965,1014
7880,965,1015
7881,962,1011
7882,960,1010
7883,960,1011
7884,960,1017
7885,966,1017
7886,965,1020
7887,966,1017
7888,962,1019
7889,965,1022
7890,968,1032
7891,973,1041
7892,976,1052
7893,980,1063
7894,979,1073
7895,982,1087
7896,977,1112
7897,964,1140
7898,948,1171
7899,934,1206
7900,921,1240
7901,905,1275
7902,890,1311
7903,883,1350
7904,889,1396
7905,902,1432
7906,922,1458
7907,953,1452
7908,982,1409
7909,1003,1329
7910,1008,1221
7911,977,1126
7912,932,1061
7913,891,1025
7914,879,1010
7915,883,1012
7916,897,1014
7917,916,1013
7918,936,1011
7919,951,1010
7920,958,1012
7921,967,1009
7922,970,1003
7923,972,997
7924,966,994
7925,966,994
7926,968,993
7927,973,997
7928,975,994
7929,976,990
7930,973,989
7931,975,989
7932,978,991
7933,984,992
7934,983,992
7935,983,989
7936,978,983
7937,980,987
7938,984,989
7939,987,991
7940,987,989
7941,983,986
7942,985,984
7943,980,985
7944,985,988
7945,986,988
7946,988,986
7947,986,982
7948,983,981
7949,982,984
7950,984,987
7951,989,986
7952,987,987
7953,984,981
7954,984,980
7955,983,981
7956,987,984
7957,989,986
7958,989,984
7959,988,980
7960,984,978
7961,986,981
7962,988,983
7963,990,984
7964,993,984
7965,990,981
7966,989,980
7967,987,981
7968,992,983
7969,995,986
7970,996,984
7971,995,983
7972,990,985
7973,994,985
7974,995,988
7975,998,992
7976,998,988
7977,998,985
7978,997,988
7979,998,986
7980,1001,993
7981,1006,992
7982,1005,993
7983,1008,991
7984,1004,993
7985,1007,995
7986,1009,1001
7987,1013,1002
7988,1011,1002
7989,1011,1002
7990,1011,1003
7991,1014,1008
7992,1018,1011
7993,1023,1018
7994,1023,1020
7995,1020,1021
7996,1018,1021
7997,1020,1025
7998,1024,1030
7999,1028,1035
8000,1027,1039
8001,1025,1038
8002,1026,1042
8003,1027,1047
8004,1029,1051
8005,1030,1055
8006,1029,1058
8007,1030,1056
8008,1027,1058
8009,1026,1061
8010,1027,1065
8011,1027,1065
8012,1025,1067
8013,1023,1061
8014,1019,1060
8015,1015,1057
8016,1015,1060
8017,1015,1057
8018,1014,1054
8019,1007,1050
8020,1001,1047
8021,1001,1048
8022,998,1044
8023,1000,1043
8024,1001,1041
8025,997,1034
8026,990,1033
8027,988,1033
8028,992,1035
8029,991,1033
8030,989,1030
8031,986,1025
8032,982,1024
8033,981,1024
8034,981,1025
8035,984,1027
8036,981,1025
8037,981,1021
8038,979,1023
8039,977,1023
8040,980,1026
8041,981,1024
8042,979,1021
8043,978,1019
8044,973,1018
8045,976,1019
8046,979,1021
8047,977,1024
8048,979,1023
8049,976,1018
8050,972,1020
8051,973,1018
8052,979,1020
8053,980,1023
8054,976,1022
8055,975,1018
8056,974,1016
8057,973,1017
8058,975,1018
8059,977,1020
8060,976,1017
8061,973,1013
8062,972,1014
8063,972,1014
8064,974,1017
8065,976,1019
8066,974,1015
8067,976,1013
8068,971,1012
8069,971,1014
8070,976,1016
8071,976,1018
8072,978,1013
8073,976,1012
8074,969,1012
8075,969,1011
8076,975,1014
8077,975,1013
8078,974,1013
8079,971,1013
8080,969,1011
8081,969,1014
8082,974,1013
8083,978,1016
8084,977,1013
8085,972,1012
8086,969,1013
8087,971,1015
8088,974,1018
8089,979,1020
8090,981,1019
8091,977,1016
8092,975,1015
8093,972,1016
8094,974,1020
8095,979,1021
8096,977,1022
8097,974,1016
8098,972,1018
8099,973,1016
8100,974,1020
8101,979,1019
8102,978,1020
8103,976,1016
8104,971,1016
8105,971,1017
8106,971,1018
8107,976,1023
8108,976,1017
8109,973,1013
8110,970,1017
8111,968,1019
8112,970,1020
8113,972,1024
8114,973,1020
8115,971,1018
8116,967,1017
8117,967,1017
8118,967,1020
8119,970,1022
8120,968,1020
8121,966,1020
8122,962,1018
8123,964,1019
8124,967,1020
8125,968,1020
8126,970,1017
8127,967,1016
8128,964,1015
8129,964,1015
8130,967,1019
8131,969,1021
8132,967,1020
8133,966,1016
8134,965,1015
8135,963,1016
8136,965,1020
8137,968,1022
8138,969,1020
8139,965,1015
8140,963,1015
8141,962,1016
8142,962,1017
8143,965,1017
8144,964,1017
8145,963,1013
8146,963,1014
8147,963,1015
8148,966,1018
8149,965,1019
8150,966,1017
8151,963,1014
8152,962,1013
8153,957,1015
8154,960,1019
8155,963,1018
8156,966,1018
8157,963,1015
8158,962,1015
8159,961,1014
8160,963,1017
8161,965,1018
8162,965,1018
8163,963,1014
8164,960,1015
8165,960,1016
8166,962,1017
8167,964,1019
8168,967,1018
8169,963,1017
8170,961,1016
8171,959,1016
8172,962,1020
8173,967,1021
8174,966,1019
8175,964,1014
8176,960,1014
8177,961,1015
8178,961,1018
8179,966,1022
8180,962,1022
8181,964,1018
8182,958,1017
8183,960,1018
8184,962,1020
8185,965,1021
8186,966,1019
8187,963,1016
8188,960,1017
8189,962,1017
8190,963,1019
8191,963,1022
8192,963,1020
8193,962,1017
8194,959,1016
8195,958,1017
8196,962,1022
8197,965,1023
8198,966,1022
8199,963,1021
8200,958,1018
8201,962,1020
8202,959,1022
8203,967,1024
8204,971,1023
8205,970,1024
8206,968,1024
8207,972,1027
8208,971,1031
8209,976,1032
8210,975,1030
8211,973,1029
8212,974,1028
8213,971,1031
8214,978,1036
8215,982,1039
8216,977,1036
8217,977,1035
8218,976,1032
8219,974,1035
8220,975,1038
8221,979,1038
8222,977,1033
8223,974,1031
8224,970,1029
8225,966,1030
8226,969,1031
8227,970,1030
8228,965,1028
8229,964,1027
8230,963,1027
8231,962,1029
8232,968,1031
8233,971,1034
8234,970,1032
8235,968,1030
8236,967,1028
8237,968,1032
8238,970,1033
8239,973,1030
8240,970,1026
8241,964,1022
8242,959,1019
8243,955,1021
8244,955,1024
8245,958,1027
8246,960,1024
8247,958,1019
8248,953,1018
8249,952,1022
8250,955,1023
8251,958,1025
8252,958,1026
8253,957,1020
8254,953,1020
8255,953,1022
8256,956,1024
8257,961,1024
8258,959,1023
8259,957,1020
8260,952,1021
8261,952,1019
8262,954,1025
8263,958,1023
8264,961,1023
8265,954,1022
8266,951,1019
8267,954,1021
8268,956,1025
8269,959,1025
8270,957,1023
8271,956,1021
8272,952,1023
8273,952,1025
8274,954,1029
8275,958,1032
8276,959,1032
8277,959,1029
8278,957,1030
8279,960,1038
8280,959,1048
8281,967,1059
8282,970,1071
8283,974,1079
8284,975,1088
8285,975,1103
8286,968,1123
8287,960,1147
8288,945,1175
8289,933,1204
8290,922,1228
8291,905,1258
8292,891,1286
8293,881,1315
8294,876,1351
8295,881,1389
8296,893,1420
8297,922,1431
8298,952,1416
8299,978,1370
8300,995,1288
8301,990,1189
8302,965,1105
8303,922,1055
8304,888,1032
8305,876,1021
8306,879,1019
8307,885,1020
8308,899,1017
8309,921,1023
8310,945,1024
8311,955,1024
8312,957,1022
8313,958,1017
8314,958,1012
8315,960,1011
8316,961,1013
8317,965,1014
8318,963,1009
8319,963,1008
8320,962,1005
8321,964,1006
8322,964,1009
8323,972,1010
8324,972,1008
8325,969,1010
8326,970,1004
8327,970,1007
8328,973,1008
8329,975,1010
8330,977,1008
8331,975,1004
8332,972,1005
8333,971,1007
8334,974,1008
8335,977,1007
8336,979,1007
8337,975,1004
8338,974,1000
8339,973,1003
8340,976,1006
8341,977,1008
8342,976,1002
8343,975,1001
8344,973,997
8345,972,999
8346,977,1004
8347,979,1005
8348,979,1005
8349,977,1000
8350,975,999
8351,973,1001
8352,977,1003
8353,981,1006
8354,982,1002
8355,978,1004
8356,979,999
8357,980,1000
8358,981,1001
8359,985,1003
8360,985,999
8361,982,1001
8362,980,1000
8363,982,1001
8364,983,1005
8365,989,1004
8366,988,1004
8367,985,1003
8368,984,1003
8369,983,1005
8370,986,1006
8371,992,1006
8372,993,1007
8373,989,1004
8374,990,1003
8375,992,1007
8376,994,1010
8377,998,1013
8378,999,1013
8379,998,1010
8380,995,1013
8381,996,1017
8382,1000,1021
8383,1003,1022
8384,1008,1026
8385,1005,1026
8386,1004,1026
8387,1006,1031
8388,1008,1036
8389,1011,1039
8390,1015,1042
8391,1013,1040
8392,1012,1044
8393,1012,1050
8394,1015,1056
8395,1017,1063
8396,1016,1063
8397,1015,1065
8398,1013,1065
8399,1016,1070
8400,1013,1073
8401,1015,1075
8402,1017,1077
8403,1010,1074
8404,1008,1072
8405,1006,1070
8406,1007,1072
8407,1006,1073
8408,1006,1070
8409,1001,1066
8410,997,1062
8411,994,1061
8412,993,1062
8413,993,1059
8414,991,1056
8415,987,1053
8416,983,1053
8417,979,1050
8418,980,1052
8419,982,1048
8420,980,1044
8421,977,1041
8422,973,1041
8423,973,1043
8424,972,1042
8425,976,1042
8426,974,1042
8427,972,1039
8428,969,1037
8429,971,1040
8430,971,1041
8431,973,1041
8432,970,1039
8433,969,1037
8434,967,1036
8435,967,1037
8436,970,1039
8437,972,1042
8438,973,1037
8439,969,1035
8440,967,1034
8441,966,1034
8442,967,1040
8443,969,1040
8444,970,1035
8445,966,1034
8446,965,1033
8447,964,1033
8448,966,1033
8449,969,1034
8450,968,1034
8451,967,1033
8452,966,1030
8453,965,1031
8454,967,1032
8455,968,1031
8456,968,1030
8457,967,1030
8458,963,1026
8459,966,1030
8460,965,1032
8461,970,1031
8462,968,1029
8463,963,1027
8464,961,1027
8465,960,1029
8466,964,1036
8467,965,1035
8468,965,1031
8469,963,1028
8470,961,1029
8471,965,1033
8472,964,1035
8473,970,1036
8474,968,1034
8475,969,1030
8476,968,1030
8477,965,1033
8478,967,1036
8479,970,1038
8480,971,1036
8481,969,1032
8482,965,1031
8483,963,1035
8484,968,1035
8485,972,1036
8486,969,1034
8487,969,1031
8488,965,1029
8489,964,1032
8490,969,1034
8491,969,1037
8492,969,1034
8493,964,1029
8494,963,1032
8495,964,1031
8496,964,1034
8497,965,1035
8498,967,1031
8499,964,1032
8500,961,1032
8501,962,1034
8502,964,1035
8503,967,1035
8504,967,1033
8505,963,1030
8506,962,1028
8507,961,1030
8508,965,1035
8509,967,1036
8510,966,1034
8511,961,1031
8512,961,1031
8513,961,1032
8514,960,1036
8515,966,1037
8516,966,1032
8517,962,1030
8518,962,1030
8519,958,1033
8520,960,1032
8521,962,1032
8522,963,1032
8523,961,1029
8524,956,1028
8525,956,1030
8526,958,1034
8527,962,1031
8528,961,1031
8529,960,1029
8530,957,1029
8531,955,1031
8532,955,1032
8533,963,1034
8534,961,1033
8535,959,1029
8536,956,1027
8537,955,1031
8538,958,1031
8539,964,1034
8540,961,1031
8541,960,1032
8542,959,1028
8543,959,1030
8544,961,1035
8545,963,1033
8546,959,1029
8547,956,1027
8548,959,1028
8549,959,1028
8550,959,1032
8551,963,1032
8552,960,1030
8553,957,1028
8554,959,1028
8555,956,1029
8556,958,1034
8557,962,1033
8558,961,1030
8559,958,1030
8560,955,1029
8561,958,1031
8562,960,1033
8563,964,1033
8564,964,1030
8565,963,1028
8566,961,1030
8567,963,1031
8568,964,1035
8569,964,1035
8570,963,1030
8571,962,1028
8572,961,1028
8573,956,1030
8574,961,1031
8575,966,1034
8576,965,1034
8577,963,1030
8578,963,1030
8579,963,1030
8580,964,1033
8581,967,1036
8582,965,1031
8583,965,1032
8584,962,1029
8585,962,1034
