'sample #','MLII','V1'
0,908,957
1,908,957
2,908,957
3,908,957
4,908,957
5,908,957
6,908,957
7,908,957
8,907,958
9,906,960
10,908,960
11,908,961
12,909,964
13,913,961
14,910,962
15,909,960
16,907,958
17,907,958
18,905,956
19,905,956
20,902,957
21,903,960
22,906,958
23,907,960
24,908,963
25,908,962
26,907,960
27,906,958
28,905,957
29,903,955
30,904,954
31,904,955
32,903,957
33,903,959
34,906,958
35,907,960
36,906,962
37,909,958
38,908,959
39,907,960
40,907,958
41,909,956
42,905,956
43,904,957
44,903,955
45,905,958
46,906,961
47,904,960
48,906,961
49,907,960
50,908,960
51,908,958
52,907,955
53,904,956
54,903,955
55,903,956
56,900,955
57,902,957
58,902,959
59,904,961
60,904,962
61,907,962
62,905,958
63,906,958
64,902,958
65,902,955
66,902,954
67,903,955
68,903,956
69,905,957
70,905,960
71,906,962
72,911,964
73,907,961
74,910,961
75,909,961
76,908,961
77,907,962
78,906,959
79,905,962
80,906,965
81,909,969
82,912,969
83,914,974
84,917,976
85,919,973
86,921,972
87,922,971
88,926,966
89,925,962
90,926,960
91,925,959
92,928,956
93,931,956
94,933,957
95,935,961
96,938,964
97,937,960
98,936,963
99,935,958
100,929,961
101,928,958
102,927,956
103,926,959
104,925,958
105,927,960
106,928,962
107,928,960
108,930,961
109,930,959
110,927,957
111,924,955
112,917,954
113,915,951
114,911,950
115,909,951
116,907,952
117,907,955
118,908,955
119,911,956
120,910,957
121,911,955
122,912,955
123,909,953
124,908,953
125,907,953
126,903,952
127,902,951
128,904,951
129,906,956
130,904,955
131,905,955
132,909,957
133,913,955
134,911,954
135,909,954
136,909,954
137,906,955
138,906,951
139,906,954
140,909,954
141,907,955
142,909,955
143,911,957
144,916,961
145,918,962
146,919,964
147,919,964
148,920,965
149,921,961
150,921,954
151,922,946
152,925,936
153,934,923
154,949,907
155,972,892
156,1004,876
157,1049,865
158,1109,857
159,1179,861
160,1255,869
161,1318,884
162,1357,903
163,1358,919
164,1315,934
165,1223,945
166,1096,949
167,968,947
168,843,945
169,772,939
170,752,938
171,773,938
172,817,946
173,864,952
174,903,959
175,926,965
176,938,969
177,941,968
178,938,971
179,930,969
180,926,971
181,923,969
182,920,967
183,922,968
184,921,967
185,924,965
186,924,964
187,924,965
188,924,966
189,926,967
190,926,967
191,926,970
192,927,973
193,928,970
194,929,971
195,927,967
196,929,967
197,928,965
198,925,964
199,926,965
200,922,962
201,923,967
202,928,970
203,930,968
204,928,970
205,931,969
206,930,967
207,931,966
208,930,967
209,927,964
210,925,963
211,926,963
212,929,964
213,929,965
214,929,967
215,930,968
216,930,967
217,932,967
218,931,968
219,931,966
220,930,965
221,927,963
222,926,962
223,927,962
224,927,962
225,925,963
226,926,964
227,926,965
228,930,967
229,931,966
230,931,969
231,933,963
232,929,961
233,931,962
234,928,960
235,927,960
236,928,962
237,930,962
238,931,964
239,930,965
240,931,967
241,935,966
242,936,964
243,936,963
244,936,962
245,935,960
246,936,961
247,932,959
248,933,960
249,933,959
250,936,963
251,938,964
252,937,963
253,939,962
254,941,963
255,941,962
256,940,958
257,940,958
258,938,959
259,939,957
260,941,960
261,938,962
262,942,963
263,942,965
264,944,966
265,947,965
266,950,965
267,949,962
268,948,958
269,946,958
270,945,956
271,945,958
272,946,957
273,945,959
274,947,961
275,950,961
276,952,962
277,951,961
278,951,961
279,951,959
280,949,960
281,948,957
282,947,956
283,947,957
284,947,957
285,948,957
286,949,959
287,949,962
288,951,963
289,955,961
290,953,959
291,952,960
292,951,957
293,953,955
294,951,956
295,950,957
296,951,956
297,948,959
298,951,960
299,948,963
300,948,963
301,951,961
302,946,965
303,945,961
304,945,963
305,939,961
306,935,960
307,931,960
308,929,960
309,926,963
310,925,964
311,925,966
312,923,966
313,924,967
314,918,965
315,917,965
316,915,962
317,914,962
318,911,960
319,910,962
320,910,965
321,908,964
322,911,967
323,909,968
324,912,970
325,913,969
326,912,968
327,907,968
328,909,966
329,907,965
330,907,964
331,905,965
332,906,965
333,906,967
334,908,968
335,908,968
336,911,969
337,913,971
338,914,971
339,913,969
340,911,966
341,908,966
342,908,964
343,907,966
344,909,967
345,910,969
346,911,969
347,914,970
348,915,971
349,916,972
350,916,970
351,916,968
352,914,965
353,914,965
354,911,964
355,911,966
356,914,968
357,914,968
358,915,970
359,918,970
360,919,975
361,919,972
362,919,970
363,919,968
364,919,966
365,916,965
366,912,965
367,913,966
368,913,964
369,914,965
370,913,966
371,914,967
372,914,973
373,916,969
374,916,967
375,915,966
376,911,965
377,911,964
378,910,961
379,909,961
380,908,963
381,909,965
382,908,966
383,910,966
384,911,970
385,913,967
386,911,966
387,910,967
388,910,965
389,908,962
390,909,963
391,904,962
392,906,963
393,907,966
394,905,966
395,905,969
396,908,969
397,909,968
398,908,966
399,906,965
400,906,964
401,902,962
402,902,963
403,902,962
404,901,962
405,902,963
406,901,967
407,902,966
408,905,970
409,905,968
410,906,968
411,907,964
412,906,966
413,904,964
414,903,963
415,902,964
416,899,964
417,901,963
418,902,966
419,905,968
420,906,969
421,906,967
422,906,967
423,907,967
424,905,965
425,903,963
426,902,963
427,901,963
428,902,962
429,901,966
430,903,966
431,903,967
432,905,970
433,906,970
434,905,968
435,905,968
436,903,968
437,904,969
438,903,969
439,906,971
440,903,972
441,906,976
442,909,979
443,911,979
444,914,984
445,918,983
446,920,980
447,921,976
448,921,976
449,921,970
450,924,968
451,925,963
452,926,963
453,926,965
454,929,968
455,930,970
456,933,972
457,937,970
458,932,969
459,930,968
460,927,970
461,927,966
462,928,966
463,928,966
464,926,967
465,928,966
466,928,968
467,926,967
468,928,970
469,924,968
470,919,965
471,915,964
472,912,964
473,907,963
474,904,962
475,902,962
476,901,963
477,900,964
478,903,966
479,904,964
480,905,969
481,905,967
482,903,965
483,903,964
484,902,965
485,901,964
486,898,963
487,898,961
488,899,962
489,899,963
490,900,963
491,901,967
492,903,969
493,901,969
494,901,965
495,902,966
496,905,965
497,903,964
498,903,963
499,903,963
500,905,968
501,904,970
502,907,974
503,909,978
504,914,978
505,915,976
506,916,971
507,920,962
508,919,952
509,923,937
510,931,921
511,944,905
512,970,892
513,1007,883
514,1055,878
515,1116,883
516,1189,894
517,1264,908
518,1321,926
519,1346,944
520,1322,958
521,1243,967
522,1115,967
523,987,965
524,859,961
525,768,957
526,750,954
527,778,958
528,825,963
529,875,971
530,917,976
531,939,982
532,944,978
533,939,979
534,930,975
535,921,974
536,915,975
537,913,973
538,909,976
539,911,976
540,918,978
541,920,979
542,921,977
543,921,977
544,918,975
545,917,973
546,918,971
547,918,972
548,918,973
549,920,975
550,919,975
551,919,975
552,923,980
553,924,979
554,923,979
555,923,976
556,922,973
557,920,973
558,921,971
559,919,970
560,919,972
561,920,974
562,923,974
563,925,977
564,925,977
565,927,975
566,927,974
567,926,973
568,925,973
569,923,971
570,922,970
571,921,971
572,922,972
573,920,972
574,924,975
575,923,974
576,927,976
577,927,975
578,929,973
579,927,975
580,927,974
581,926,971
582,922,970
583,922,971
584,922,970
585,922,972
586,923,972
587,925,975
588,929,973
589,930,974
590,931,974
591,931,972
592,929,970
593,929,969
594,926,969
595,923,968
596,925,970
597,926,970
598,926,972
599,925,972
600,929,973
601,934,974
602,928,971
603,931,970
604,931,970
605,930,969
606,927,967
607,928,965
608,928,966
609,926,967
610,931,969
611,929,970
612,932,972
613,935,972
614,935,969
615,937,969
616,936,968
617,935,965
618,938,967
619,937,965
620,937,966
621,937,966
622,938,968
623,941,969
624,941,970
625,942,970
626,942,966
627,943,968
628,941,964
629,941,963
630,943,962
631,941,962
632,941,962
633,939,963
634,940,965
635,941,966
636,944,968
637,946,967
638,947,965
639,947,966
640,946,964
641,944,966
642,941,961
643,941,962
644,939,963
645,942,966
646,941,966
647,942,967
648,944,968
649,946,970
650,948,967
651,944,968
652,946,965
653,944,967
654,942,964
655,939,968
656,936,969
657,936,969
658,935,972
659,934,971
660,933,973
661,932,975
662,929,975
663,925,974
664,923,975
665,921,971
666,918,971
667,913,971
668,911,973
669,910,974
670,908,977
671,906,975
672,903,976
673,905,979
674,906,976
675,904,975
676,903,975
677,902,973
678,900,972
679,898,972
680,897,973
681,895,975
682,896,976
683,896,976
684,898,979
685,899,979
686,901,976
687,902,975
688,900,973
689,901,974
690,899,972
691,897,972
692,898,973
693,898,975
694,899,974
695,903,976
696,904,975
697,908,977
698,907,973
699,907,974
700,908,973
701,906,970
702,903,970
703,903,970
704,903,970
705,903,974
706,904,973
707,904,976
708,909,976
709,909,976
710,908,974
711,908,972
712,907,971
713,908,971
714,905,970
715,904,968
716,903,968
717,904,972
718,904,971
719,904,972
720,905,972
721,905,974
722,903,973
723,905,972
724,904,971
725,900,969
726,899,969
727,902,967
728,901,969
729,900,969
730,901,972
731,901,972
732,900,972
733,904,972
734,904,974
735,903,973
736,902,970
737,899,970
738,895,968
739,892,967
740,895,967
741,896,969
742,896,969
743,896,972
744,898,973
745,899,973
746,899,972
747,898,972
748,896,971
749,895,967
750,892,967
751,893,968
752,894,968
753,894,968
754,894,969
755,895,973
756,897,971
757,895,972
758,895,969
759,895,968
760,895,969
761,895,967
762,892,968
763,892,971
764,892,974
765,893,974
766,892,977
767,894,979
768,897,982
769,901,984
770,901,984
771,902,981
772,904,979
773,903,976
774,906,973
775,905,972
776,908,969
777,912,967
778,916,969
779,919,971
780,924,970
781,928,975
782,928,974
783,924,973
784,924,974
785,921,970
786,920,968
787,918,969
788,919,970
789,920,971
790,920,972
791,922,974
792,920,972
793,922,972
794,920,969
795,917,968
796,916,964
797,911,962
798,904,962
799,902,962
800,896,962
801,897,963
802,894,966
803,895,964
804,897,966
805,897,965
806,897,965
807,895,963
808,896,963
809,890,960
810,891,959
811,890,959
812,891,959
813,889,962
814,891,963
815,891,965
816,893,965
817,895,968
818,895,966
819,894,964
820,892,963
821,892,962
822,890,960
823,890,961
824,888,960
825,888,962
826,891,965
827,892,964
828,895,966
829,897,965
830,899,965
831,898,965
832,898,963
833,898,965
834,898,966
835,900,968
836,904,970
837,904,968
838,904,963
839,908,957
840,915,946
841,924,931
842,937,914
843,964,895
844,995,881
845,1041,872
846,1099,869
847,1167,873
848,1238,887
849,1305,902
850,1351,921
851,1366,936
852,1342,950
853,1275,961
854,1173,965
855,1047,961
856,922,959
857,819,953
858,760,947
859,750,947
860,779,947
861,826,954
862,870,961
863,904,969
864,924,978
865,932,979
866,933,976
867,926,973
868,920,972
869,911,971
870,909,971
871,908,969
872,906,970
873,908,971
874,912,972
875,912,973
876,913,972
877,917,977
878,917,973
879,917,972
880,915,973
881,914,969
882,911,967
883,914,969
884,911,969
885,911,971
886,912,974
887,916,973
888,916,974
889,920,974
890,919,973
891,916,971
892,918,969
893,913,967
894,914,967
895,915,966
896,915,967
897,914,970
898,916,968
899,918,969
900,918,971
901,918,972
902,920,971
903,920,969
904,918,967
905,918,968
906,918,965
907,919,964
908,918,966
909,916,966
910,915,969
911,919,968
912,922,970
913,922,969
914,918,967
915,921,966
916,921,967
917,921,967
918,921,966
919,919,963
920,921,963
921,919,965
922,923,968
923,924,966
924,925,967
925,928,971
926,928,971
927,926,969
928,925,966
929,925,966
930,925,964
931,923,964
932,924,965
933,922,964
934,925,968
935,927,969
936,928,969
937,930,971
938,930,970
939,931,967
940,931,964
941,930,964
942,929,964
943,931,960
944,930,962
945,932,965
946,934,965
947,935,968
948,935,967
949,939,968
950,939,968
951,939,966
952,937,964
953,938,963
954,935,963
955,939,964
956,939,963
957,941,961
958,941,964
959,942,963
960,945,965
961,949,967
962,948,965
963,949,964
964,948,961
965,950,960
966,947,961
967,948,959
968,945,961
969,946,962
970,947,961
971,948,964
972,948,964
973,951,964
974,952,963
975,952,963
976,949,959
977,950,960
978,948,958
979,945,958
980,947,958
981,946,959
982,945,960
983,944,964
984,942,964
985,942,966
986,941,963
987,933,966
988,929,963
989,927,964
990,924,963
991,922,961
992,918,963
993,914,966
994,913,968
995,913,967
996,908,971
997,910,972
998,908,970
999,904,969
1000,903,967
1001,897,965
1002,895,965
1003,895,966
1004,892,965
1005,894,969
1006,894,970
1007,893,971
1008,897,970
1009,897,970
1010,895,970
1011,893,967
1012,892,967
1013,894,964
1014,890,963
1015,892,962
1016,893,966
1017,892,967
1018,894,968
1019,893,970
1020,895,971
1021,897,970
1022,898,969
1023,899,967
1024,898,967
1025,897,966
1026,897,963
1027,898,966
1028,898,966
1029,898,967
1030,902,968
1031,901,967
1032,902,971
1033,905,968
1034,906,966
1035,906,967
1036,904,966
1037,905,962
1038,904,962
1039,903,962
1040,903,964
1041,903,965
1042,905,964
1043,906,966
1044,908,967
1045,907,967
1046,908,966
1047,906,963
1048,904,961
1049,905,963
1050,903,960
1051,902,959
1052,903,963
1053,902,962
1054,902,965
1055,905,965
1056,906,968
1057,904,965
1058,903,962
1059,902,962
1060,899,961
1061,901,958
1062,898,958
1063,897,961
1064,897,961
1065,898,963
1066,900,964
1067,898,964
1068,901,967
1069,900,964
1070,902,963
1071,901,961
1072,899,960
1073,899,959
1074,895,961
1075,891,958
1076,895,961
1077,896,959
1078,896,959
1079,898,963
1080,899,966
1081,900,964
1082,901,962
1083,897,961
1084,898,960
1085,896,958
1086,896,957
1087,894,959
1088,894,958
1089,897,962
1090,896,961
1091,897,963
1092,896,966
1093,898,962
1094,898,963
1095,898,961
1096,896,959
1097,895,956
1098,894,958
1099,894,958
1100,892,959
1101,893,961
1102,893,961
1103,896,964
1104,895,963
1105,897,961
1106,897,960
1107,896,960
1108,894,958
1109,893,958
1110,894,957
1111,893,958
1112,896,957
1113,892,957
1114,892,961
1115,896,961
1116,899,964
1117,898,960
1118,898,961
1119,897,960
1120,892,959
1121,896,958
1122,893,957
1123,895,960
1124,897,963
1125,898,967
1126,896,968
1127,902,969
1128,902,973
1129,903,973
1130,906,973
1131,910,971
1132,911,971
1133,908,968
1134,908,964
1135,911,964
1136,914,965
1137,914,963
1138,917,965
1139,922,962
1140,923,962
1141,925,962
1142,926,962
1143,927,961
1144,926,961
1145,923,960
1146,923,957
1147,918,959
1148,918,961
1149,918,962
1150,918,962
1151,921,966
1152,924,965
1153,924,964
1154,924,963
1155,922,961
1156,918,958
1157,916,956
1158,911,954
1159,908,955
1160,906,956
1161,904,959
1162,900,957
1163,902,959
1164,902,960
1165,903,958
1166,901,959
1167,902,955
1168,899,954
1169,898,955
1170,896,952
1171,896,953
1172,896,954
1173,898,956
1174,898,958
1175,896,959
1176,899,960
1177,900,959
1178,899,956
1179,898,956
1180,897,956
1181,897,956
1182,894,954
1183,897,954
1184,895,955
1185,897,958
1186,897,958
1187,901,961
1188,902,962
1189,902,961
1190,904,960
1191,905,958
1192,903,956
1193,905,956
1194,903,960
1195,905,961
1196,906,964
1197,907,969
1198,909,970
1199,915,971
1200,918,966
1201,920,951
1202,925,940
1203,935,922
1204,951,902
1205,977,882
1206,1017,870
1207,1069,861
1208,1139,862
1209,1214,871
1210,1285,883
1211,1343,901
1212,1373,918
1213,1363,932
1214,1310,941
1215,1216,949
1216,1092,948
1217,968,948
1218,858,944
1219,780,941
1220,749,939
1221,760,941
1222,800,947
1223,844,954
1224,884,963
1225,914,969
1226,929,973
1227,935,975
1228,935,971
1229,928,968
1230,922,967
1231,915,967
1232,914,968
1233,914,971
1234,915,973
1235,917,973
1236,919,972
1237,922,972
1238,923,973
1239,921,971
1240,920,970
1241,919,966
1242,918,968
1243,917,969
1244,918,971
1245,918,970
1246,921,971
1247,921,972
1248,923,974
1249,923,972
1250,924,971
1251,924,968
1252,920,968
1253,921,967
1254,920,968
1255,917,965
1256,918,968
1257,921,968
1258,923,974
1259,924,973
1260,924,975
1261,925,971
1262,925,970
1263,925,969
1264,922,968
1265,923,967
1266,921,964
1267,921,966
1268,921,968
1269,921,970
1270,924,970
1271,925,971
1272,926,973
1273,927,972
1274,927,971
1275,925,968
1276,925,969
1277,923,965
1278,920,966
1279,922,967
1280,920,967
1281,922,965
1282,924,968
1283,926,970
1284,926,972
1285,924,971
1286,928,967
1287,928,969
1288,928,966
1289,928,965
1290,926,963
1291,924,964
1292,925,967
1293,926,969
1294,928,970
1295,930,970
1296,932,971
1297,934,969
1298,933,968
1299,934,966
1300,934,965
1301,930,965
1302,929,963
1303,929,963
1304,931,963
1305,932,968
1306,933,968
1307,938,972
1308,939,970
1309,941,970
1310,941,970
1311,939,968
1312,939,967
1313,939,963
1314,938,964
1315,939,964
1316,938,965
1317,941,967
1318,941,969
1319,943,969
1320,943,970
1321,945,970
1322,946,970
1323,945,966
1324,944,964
1325,945,964
1326,943,963
1327,943,963
1328,943,965
1329,941,967
1330,944,964
1331,948,967
1332,950,968
1333,950,968
1334,948,964
1335,948,965
1336,948,964
1337,950,961
1338,948,959
1339,948,960
1340,950,962
1341,947,961
1342,948,965
1343,950,967
1344,952,969
1345,950,965
1346,951,966
1347,947,965
1348,944,964
1349,937,961
1350,935,963
1351,932,964
1352,929,967
1353,926,966
1354,926,968
1355,923,969
1356,922,973
1357,922,971
1358,919,972
1359,917,971
1360,913,969
1361,910,967
1362,909,967
1363,905,968
1364,906,970
1365,903,970
1366,904,973
1367,904,972
1368,901,975
1369,906,974
1370,904,971
1371,905,969
1372,904,971
1373,900,971
1374,900,970
1375,900,970
1376,902,971
1377,902,973
1378,904,972
1379,903,974
1380,905,975
1381,906,973
1382,907,974
1383,907,971
1384,906,971
1385,906,971
1386,905,972
1387,902,969
1388,904,970
1389,905,973
1390,907,973
1391,908,975
1392,910,973
1393,909,975
1394,909,974
1395,911,972
1396,908,971
1397,909,969
1398,909,969
1399,909,968
1400,910,972
1401,907,972
1402,913,971
1403,912,975
1404,913,975
1405,914,974
1406,912,972
1407,913,970
1408,913,969
1409,911,968
1410,909,968
1411,912,967
1412,911,967
1413,912,969
1414,911,971
1415,913,971
1416,913,972
1417,914,971
1418,914,970
1419,913,970
1420,911,968
1421,910,967
1422,908,965
1423,907,965
1424,907,968
1425,904,967
1426,903,967
1427,906,968
1428,907,970
1429,906,970
1430,907,967
1431,906,968
1432,906,967
1433,905,966
1434,903,966
1435,900,964
1436,903,966
1437,901,968
1438,903,968
1439,904,970
1440,907,972
1441,905,971
1442,904,967
1443,905,968
1444,903,967
1445,900,964
1446,900,964
1447,899,964
1448,900,965
1449,900,966
1450,901,967
1451,903,968
1452,903,970
1453,903,968
1454,903,965
1455,902,965
1456,902,966
1457,901,964
1458,901,963
1459,898,963
1460,897,965
1461,897,964
1462,900,966
1463,902,969
1464,903,971
1465,904,969
1466,902,967
1467,903,965
1468,900,966
1469,899,964
1470,899,964
1471,898,965
1472,899,963
1473,898,966
1474,899,969
1475,903,968
1476,902,970
1477,904,970
1478,902,970
1479,904,967
1480,900,966
1481,902,965
1482,899,965
1483,900,964
1484,901,965
1485,900,966
1486,900,968
1487,902,968
1488,904,970
1489,902,969
1490,905,970
1491,904,966
1492,902,963
1493,902,966
1494,900,963
1495,898,963
1496,901,963
1497,898,965
1498,899,967
1499,900,966
1500,901,970
1501,903,967
1502,904,967
1503,905,966
1504,901,966
1505,901,965
1506,900,963
1507,901,963
1508,900,968
1509,900,967
1510,901,969
1511,903,969
1512,904,971
1513,905,969
1514,902,967
1515,901,966
1516,902,965
1517,900,966
1518,899,964
1519,897,963
1520,900,966
1521,903,967
1522,904,969
1523,902,971
1524,904,972
1525,904,970
1526,903,970
1527,905,968
1528,901,967
1529,900,966
1530,899,966
1531,899,967
1532,902,965
1533,902,969
1534,904,971
1535,904,971
1536,906,973
1537,906,971
1538,905,970
1539,905,971
1540,903,969
1541,901,968
1542,899,965
1543,899,968
1544,897,971
1545,900,973
1546,901,975
1547,904,977
1548,906,980
1549,908,981
1550,907,983
1551,910,983
1552,911,982
1553,908,981
1554,911,980
1555,914,979
1556,916,978
1557,918,977
1558,924,977
1559,927,973
1560,928,973
1561,932,972
1562,931,973
1563,932,972
1564,932,971
1565,930,973
1566,926,971
1567,924,970
1568,926,970
1569,925,972
1570,927,973
1571,927,974
1572,930,977
1573,932,978
1574,930,972
1575,930,973
1576,924,971
1577,921,967
1578,915,966
1579,912,966
1580,909,968
1581,908,967
1582,906,969
1583,907,970
1584,909,971
1585,910,972
1586,908,970
1587,906,969
1588,907,968
1589,905,968
1590,902,965
1591,900,965
1592,898,967
1593,900,967
1594,901,970
1595,900,972
1596,901,972
1597,906,973
1598,906,968
1599,906,967
1600,904,966
1601,902,967
1602,899,964
1603,900,966
1604,898,967
1605,904,970
1606,904,970
1607,903,971
1608,906,973
1609,908,972
1610,905,972
1611,907,971
1612,908,970
1613,909,972
1614,908,975
1615,910,977
1616,913,978
1617,914,976
1618,917,974
1619,920,967
1620,923,957
1621,931,943
1622,941,925
1623,958,907
1624,984,889
1625,1021,877
1626,1069,872
1627,1137,877
1628,1212,892
1629,1283,911
1630,1333,931
1631,1340,953
1632,1288,966
1633,1181,974
1634,1053,970
1635,925,965
1636,797,955
1637,754,953
1638,762,956
1639,804,963
1640,856,972
1641,905,981
1642,935,986
1643,948,988
1644,948,986
1645,938,983
1646,930,986
1647,921,984
1648,915,980
1649,915,981
1650,915,980
1651,916,981
1652,919,982
1653,919,982
1654,922,985
1655,920,985
1656,921,987
1657,923,985
1658,923,984
1659,921,984
1660,921,984
1661,922,981
1662,920,980
1663,919,979
1664,920,981
1665,921,982
1666,922,985
1667,923,986
1668,924,986
1669,927,986
1670,926,984
1671,926,984
1672,926,982
1673,924,979
1674,922,983
1675,921,981
1676,922,982
1677,923,983
1678,924,983
1679,923,984
1680,924,985
1681,924,984
1682,925,983
1683,922,982
1684,923,980
1685,920,978
1686,920,979
1687,923,978
1688,924,978
1689,924,980
1690,927,981
1691,926,984
1692,929,982
1693,926,981
1694,931,981
1695,928,979
1696,927,980
1697,925,977
1698,924,978
1699,924,975
1700,922,978
1701,924,978
1702,925,980
1703,925,981
1704,928,984
1705,930,982
1706,933,980
1707,930,978
1708,930,979
1709,929,974
1710,930,976
1711,928,976
1712,927,977
1713,931,978
1714,930,977
1715,933,979
1716,934,982
1717,937,980
1718,934,978
1719,934,979
1720,935,976
1721,932,976
1722,934,974
1723,933,975
1724,934,975
1725,935,976
1726,936,979
1727,935,979
1728,939,980
1729,939,981
1730,942,978
1731,938,976
1732,938,976
1733,938,973
1734,940,972
1735,939,971
1736,938,974
1737,939,974
1738,939,975
1739,938,976
1740,940,977
1741,943,976
1742,942,976
1743,940,975
1744,940,974
1745,938,972
1746,937,972
1747,935,970
1748,935,972
1749,935,973
1750,935,976
1751,935,976
1752,938,978
1753,938,976
1754,939,973
1755,939,976
1756,940,972
1757,938,972
1758,940,971
1759,938,971
1760,938,973
1761,937,975
1762,938,975
1763,939,978
1764,939,980
1765,938,980
1766,934,979
1767,932,979
1768,930,978
1769,925,977
1770,924,977
1771,920,978
1772,917,981
1773,917,980
1774,913,982
1775,910,985
1776,911,988
1777,912,986
1778,911,984
1779,909,984
1780,907,984
1781,906,983
1782,903,982
1783,901,982
1784,903,980
1785,900,983
1786,900,985
1787,901,986
1788,905,987
1789,905,988
1790,904,986
1791,904,986
1792,903,982
1793,899,982
1794,898,980
1795,898,982
1796,901,984
1797,901,983
1798,901,985
1799,902,987
1800,903,985
1801,908,988
1802,908,986
1803,906,984
1804,904,984
1805,904,982
1806,905,980
1807,905,981
1808,906,984
1809,904,982
1810,906,986
1811,907,985
1812,907,987
1813,912,985
1814,908,984
1815,910,985
1816,908,985
1817,906,983
1818,904,980
1819,905,981
1820,905,979
1821,905,983
1822,907,983
1823,910,984
1824,911,987
1825,911,986
1826,911,985
1827,909,984
1828,911,981
1829,910,980
1830,907,979
1831,905,979
1832,903,980
1833,903,979
1834,907,982
1835,905,983
1836,907,984
1837,907,986
1838,907,982
1839,904,983
1840,906,982
1841,905,980
1842,903,980
1843,900,978
1844,900,979
1845,899,980
1846,898,982
1847,900,981
1848,904,984
1849,904,981
1850,903,986
1851,902,984
1852,900,980
1853,898,980
1854,897,977
1855,893,976
1856,897,980
1857,895,980
1858,897,982
1859,895,985
1860,895,984
1861,896,983
1862,900,982
1863,898,981
1864,897,979
1865,896,979
1866,895,979
1867,895,976
1868,893,978
1869,894,980
1870,895,983
1871,894,982
1872,896,982
1873,897,985
1874,898,984
1875,897,981
1876,896,980
1877,895,978
1878,892,977
1879,892,978
1880,893,979
1881,893,980
1882,894,981
1883,895,982
1884,897,985
1885,898,984
1886,898,984
1887,895,982
1888,897,981
1889,893,979
1890,890,981
1891,890,980
1892,888,981
1893,893,984
1894,891,987
1895,893,990
1896,895,993
1897,898,993
1898,898,990
1899,900,991
1900,900,991
1901,898,993
1902,899,990
1903,901,989
1904,902,992
1905,904,989
1906,908,987
1907,911,987
1908,912,984
1909,915,987
1910,917,983
1911,919,983
1912,921,982
1913,920,982
1914,919,982
1915,919,981
1916,916,981
1917,914,982
1918,914,982
1919,916,985
1920,913,985
1921,918,988
1922,918,984
1923,916,981
1924,917,980
1925,913,979
1926,908,977
1927,903,977
1928,899,974
1929,898,974
1930,896,977
1931,894,980
1932,897,978
1933,897,979
1934,895,979
1935,899,979
1936,897,977
1937,894,976
1938,891,975
1939,891,973
1940,890,976
1941,890,976
1942,890,979
1943,890,981
1944,893,981
1945,891,982
1946,894,980
1947,895,979
1948,891,980
1949,889,975
1950,892,975
1951,889,977
1952,888,979
1953,888,978
1954,891,978
1955,891,980
1956,894,981
1957,897,981
1958,897,980
1959,899,982
1960,898,980
1961,898,982
1962,899,983
1963,898,984
1964,902,984
1965,902,980
1966,902,973
1967,909,965
1968,916,952
1969,930,939
1970,947,919
1971,977,905
1972,1018,897
1973,1080,894
1974,1148,901
1975,1222,913
1976,1291,929
1977,1341,946
1978,1358,962
1979,1335,975
1980,1266,986
1981,1157,990
1982,1029,987
1983,901,982
1984,790,975
1985,744,972
1986,751,969
1987,790,970
1988,840,977
1989,884,980
1990,916,988
1991,933,993
1992,935,993
1993,930,993
1994,921,991
1995,913,990
1996,907,988
1997,905,987
1998,905,984
1999,907,984
2000,905,986
2001,911,987
2002,913,988
2003,914,988
2004,915,990
2005,916,989
2006,914,988
2007,914,988
2008,914,986
2009,911,985
2010,912,985
2011,909,982
2012,910,985
2013,909,986
2014,911,985
2015,913,985
2016,914,988
2017,916,989
2018,919,987
2019,917,987
2020,914,984
2021,916,984
2022,916,984
2023,914,982
2024,914,982
2025,915,984
2026,915,985
2027,916,986
2028,918,986
2029,920,987
2030,920,985
2031,919,985
2032,916,984
2033,916,980
2034,914,980
2035,913,981
2036,912,982
2037,914,981
2038,912,982
2039,914,983
2040,917,985
2041,919,984
2042,920,982
2043,918,983
2044,918,981
2045,917,980
2046,918,979
2047,915,980
2048,917,980
2049,916,980
2050,918,979
2051,920,983
2052,922,984
2053,922,985
2054,923,982
2055,923,982
2056,922,981
2057,920,979
2058,920,977
2059,919,978
2060,918,978
2061,920,979
2062,923,980
2063,921,981
2064,922,982
2065,924,982
2066,925,980
2067,925,978
2068,924,979
2069,925,976
2070,924,975
2071,924,977
2072,924,978
2073,924,977
2074,927,979
2075,928,980
2076,930,980
2077,932,981
2078,933,978
2079,932,978
2080,931,977
2081,931,974
2082,931,974
2083,929,974
2084,931,974
2085,930,977
2086,932,976
2087,935,977
2088,936,978
2089,937,978
2090,935,976
2091,938,976
2092,936,976
2093,931,972
2094,932,973
2095,933,971
2096,931,974
2097,933,974
2098,933,975
2099,933,976
2100,936,976
2101,936,978
2102,936,975
2103,933,976
2104,930,977
2105,932,975
2106,931,974
2107,930,972
2108,926,976
2109,925,977
2110,924,978
2111,923,981
2112,923,982
2113,925,980
2114,921,982
2115,917,980
2116,916,981
2117,913,980
2118,908,979
2119,905,978
2120,905,983
2121,900,981
2122,899,983
2123,899,985
2124,897,983
2125,899,985
2126,897,986
2127,896,984
2128,894,982
2129,894,982
2130,889,982
2131,887,979
2132,885,983
2133,884,981
2134,886,983
2135,888,984
2136,889,987
2137,890,989
2138,887,987
2139,887,984
2140,887,982
2141,885,981
2142,883,980
2143,884,981
2144,885,982
2145,888,983
2146,888,983
2147,888,985
2148,890,984
2149,894,986
2150,892,983
2151,895,983
2152,895,983
2153,891,981
2154,894,980
2155,892,979
2156,891,980
2157,892,981
2158,895,982
2159,896,982
2160,899,982
2161,900,982
2162,902,982
2163,901,982
2164,900,981
2165,899,979
2166,897,977
2167,895,977
2168,896,980
2169,897,982
2170,896,980
2171,897,980
2172,901,983
2173,901,984
2174,899,980
2175,901,982
2176,901,979
2177,898,979
2178,897,976
2179,895,977
2180,895,975
2181,895,976
2182,895,978
2183,895,979
2184,896,980
2185,899,985
2186,896,981
2187,896,980
2188,896,979
2189,893,976
2190,892,977
2191,893,975
2192,892,975
2193,888,977
2194,889,977
2195,891,978
2196,890,978
2197,893,981
2198,893,978
2199,892,978
2200,891,977
2201,890,975
2202,889,975
2203,888,973
2204,887,973
2205,887,974
2206,887,977
2207,889,975
2208,889,978
2209,891,981
2210,891,977
2211,891,977
2212,888,976
2213,886,974
2214,888,973
2215,886,973
2216,887,971
2217,885,972
2218,887,976
2219,889,975
2220,890,978
2221,890,979
2222,892,978
2223,890,975
2224,888,974
2225,888,973
2226,886,973
2227,884,971
2228,885,971
2229,885,973
2230,886,973
2231,887,975
2232,889,977
2233,889,976
2234,890,975
2235,891,976
2236,891,976
2237,888,973
2238,885,973
2239,887,971
2240,884,975
2241,886,978
2242,887,980
2243,889,981
2244,892,984
2245,893,985
2246,896,988
2247,895,988
2248,900,988
2249,901,985
2250,900,984
2251,901,980
2252,903,979
2253,906,977
2254,908,976
2255,909,977
2256,911,976
2257,913,978
2258,915,976
2259,915,977
2260,918,980
2261,917,975
2262,917,976
2263,916,972
2264,911,975
2265,910,975
2266,914,975
2267,915,978
2268,912,979
2269,914,979
2270,920,980
2271,917,976
2272,917,977
2273,912,975
2274,909,969
2275,906,969
2276,901,971
2277,896,969
2278,894,970
2279,892,973
2280,892,973
2281,893,974
2282,895,972
2283,893,971
2284,890,971
2285,891,969
2286,887,969
2287,890,966
2288,888,969
2289,888,967
2290,889,972
2291,888,972
2292,888,972
2293,890,976
2294,892,973
2295,891,972
2296,890,972
2297,890,968
2298,889,969
2299,888,968
2300,889,969
2301,888,970
2302,889,971
2303,892,972
2304,892,973
2305,895,975
2306,897,975
2307,895,975
2308,895,971
2309,896,972
2310,895,971
2311,896,974
2312,897,977
2313,898,979
2314,899,982
2315,903,980
2316,904,973
2317,907,967
2318,913,954
2319,921,937
2320,938,921
2321,964,900
2322,1002,885
2323,1052,878
2324,1120,876
2325,1198,886
2326,1273,899
2327,1336,918
2328,1364,935
2329,1348,954
2330,1279,960
2331,1167,967
2332,1039,964
2333,911,960
2334,798,953
2335,745,951
2336,740,952
2337,771,958
2338,818,967
2339,864,976
2340,900,983
2341,919,988
2342,928,989
2343,927,987
2344,920,985
2345,914,982
2346,910,980
2347,904,979
2348,901,982
2349,903,980
2350,905,985
2351,908,985
2352,910,985
2353,909,987
2354,913,986
2355,911,986
2356,910,984
2357,910,984
2358,910,981
2359,908,980
2360,908,980
2361,907,985
2362,908,985
2363,911,985
2364,912,986
2365,913,989
2366,913,987
2367,914,984
2368,914,984
2369,914,982
2370,913,981
2371,909,980
2372,908,983
2373,910,981
2374,912,982
2375,911,984
2376,913,985
2377,915,987
2378,915,983
2379,914,984
2380,914,984
2381,910,982
2382,911,981
2383,911,980
2384,909,976
2385,908,982
2386,911,982
2387,912,985
2388,912,985
2389,914,985
2390,913,985
2391,914,983
2392,914,984
2393,916,979
2394,915,979
2395,913,979
2396,913,980
2397,911,979
2398,915,981
2399,917,984
2400,916,984
2401,916,985
2402,919,983
2403,919,984
2404,918,981
2405,918,981
2406,918,979
2407,916,978
2408,915,979
2409,917,981
2410,917,981
2411,921,983
2412,922,984
2413,924,986
2414,921,985
2415,925,983
2416,926,981
2417,924,980
2418,922,979
2419,922,977
2420,921,979
2421,922,979
2422,923,979
2423,927,981
2424,927,982
2425,929,983
2426,931,983
2427,928,983
2428,931,982
2429,930,980
2430,929,977
2431,928,980
2432,928,978
2433,931,979
2434,931,981
2435,933,982
2436,934,980
2437,934,986
2438,940,982
2439,939,982
2440,940,979
2441,937,977
2442,937,978
2443,936,977
2444,934,978
2445,940,977
2446,939,978
2447,942,982
2448,941,983
2449,943,983
2450,944,982
2451,945,982
2452,945,978
2453,941,978
2454,942,977
2455,940,977
2456,942,978
2457,940,978
2458,941,978
2459,944,979
2460,946,980
2461,949,984
2462,947,980
2463,947,980
2464,943,978
2465,940,977
2466,938,977
2467,934,975
2468,933,978
2469,929,980
2470,927,982
2471,926,983
2472,922,984
2473,921,987
2474,921,983
2475,917,984
2476,914,984
2477,910,983
2478,906,981
2479,905,981
2480,901,982
2481,900,982
2482,899,985
2483,902,986
2484,900,987
2485,900,987
2486,901,986
2487,899,989
2488,895,985
2489,893,983
2490,893,983
2491,891,979
2492,891,984
2493,891,983
2494,894,985
2495,893,987
2496,894,987
2497,897,989
2498,895,987
2499,896,986
2500,894,985
2501,894,986
2502,894,984
2503,892,983
2504,893,986
2505,896,986
2506,897,986
2507,898,988
2508,900,988
2509,903,988
2510,903,987
2511,904,987
2512,905,986
2513,904,985
2514,902,984
2515,902,982
2516,903,984
2517,904,982
2518,905,985
2519,907,985
2520,909,985
2521,910,990
2522,910,988
2523,912,985
2524,912,986
2525,910,983
2526,910,984
2527,908,983
2528,910,983
2529,909,985
2530,911,985
2531,909,985
2532,912,987
2533,914,988
2534,916,988
2535,914,987
2536,913,984
2537,909,980
2538,911,980
2539,908,980
2540,908,983
2541,910,980
2542,909,983
2543,909,986
2544,909,986
2545,911,986
2546,911,985
2547,910,985
2548,910,984
2549,908,981
2550,907,981
2551,906,979
2552,904,979
2553,902,979
2554,905,981
2555,905,983
2556,907,984
2557,907,985
2558,910,983
2559,908,984
2560,907,983
2561,904,981
2562,904,980
2563,905,978
2564,904,979
2565,903,980
2566,904,981
2567,905,981
2568,906,985
2569,906,984
2570,908,984
2571,905,985
2572,906,983
2573,904,981
2574,902,981
2575,902,978
2576,904,979
2577,902,982
2578,903,983
2579,905,983
2580,907,983
2581,910,983
2582,908,984
2583,906,983
2584,905,980
2585,904,979
2586,906,978
2587,902,977
2588,902,979
2589,903,977
2590,904,981
2591,904,983
2592,905,985
2593,906,986
2594,908,983
2595,909,982
2596,907,984
2597,907,981
2598,908,979
2599,908,980
2600,906,980
2601,906,979
2602,909,982
2603,908,981
2604,911,981
2605,912,983
2606,912,983
2607,911,984
2608,914,982
2609,911,980
2610,912,980
2611,909,978
2612,911,981
2613,910,979
2614,910,982
2615,911,986
2616,912,988
2617,913,990
2618,913,990
2619,915,990
2620,916,991
2621,917,992
2622,918,991
2623,917,992
2624,919,993
2625,920,993
2626,922,995
2627,924,993
2628,929,992
2629,933,991
2630,936,987
2631,939,985
2632,939,981
2633,941,982
2634,941,980
2635,942,980
2636,940,983
2637,942,982
2638,940,984
2639,939,987
2640,941,988
2641,941,987
2642,941,987
2643,941,987
2644,941,983
2645,941,984
2646,942,981
2647,938,979
2648,937,978
2649,932,982
2650,935,980
2651,933,979
2652,932,983
2653,929,982
2654,928,981
2655,927,980
2656,922,977
2657,922,978
2658,923,979
2659,915,976
2660,917,977
2661,921,977
2662,919,978
2663,921,979
2664,921,979
2665,923,979
2666,923,980
2667,922,981
2668,921,978
2669,918,979
2670,918,976
2671,917,976
2672,917,977
2673,917,978
2674,917,977
2675,917,980
2676,920,984
2677,922,982
2678,921,982
2679,922,981
2680,925,979
2681,924,980
2682,921,980
2683,925,979
2684,925,984
2685,928,984
2686,930,987
2687,934,991
2688,936,987
2689,939,981
2690,942,969
2691,950,954
2692,962,934
2693,982,912
2694,1013,892
2695,1059,882
2696,1118,881
2697,1194,888
2698,1272,902
2699,1340,922
2700,1377,942
2701,1371,961
2702,1307,972
2703,1196,979
2704,1068,978
2705,940,972
2706,819,965
2707,770,959
2708,777,961
2709,815,967
2710,867,975
2711,912,983
2712,942,992
2713,959,998
2714,964,998
2715,962,995
2716,959,995
2717,950,992
2718,944,988
2719,941,987
2720,941,989
2721,941,992
2722,945,992
2723,946,994
2724,950,996
2725,950,994
2726,951,995
2727,949,995
2728,948,992
2729,947,990
2730,950,990
2731,946,989
2732,944,987
2733,946,989
2734,945,993
2735,947,992
2736,950,995
2737,952,994
2738,951,993
2739,952,992
2740,951,992
2741,950,991
2742,952,989
2743,950,987
2744,950,987
2745,948,989
2746,951,989
2747,953,991
2748,952,991
2749,954,996
2750,957,992
2751,956,992
2752,958,991
2753,955,989
2754,956,987
2755,955,989
2756,955,987
2757,952,987
2758,950,988
2759,956,991
2760,953,992
2761,956,992
2762,959,990
2763,958,990
2764,957,989
2765,958,987
2766,957,986
2767,954,985
2768,951,987
2769,956,987
2770,955,987
2771,959,989
2772,959,990
2773,960,991
2774,964,990
2775,964,989
2776,965,988
2777,965,986
2778,962,986
2779,960,984
2780,959,986
2781,957,987
2782,961,987
2783,963,987
2784,966,988
2785,968,991
2786,968,990
2787,970,988
2788,970,988
2789,968,988
2790,968,985
2791,968,984
2792,966,983
2793,968,985
2794,967,987
2795,968,987
2796,971,988
2797,973,991
2798,978,990
2799,978,988
2800,978,986
2801,978,985
2802,977,984
2803,977,984
2804,975,983
2805,978,985
2806,977,985
2807,981,985
2808,982,987
2809,983,986
2810,984,988
2811,981,985
2812,984,986
2813,984,983
2814,982,986
2815,981,983
2816,980,982
2817,978,983
2818,979,982
2819,979,985
2820,981,984
2821,981,985
2822,984,984
2823,986,984
2824,986,985
2825,984,981
2826,982,979
2827,980,980
2828,982,980
2829,984,981
2830,981,982
2831,980,984
2832,981,985
2833,982,987
2834,980,985
2835,979,986
2836,976,983
2837,972,982
2838,969,982
2839,963,983
2840,965,985
2841,960,987
2842,958,987
2843,956,991
2844,956,993
2845,955,992
2846,955,992
2847,952,988
2848,948,990
2849,943,990
2850,945,987
2851,940,989
2852,940,986
2853,938,989
2854,939,988
2855,938,988
2856,938,990
2857,939,991
2858,940,991
2859,939,990
2860,938,990
2861,938,988
2862,937,986
2863,933,987
2864,933,987
2865,933,987
2866,934,990
2867,936,991
2868,937,992
2869,938,994
2870,942,994
2871,940,990
2872,940,990
2873,938,988
2874,939,986
2875,936,987
2876,935,986
2877,937,987
2878,938,990
2879,939,992
2880,940,993
2881,942,993
2882,944,992
2883,944,991
2884,945,990
2885,943,988
2886,943,987
2887,942,985
2888,945,987
2889,944,984
2890,945,989
2891,944,990
2892,945,990
2893,946,992
2894,949,990
2895,948,990
2896,948,990
2897,946,989
2898,945,986
2899,946,983
2900,943,985
2901,946,984
2902,946,988
2903,945,987
2904,946,988
2905,946,987
2906,945,988
2907,948,989
2908,944,986
2909,944,984
2910,944,985
2911,941,983
2912,940,983
2913,938,984
2914,941,985
2915,941,985
2916,942,985
2917,943,987
2918,945,987
2919,944,987
2920,943,985
2921,942,984
2922,941,981
2923,939,981
2924,937,981
2925,937,983
2926,939,983
2927,941,986
2928,941,987
2929,942,987
2930,942,988
2931,940,985
2932,943,984
2933,941,983
2934,939,981
2935,937,981
2936,935,981
2937,936,984
2938,937,983
2939,937,985
2940,939,987
2941,934,987
2942,938,988
2943,941,984
2944,941,984
2945,940,982
2946,937,982
2947,936,982
2948,934,981
2949,932,984
2950,935,984
2951,936,985
2952,938,982
2953,938,987
2954,941,984
2955,939,986
2956,940,986
2957,937,983
2958,938,981
2959,934,980
2960,933,981
2961,934,983
2962,935,983
2963,936,983
2964,937,983
2965,938,985
2966,939,984
2967,938,984
2968,936,985
2969,937,983
2970,935,980
2971,937,981
2972,932,979
2973,934,982
2974,933,982
2975,933,983
2976,934,984
2977,937,988
2978,938,985
2979,936,985
2980,935,984
2981,936,981
2982,936,981
2983,933,982
2984,933,983
2985,932,985
2986,935,987
2987,937,993
2988,939,995
2989,942,997
2990,943,998
2991,944,998
2992,948,996
2993,948,997
2994,948,995
2995,948,993
2996,952,988
2997,955,987
2998,955,985
2999,959,985
3000,963,984
3001,963,983
3002,965,984
3003,968,985
3004,968,986
3005,967,986
3006,966,986
3007,960,984
3008,960,985
3009,958,983
3010,958,987
3011,960,987
3012,961,987
3013,964,987
3014,963,986
3015,960,985
3016,957,982
3017,955,981
3018,950,981
3019,946,978
3020,942,977
3021,938,978
3022,936,980
3023,936,979
3024,936,979
3025,939,982
3026,940,981
3027,939,981
3028,939,980
3029,939,979
3030,937,977
3031,935,975
3032,933,976
3033,931,979
3034,931,978
3035,933,980
3036,933,982
3037,936,984
3038,937,984
3039,938,980
3040,938,981
3041,936,979
3042,936,978
3043,933,978
3044,934,978
3045,932,978
3046,935,981
3047,937,982
3048,940,985
3049,943,985
3050,944,990
3051,944,989
3052,946,993
3053,947,990
3054,948,988
3055,948,982
3056,950,971
3057,956,957
3058,966,938
3059,987,918
3060,1018,901
3061,1064,891
3062,1126,889
3063,1199,891
3064,1278,902
3065,1344,920
3066,1382,938
3067,1384,957
3068,1342,970
3069,1253,977
3070,1133,984
3071,1005,980
3072,881,977
3073,806,973
3074,782,970
3075,798,969
3076,840,975
3077,888,981
3078,929,989
3079,956,992
3080,968,993
3081,968,997
3082,965,995
3083,959,994
3084,952,996
3085,949,994
3086,949,996
3087,947,995
3088,949,996
3089,949,994
3090,952,994
3091,949,992
3092,950,993
3093,950,994
3094,952,993
3095,954,995
3096,954,996
3097,955,997
3098,955,997
3099,955,996
3100,956,997
3101,953,994
3102,953,993
3103,952,992
3104,949,992
3105,952,993
3106,953,994
3107,953,995
3108,956,996
3109,957,997
3110,958,998
3111,957,995
3112,955,992
3113,956,992
3114,955,993
3115,954,990
3116,954,992
3117,954,991
3118,954,993
3119,954,993
3120,955,994
3121,956,998
3122,957,996
3123,954,997
3124,957,995
3125,953,993
3126,956,993
3127,950,990
3128,952,989
3129,952,991
3130,954,993
3131,957,992
3132,955,994
3133,954,995
3134,957,997
3135,959,994
3136,958,993
3137,957,990
3138,957,990
3139,956,989
3140,954,988
3141,955,990
3142,956,991
3143,956,992
3144,957,994
3145,958,993
3146,962,996
3147,962,991
3148,957,991
3149,957,990
3150,958,989
3151,959,989
3152,957,988
3153,957,988
3154,956,990
3155,958,992
3156,960,993
3157,961,993
3158,965,995
3159,966,993
3160,967,991
3161,965,990
3162,965,988
3163,967,988
3164,965,991
3165,963,990
3166,965,991
3167,968,992
3168,969,994
3169,970,992
3170,969,990
3171,968,990
3172,970,991
3173,971,987
3174,971,989
3175,969,986
3176,968,987
3177,969,986
3178,969,986
3179,972,988
3180,973,989
3181,975,990
3182,975,989
3183,978,988
3184,974,988
3185,975,986
3186,972,987
3187,973,984
3188,969,985
3189,970,986
3190,971,986
3191,970,986
3192,973,987
3193,974,990
3194,975,989
3195,973,988
3196,972,986
3197,971,985
3198,972,983
3199,973,984
3200,971,982
3201,969,985
3202,968,985
3203,968,989
3204,966,994
3205,965,994
3206,962,994
3207,958,993
3208,957,993
3209,952,991
3210,946,991
3211,943,991
3212,941,990
3213,938,991
3214,937,993
3215,934,995
3216,932,996
3217,932,998
3218,931,996
3219,931,996
3220,931,997
3221,926,996
3222,923,993
3223,923,991
3224,920,993
3225,921,994
3226,921,992
3227,921,998
3228,923,996
3229,924,998
3230,925,999
3231,923,997
3232,923,999
3233,922,995
3234,919,995
3235,920,993
3236,919,993
3237,918,995
3238,918,996
3239,920,999
3240,921,997
3241,922,998
3242,924,999
3243,925,999
3244,925,998
3245,924,994
3246,923,992
3247,921,994
3248,922,992
3249,923,995
3250,923,994
3251,926,996
3252,923,996
3253,925,995
3254,930,1000
3255,929,997
3256,930,994
3257,927,994
3258,926,992
3259,926,994
3260,925,992
3261,926,991
3262,925,994
3263,926,995
3264,928,995
3265,930,997
3266,930,996
3267,929,994
3268,932,995
3269,931,992
3270,930,991
3271,925,989
3272,924,988
3273,925,991
3274,924,992
3275,924,992
3276,925,995
3277,924,994
3278,928,996
3279,926,992
3280,925,994
3281,921,993
3282,918,989
3283,916,988
3284,917,989
3285,917,990
3286,918,990
3287,918,991
3288,920,993
3289,919,995
3290,923,993
3291,923,993
3292,920,993
3293,918,991
3294,918,987
3295,918,986
3296,916,986
3297,915,987
3298,915,988
3299,916,990
3300,917,990
3301,916,994
3302,918,993
3303,917,991
3304,916,988
3305,916,989
3306,916,987
3307,915,987
3308,913,987
3309,913,990
3310,913,988
3311,914,991
3312,916,991
3313,913,991
3314,915,994
3315,913,993
3316,913,993
3317,911,990
3318,911,989
3319,910,989
3320,906,990
3321,910,993
3322,911,995
3323,913,999
3324,916,1002
3325,919,1002
3326,923,1004
3327,924,1004
3328,926,1003
3329,926,1002
3330,926,1000
3331,925,994
3332,925,992
3333,926,990
3334,928,990
3335,932,989
3336,935,988
3337,940,991
3338,941,997
3339,944,996
3340,943,994
3341,940,995
3342,936,993
3343,934,990
3344,937,990
3345,933,991
3346,938,989
3347,939,992
3348,939,993
3349,941,993
3350,942,992
3351,941,991
3352,940,991
3353,933,987
3354,928,987
3355,920,984
3356,917,986
3357,914,986
3358,911,986
3359,910,986
3360,910,989
3361,912,987
3362,914,990
3363,916,987
3364,916,989
3365,912,985
3366,911,984
3367,909,984
3368,908,983
3369,905,985
3370,906,987
3371,906,988
3372,906,988
3373,909,988
3374,908,992
3375,909,987
3376,907,989
3377,905,988
3378,904,986
3379,903,985
3380,905,985
3381,904,985
3382,907,988
3383,906,988
3384,908,988
3385,910,990
3386,913,989
3387,912,988
3388,915,991
3389,915,989
3390,915,990
3391,913,990
3392,916,993
3393,914,994
3394,917,991
3395,919,988
3396,923,979
3397,928,970
3398,935,955
3399,951,937
3400,973,918
3401,1007,903
3402,1057,897
3403,1123,900
3404,1199,910
3405,1272,927
3406,1332,944
3407,1366,964
3408,1355,981
3409,1297,989
3410,1195,996
3411,1067,996
3412,939,994
3413,821,987
3414,759,983
3415,750,979
3416,782,975
3417,829,977
3418,875,979
3419,910,989
3420,931,993
3421,941,1000
3422,941,1002
3423,935,999
3424,929,999
3425,925,995
3426,924,993
3427,922,993
3428,920,992
3429,920,993
3430,920,993
3431,921,995
3432,925,997
3433,926,996
3434,928,998
3435,929,996
3436,928,995
3437,927,995
3438,926,992
3439,924,992
3440,925,990
3441,924,990
3442,925,993
3443,926,993
3444,927,994
3445,930,994
3446,932,997
3447,930,996
3448,930,994
3449,930,993
3450,929,992
3451,929,993
3452,926,989
3453,927,992
3454,926,991
3455,929,992
3456,929,994
3457,931,994
3458,933,994
3459,932,994
3460,930,992
3461,929,992
3462,927,991
3463,928,988
3464,925,988
3465,923,989
3466,926,988
3467,925,991
3468,928,992
3469,929,993
3470,927,991
3471,929,993
3472,933,991
3473,932,990
3474,930,990
3475,928,988
3476,928,986
3477,928,988
3478,926,987
3479,929,990
3480,930,990
3481,932,995
3482,934,994
3483,933,991
3484,934,990
3485,932,989
3486,932,988
3487,932,987
3488,930,986
3489,930,989
3490,929,989
3491,932,991
3492,933,990
3493,934,991
3494,935,992
3495,939,991
3496,938,991
3497,936,989
3498,937,987
3499,937,986
3500,937,985
3501,935,987
3502,937,986
3503,940,989
3504,940,989
3505,944,992
3506,946,991
3507,946,990
3508,946,989
3509,944,988
3510,943,986
3511,942,983
3512,942,983
3513,943,984
3514,943,985
3515,945,987
3516,948,988
3517,948,987
3518,951,989
3519,953,987
3520,951,985
3521,950,983
3522,951,985
3523,949,982
3524,950,980
3525,949,982
3526,951,982
3527,952,984
3528,955,984
3529,956,985
3530,955,984
3531,956,985
3532,955,983
3533,954,980
3534,952,981
3535,952,981
3536,950,980
3537,947,980
3538,951,983
3539,950,984
3540,953,984
3541,953,988
3542,952,989
3543,951,987
3544,949,985
3545,947,988
3546,942,989
3547,936,986
3548,931,988
3549,930,988
3550,928,990
3551,927,992
3552,924,994
3553,921,994
3554,919,997
3555,914,994
3556,912,995
3557,909,993
3558,906,993
3559,905,992
3560,903,989
3561,899,991
3562,899,993
3563,901,994
3564,900,996
3565,897,995
3566,898,995
3567,899,997
3568,899,996
3569,897,995
3570,896,993
3571,892,991
3572,894,991
3573,893,995
3574,896,994
3575,898,994
3576,898,995
3577,899,997
3578,901,998
3579,900,995
3580,902,997
3581,899,994
3582,899,994
3583,898,991
3584,898,991
3585,898,990
3586,898,993
3587,900,993
3588,901,994
3589,901,997
3590,904,996
3591,907,995
3592,907,995
3593,908,992
3594,903,990
3595,904,990
3596,903,989
3597,903,990
3598,902,990
3599,905,991
3600,908,992
3601,910,991
3602,911,992
3603,911,993
3604,908,990
3605,909,991
3606,907,991
3607,906,987
3608,904,985
3609,904,986
3610,904,988
3611,903,989
3612,904,990
3613,905,992
3614,907,993
3615,906,990
3616,906,988
3617,906,988
3618,903,986
3619,903,982
3620,898,985
3621,896,985
3622,897,984
3623,900,989
3624,900,988
3625,903,992
3626,901,991
3627,902,990
3628,902,988
3629,902,986
3630,898,987
3631,898,984
3632,894,985
3633,896,987
3634,893,987
3635,897,986
3636,896,986
3637,894,990
3638,898,990
3639,900,987
3640,899,990
3641,898,987
3642,898,984
3643,895,984
3644,893,984
3645,892,987
3646,891,988
3647,896,990
3648,898,991
3649,899,992
3650,898,995
3651,901,995
3652,902,996
3653,902,993
3654,900,993
3655,901,996
3656,901,995
3657,903,996
3658,903,998
3659,907,998
3660,911,997
3661,916,996
3662,920,995
3663,922,990
3664,923,988
3665,922,986
3666,926,985
3667,925,985
3668,923,985
3669,922,985
3670,918,989
3671,918,987
3672,920,990
3673,925,991
3674,925,992
3675,928,991
3676,927,991
3677,926,986
3678,922,984
3679,921,983
3680,919,981
3681,915,981
3682,911,983
3683,910,981
3684,907,983
3685,905,984
3686,900,987
3687,899,984
3688,898,979
3689,893,979
3690,894,981
3691,895,979
3692,892,978
3693,893,977
3694,896,979
3695,894,981
3696,891,979
3697,893,982
3698,895,985
3699,895,981
3700,894,982
3701,893,981
3702,892,979
3703,886,979
3704,889,978
3705,887,979
3706,891,982
3707,889,982
3708,889,981
3709,891,984
3710,896,983
3711,895,982
3712,895,986
3713,894,982
3714,895,980
3715,894,980
3716,894,980
3717,894,981
3718,895,980
3719,895,984
3720,899,986
3721,900,989
3722,906,994
3723,907,993
3724,908,991
3725,910,988
3726,908,979
3727,911,968
3728,917,958
3729,927,944
3730,938,931
3731,964,916
3732,998,904
3733,1045,893
3734,1106,890
3735,1176,893
3736,1252,901
3737,1318,915
3738,1361,930
3739,1367,946
3740,1324,958
3741,1239,969
3742,1115,973
3743,987,976
3744,859,974
3745,760,972
3746,733,968
3747,754,965
3748,799,970
3749,849,974
3750,887,982
3751,914,987
3752,925,991
3753,929,990
3754,925,991
3755,920,993
3756,911,993
3757,907,992
3758,907,994
3759,911,990
3760,913,994
3761,912,992
3762,911,991
3763,913,988
3764,910,986
3765,911,987
3766,910,989
3767,911,992
3768,913,992
3769,914,992
3770,915,995
3771,916,991
3772,917,991
3773,918,989
3774,916,990
3775,917,988
3776,913,988
3777,913,988
3778,915,987
3779,916,988
3780,917,992
3781,919,992
3782,919,993
3783,919,990
3784,917,991
3785,919,990
3786,916,990
3787,916,986
3788,914,984
3789,914,984
3790,915,985
3791,916,987
3792,917,990
3793,918,990
3794,921,991
3795,923,991
3796,920,988
3797,920,988
3798,921,988
3799,920,987
3800,921,986
3801,918,986
3802,919,985
3803,921,986
3804,921,989
3805,922,990
3806,927,992
3807,925,990
3808,924,988
3809,924,987
3810,921,988
3811,923,985
3812,922,985
3813,922,983
3814,924,988
3815,923,985
3816,926,988
3817,927,988
3818,928,989
3819,928,989
3820,929,987
3821,929,987
3822,928,984
3823,929,986
3824,927,983
3825,925,984
3826,923,982
3827,929,984
3828,930,988
3829,932,987
3830,933,989
3831,934,986
3832,933,988
3833,935,985
3834,935,986
3835,933,984
3836,932,983
3837,933,983
3838,936,982
3839,936,986
3840,939,987
3841,942,988
3842,945,990
3843,945,990
3844,947,987
3845,947,985
3846,946,983
3847,946,983
3848,947,984
3849,944,982
3850,945,983
3851,948,982
3852,950,984
3853,953,985
3854,954,988
3855,956,986
3856,952,986
3857,953,983
3858,954,981
3859,951,982
3860,950,979
3861,951,980
3862,952,981
3863,955,982
3864,956,984
3865,955,984
3866,959,986
3867,958,983
3868,959,985
3869,957,983
3870,956,982
3871,956,979
3872,952,978
3873,950,981
3874,949,984
3875,948,985
3876,948,985
3877,944,986
3878,945,987
3879,943,987
3880,938,986
3881,932,987
3882,928,984
3883,925,985
3884,920,984
3885,918,984
3886,913,986
3887,910,987
3888,908,991
3889,907,992
3890,906,991
3891,906,991
3892,902,989
3893,901,987
3894,899,987
3895,898,985
3896,893,986
3897,892,986
3898,891,989
3899,894,987
3900,894,990
3901,894,990
3902,896,995
3903,894,992
3904,894,991
3905,894,989
3906,892,988
3907,891,985
3908,892,986
3909,891,986
3910,894,988
3911,892,989
3912,894,988
3913,895,992
3914,896,993
3915,898,990
3916,898,992
3917,899,991
3918,897,987
3919,897,986
3920,895,984
3921,896,984
3922,900,988
3923,900,988
3924,902,988
3925,902,990
3926,905,989
3927,908,990
3928,907,989
3929,908,987
3930,906,987
3931,905,986
3932,903,985
3933,902,984
3934,900,985
3935,905,987
3936,906,990
3937,907,990
3938,909,989
3939,910,988
3940,910,988
3941,908,988
3942,906,986
3943,902,986
3944,900,985
3945,898,984
3946,898,984
3947,898,985
3948,899,986
3949,900,989
3950,902,989
3951,904,986
3952,904,986
3953,904,986
3954,903,984
3955,901,982
3956,899,982
3957,897,983
3958,898,983
3959,900,984
3960,900,988
3961,903,987
3962,902,989
3963,901,986
3964,900,987
3965,898,984
3966,898,983
3967,896,982
3968,894,980
3969,894,981
3970,894,982
3971,895,983
3972,894,984
3973,895,986
3974,898,988
3975,902,983
3976,898,986
3977,899,982
3978,895,985
3979,893,983
3980,892,981
3981,894,980
3982,897,982
3983,897,985
3984,896,984
3985,899,985
3986,899,985
3987,900,985
3988,899,983
3989,901,984
3990,897,983
3991,900,980
3992,895,980
3993,896,981
3994,898,979
3995,899,984
3996,902,985
3997,901,984
3998,901,986
3999,902,985
4000,901,985
4001,901,984
4002,900,984
4003,898,980
4004,896,980
4005,901,981
4006,900,982
4007,898,984
4008,900,984
4009,900,987
4010,902,987
4011,904,987
4012,903,986
4013,902,986
4014,903,983
4015,902,981
4016,900,979
4017,898,982
4018,900,984
4019,899,985
4020,904,986
4021,903,989
4022,904,989
4023,907,988
4024,905,991
4025,904,992
4026,904,990
4027,904,989
4028,902,993
4029,903,992
4030,904,994
4031,909,998
4032,916,1000
4033,918,1000
4034,922,1003
4035,927,999
4036,926,997
4037,927,993
4038,930,988
4039,929,983
4040,931,983
4041,931,983
4042,936,984
4043,938,988
4044,938,989
4045,938,992
4046,937,991
4047,940,992
4048,938,990
4049,938,988
4050,936,986
4051,936,986
4052,934,988
4053,934,985
4054,932,985
4055,934,986
4056,933,989
4057,933,988
4058,931,988
4059,929,987
4060,925,985
4061,922,983
4062,921,983
4063,915,981
4064,914,979
4065,914,981
4066,913,981
4067,913,983
4068,911,986
4069,914,987
4070,915,985
4071,917,987
4072,917,987
4073,917,984
4074,915,985
4075,914,983
4076,913,980
4077,912,982
4078,911,983
4079,911,985
4080,911,984
4081,911,984
4082,915,988
4083,918,989
4084,915,986
4085,918,984
4086,918,983
4087,917,983
4088,916,981
4089,915,983
4090,914,984
4091,918,986
4092,921,989
4093,924,987
4094,926,989
4095,929,989
4096,928,989
4097,930,993
4098,932,994
4099,932,995
4100,931,995
4101,930,993
4102,932,991
4103,935,986
4104,939,976
4105,945,966
4106,955,954
4107,973,935
4108,995,919
4109,1029,901
4110,1076,891
4111,1135,888
4112,1205,890
4113,1279,905
4114,1344,921
4115,1379,943
4116,1372,960
4117,1313,974
4118,1204,984
4119,1076,982
4120,948,981
4121,821,974
4122,772,969
4123,777,967
4124,814,972
4125,863,979
4126,912,990
4127,946,996
4128,965,1002
4129,970,1004
4130,969,1004
4131,962,1004
4132,954,1000
4133,949,998
4134,945,997
4135,943,998
4136,945,997
4137,947,998
4138,948,998
4139,951,1001
4140,952,1000
4141,953,1001
4142,955,1004
4143,955,1002
4144,958,1000
4145,955,1001
4146,956,998
4147,955,999
4148,955,996
4149,952,999
4150,954,999
4151,954,999
4152,956,1002
4153,956,1001
4154,960,1002
4155,961,1001
4156,960,999
4157,963,1000
4158,959,998
4159,958,998
4160,956,996
4161,957,997
4162,956,999
4163,959,998
4164,961,1002
4165,964,1001
4166,963,1002
4167,965,1003
4168,966,1000
4169,962,1000
4170,960,998
4171,962,997
4172,962,998
4173,962,998
4174,961,997
4175,960,999
4176,962,999
4177,966,1003
4178,966,1001
4179,967,1004
4180,967,1002
4181,967,1000
4182,968,998
4183,967,997
4184,966,995
4185,965,998
4186,965,998
4187,966,998
4188,966,999
4189,969,1000
4190,971,999
4191,973,1003
4192,969,1002
4193,972,1001
4194,971,997
4195,971,998
4196,971,993
4197,971,995
4198,972,994
4199,968,999
4200,972,998
4201,976,1002
4202,974,1002
4203,979,998
4204,981,998
4205,981,998
4206,979,996
4207,980,996
4208,981,995
4209,981,995
4210,984,995
4211,984,997
4212,987,1000
4213,987,998
4214,990,1002
4215,990,1001
4216,991,1001
4217,990,999
4218,990,997
4219,988,996
4220,991,996
4221,990,994
4222,989,995
4223,995,995
4224,996,997
4225,996,999
4226,999,1001
4227,1001,1002
4228,1002,999
4229,1000,997
4230,999,996
4231,998,995
4232,995,994
4233,995,993
4234,996,994
4235,996,995
4236,997,997
4237,998,997
4238,1001,998
4239,1003,995
4240,1004,996
4241,1003,996
4242,1003,993
4243,1003,993
4244,1002,992
4245,1001,992
4246,1001,994
4247,1000,996
4248,1000,996
4249,999,998
4250,1000,1001
4251,998,1001
4252,997,999
4253,994,997
4254,992,999
4255,988,997
4256,982,996
4257,980,998
4258,977,998
4259,973,999
4260,972,999
4261,971,1000
4262,969,1004
4263,968,1003
4264,968,1002
4265,965,1001
4266,966,1002
4267,964,999
4268,962,1000
4269,960,999
4270,959,1000
4271,954,1004
4272,956,1002
4273,959,1004
4274,960,1005
4275,961,1004
4276,961,1006
4277,960,1004
4278,959,999
4279,955,1000
4280,956,1002
4281,954,999
4282,955,1001
4283,958,1003
4284,958,1005
4285,959,1004
4286,964,1006
4287,965,1006
4288,965,1004
4289,967,1006
4290,967,1004
4291,968,1000
4292,966,1001
4293,963,1000
4294,961,1003
4295,967,1002
4296,967,1004
4297,969,1002
4298,974,1006
4299,971,1003
4300,973,1004
4301,974,1003
4302,973,1004
4303,970,998
4304,969,1001
4305,971,1000
4306,970,1001
4307,970,1001
4308,971,1004
4309,973,1005
4310,976,1006
4311,977,1004
4312,976,1002
4313,978,1004
4314,974,1001
4315,974,997
4316,973,999
4317,971,998
4318,971,1000
4319,971,1000
4320,975,1001
4321,972,1001
4322,974,1002
4323,976,1001
4324,973,1000
4325,975,1000
4326,974,999
4327,973,997
4328,970,997
4329,969,994
4330,967,998
4331,968,997
4332,970,997
4333,969,1001
4334,973,1001
4335,973,1001
4336,972,1000
4337,974,1000
4338,971,996
4339,971,996
4340,970,996
4341,966,993
4342,966,995
4343,964,998
4344,967,999
4345,968,1000
4346,969,1002
4347,971,1000
4348,970,1001
4349,968,999
4350,967,999
4351,966,998
4352,966,995
4353,965,997
4354,968,996
4355,968,998
4356,966,997
4357,965,999
4358,965,1000
4359,969,1002
4360,970,999
4361,970,999
4362,970,996
4363,968,994
4364,967,997
4365,969,994
4366,968,998
4367,966,999
4368,969,1000
4369,966,998
4370,966,1000
4371,969,999
4372,972,998
4373,970,1000
4374,969,996
4375,966,997
4376,964,995
4377,963,996
4378,965,996
4379,965,997
4380,966,999
4381,968,999
4382,971,1001
4383,971,1000
4384,970,1002
4385,970,998
4386,970,997
4387,966,995
4388,967,995
4389,967,998
4390,966,997
4391,968,996
4392,968,999
4393,969,1001
4394,968,1002
4395,968,1003
4396,969,999
4397,971,999
4398,969,1000
4399,966,995
4400,966,999
4401,965,999
4402,965,1000
4403,965,1003
4404,966,1004
4405,968,1010
4406,968,1009
4407,974,1013
4408,976,1013
4409,978,1012
4410,976,1011
4411,979,1009
4412,981,1010
4413,982,1006
4414,983,1006
4415,986,1004
4416,989,1003
4417,990,1002
4418,994,1001
4419,996,1001
4420,999,1001
4421,1000,1001
4422,998,999
4423,997,1000
4424,992,1000
4425,993,1000
4426,989,999
4427,993,1002
4428,991,1003
4429,994,1003
4430,995,1005
4431,995,1004
4432,995,1001
4433,994,1001
4434,992,999
4435,989,997
4436,985,993
4437,982,992
4438,978,993
4439,975,994
4440,974,997
4441,973,996
4442,971,998
4443,971,998
4444,971,998
4445,970,997
4446,972,993
4447,966,993
4448,967,994
4449,965,993
4450,965,995
4451,965,996
4452,967,996
4453,968,998
4454,968,1001
4455,970,1000
4456,969,999
4457,969,999
4458,967,996
4459,964,995
4460,964,994
4461,964,994
4462,964,997
4463,964,997
4464,967,996
4465,969,1000
4466,967,1000
4467,971,1000
4468,970,998
4469,972,998
4470,969,998
4471,967,996
4472,968,996
4473,968,997
4474,970,1000
4475,975,1005
4476,977,1006
4477,979,1007
4478,984,1005
4479,984,997
4480,990,982
4481,997,963
4482,1014,942
4483,1040,921
4484,1083,907
4485,1141,900
4486,1212,906
4487,1288,917
4488,1353,938
4489,1394,960
4490,1398,978
4491,1352,990
4492,1256,997
4493,1128,1000
4494,1000,997
4495,875,992
4496,816,984
4497,811,980
4498,846,984
4499,895,989
4500,944,998
4501,982,1006
4502,1000,1013
4503,1010,1014
4504,1009,1014
4505,998,1011
4506,991,1009
4507,981,1007
4508,979,1006
4509,976,1005
4510,978,1005
4511,982,1006
4512,985,1008
4513,988,1011
4514,989,1011
4515,991,1012
4516,991,1011
4517,990,1009
4518,989,1009
4519,987,1007
4520,985,1005
4521,986,1006
4522,984,1006
4523,985,1005
4524,989,1010
4525,989,1009
4526,987,1010
4527,989,1008
4528,990,1009
4529,990,1009
4530,991,1006
4531,989,1008
4532,992,1004
4533,988,1004
4534,988,1005
4535,987,1007
4536,987,1009
4537,989,1008
4538,993,1010
4539,992,1008
4540,994,1008
4541,991,1008
4542,992,1008
4543,991,1004
4544,988,1003
4545,985,1003
4546,986,1003
4547,986,1005
4548,988,1006
4549,988,1006
4550,989,1007
4551,992,1008
4552,988,1005
4553,991,1005
4554,989,1006
4555,986,1004
4556,986,1002
4557,985,1002
4558,986,1003
4559,988,1002
4560,988,1005
4561,987,1003
4562,988,1008
4563,989,1007
4564,991,1005
4565,989,1004
4566,989,1005
4567,988,1001
4568,988,1002
4569,988,1002
4570,989,1001
4571,989,1003
4572,990,1002
4573,990,1003
4574,992,1005
4575,993,1006
4576,994,1002
4577,997,1003
4578,995,1001
4579,996,999
4580,995,998
4581,993,1000
4582,994,1000
4583,994,1001
4584,995,1001
4585,998,1001
4586,999,1002
4587,999,1006
4588,1001,1002
4589,999,1003
4590,998,999
4591,999,1000
4592,998,997
4593,999,997
4594,999,998
4595,1001,1000
4596,1001,998
4597,1001,999
4598,1005,999
4599,1005,1001
4600,1005,999
4601,1003,1000
4602,1002,998
4603,1003,997
4604,1001,994
4605,999,995
4606,998,997
4607,999,997
4608,1001,996
4609,1000,997
4610,1002,998
4611,1004,1000
4612,1005,1000
4613,1002,999
4614,1002,996
4615,1002,994
4616,1004,994
4617,999,994
4618,1000,995
4619,1000,997
4620,1001,997
4621,1000,999
4622,1001,1001
4623,998,1002
4624,995,1001
4625,992,1002
4626,988,1001
4627,984,1000
4628,977,1000
4629,974,999
4630,972,1002
4631,968,1002
4632,966,1004
4633,965,1004
4634,966,1004
4635,965,1009
4636,963,1007
4637,960,1007
4638,959,1005
4639,957,1004
4640,954,1002
4641,950,1002
4642,949,1003
4643,950,1002
4644,950,1005
4645,952,1005
4646,954,1008
4647,954,1007
4648,955,1008
4649,954,1007
4650,950,1005
4651,950,1005
4652,945,1003
4653,944,1003
4654,946,1002
4655,945,1004
4656,945,1007
4657,952,1007
4658,952,1007
4659,952,1008
4660,954,1007
4661,952,1005
4662,953,1003
4663,951,1000
4664,950,1000
4665,949,1001
4666,953,1003
4667,954,1003
4668,954,1002
4669,955,1005
4670,952,1006
4671,956,1007
4672,955,1005
4673,956,1005
4674,954,1002
4675,954,1002
4676,953,1002
4677,952,1001
4678,955,1001
4679,954,1002
4680,956,1004
4681,956,1003
4682,956,1006
4683,955,1006
4684,957,1003
4685,957,1003
4686,955,1001
4687,955,1001
4688,952,999
4689,949,999
4690,948,1000
4691,950,999
4692,948,1002
4693,950,1005
4694,951,1004
4695,949,1004
4696,949,1003
4697,948,1003
4698,948,1000
4699,948,999
4700,945,997
4701,945,996
4702,942,1000
4703,942,1000
4704,944,999
4705,941,1001
4706,943,1003
4707,947,1004
4708,944,1000
4709,946,1002
4710,944,998
4711,942,998
4712,939,997
4713,938,994
4714,936,997
4715,937,997
4716,938,1000
4717,936,999
4718,938,999
4719,940,1006
4720,938,1000
4721,941,1000
4722,937,997
4723,937,997
4724,937,997
4725,934,997
4726,934,997
4727,934,998
4728,936,999
4729,936,1000
4730,936,1001
4731,937,1000
4732,936,1000
4733,938,999
4734,937,1000
4735,935,996
4736,935,998
4737,934,997
4738,932,999
4739,931,1002
4740,930,1005
4741,934,1006
4742,937,1010
4743,942,1011
4744,942,1010
4745,945,1010
4746,949,1008
4747,948,1005
4748,949,1001
4749,950,1001
4750,952,1000
4751,955,996
4752,954,996
4753,959,1001
4754,963,999
4755,965,1003
4756,967,1001
4757,965,1001
4758,963,1001
4759,961,1000
4760,959,996
4761,957,998
4762,957,1000
4763,955,1000
4764,957,1003
4765,958,1002
4766,957,1002
4767,957,1001
4768,955,1000
4769,953,997
4770,950,995
4771,944,992
4772,940,992
4773,935,989
4774,931,991
4775,927,992
4776,928,995
4777,929,996
4778,933,995
4779,933,998
4780,932,995
4781,931,995
4782,931,994
4783,929,994
4784,926,991
4785,923,990
4786,923,992
4787,921,992
4788,921,994
4789,925,995
4790,924,994
4791,925,996
4792,926,995
4793,926,995
4794,924,991
4795,924,990
4796,922,991
4797,922,991
4798,921,993
4799,920,990
4800,922,995
4801,924,994
4802,926,997
4803,926,999
4804,928,996
4805,929,997
4806,930,996
4807,929,997
4808,928,996
4809,928,999
4810,929,1002
4811,933,997
4812,933,991
4813,938,983
4814,944,969
4815,956,956
4816,970,936
4817,999,919
4818,1037,909
4819,1087,902
4820,1152,903
4821,1222,913
4822,1290,930
4823,1343,951
4824,1366,967
4825,1353,983
4826,1298,992
4827,1206,1001
4828,1083,998
4829,955,996
4830,844,990
4831,782,985
4832,770,979
4833,795,978
4834,842,984
4835,888,988
4836,927,995
4837,948,1004
4838,959,1004
4839,958,1006
4840,954,1004
4841,945,1002
4842,939,1000
4843,934,999
4844,933,998
4845,931,995
4846,935,997
4847,936,998
4848,937,998
4849,940,1000
4850,941,1000
4851,940,1002
4852,940,1000
4853,938,999
4854,940,999
4855,940,996
4856,937,996
4857,936,993
4858,937,998
4859,936,998
4860,939,999
4861,939,1000
4862,940,999
4863,942,1001
4864,941,999
4865,942,998
4866,942,996
4867,942,995
4868,941,993
4869,938,994
4870,938,993
4871,938,995
4872,939,996
4873,940,997
4874,941,998
4875,942,997
4876,943,994
4877,941,996
4878,941,993
4879,939,992
4880,939,992
4881,938,990
4882,938,990
4883,938,992
4884,940,995
4885,940,993
4886,941,996
4887,943,995
4888,942,996
4889,942,993
4890,942,993
4891,940,993
4892,939,990
4893,939,989
4894,938,990
4895,937,992
4896,939,991
4897,941,993
4898,942,995
4899,946,994
4900,944,992
4901,945,992
4902,944,991
4903,945,988
4904,944,991
4905,942,988
4906,941,989
4907,942,989
4908,943,992
4909,945,992
4910,946,992
4911,948,994
4912,949,992
4913,951,991
4914,949,991
4915,949,989
4916,947,987
4917,946,987
4918,943,988
4919,947,989
4920,947,988
4921,945,989
4922,949,990
4923,953,993
4924,954,988
4925,956,989
4926,955,988
4927,954,985
4928,954,985
4929,954,984
4930,951,985
4931,952,986
4932,957,985
4933,955,986
4934,957,989
4935,959,990
4936,961,987
4937,960,988
4938,960,985
4939,958,983
4940,957,982
4941,953,982
4942,954,981
4943,956,981
4944,957,982
4945,956,984
4946,959,986
4947,961,988
4948,961,986
4949,960,983
4950,958,983
4951,958,980
4952,954,977
4953,955,978
4954,954,979
4955,955,981
4956,955,981
4957,957,985
4958,959,985
4959,955,985
4960,955,987
4961,954,983
4962,951,987
4963,948,982
4964,943,983
4965,940,981
4966,935,982
4967,934,984
4968,934,988
4969,931,986
4970,928,990
4971,927,989
4972,925,988
4973,924,989
4974,921,987
4975,917,987
4976,915,987
4977,909,987
4978,908,985
4979,909,987
4980,906,986
4981,906,987
4982,906,988
4983,906,990
4984,906,990
4985,903,989
4986,904,987
4987,902,985
4988,899,986
4989,897,984
4990,897,987
4991,897,987
4992,897,989
4993,897,990
4994,899,988
4995,901,990
4996,902,988
4997,903,990
4998,900,986
4999,897,985
5000,900,985
5001,897,984
5002,897,985
5003,899,984
5004,901,986
5005,902,988
5006,905,989
5007,906,992
5008,906,988
5009,907,988
5010,909,987
5011,907,985
5012,906,984
5013,904,982
5014,904,984
5015,905,984
5016,905,984
5017,906,985
5018,906,985
5019,910,987
5020,912,988
5021,913,985
5022,914,984
5023,913,982
5024,911,981
5025,908,979
5026,906,982
5027,909,981
5028,909,983
5029,909,981
5030,910,986
5031,912,985
5032,911,984
5033,909,984
5034,908,980
5035,909,980
5036,906,978
5037,905,978
5038,903,980
5039,903,979
5040,904,981
5041,904,983
5042,909,983
5043,908,983
5044,907,982
5045,907,983
5046,905,981
5047,903,979
5048,900,976
5049,902,977
5050,900,976
5051,902,977
5052,902,978
5053,904,980
5054,903,981
5055,903,981
5056,906,980
5057,905,979
5058,905,976
5059,902,976
5060,901,976
5061,899,974
5062,897,976
5063,898,976
5064,897,977
5065,899,980
5066,898,981
5067,900,982
5068,899,981
5069,898,981
5070,899,978
5071,897,977
5072,896,972
5073,895,974
5074,891,974
5075,894,975
5076,894,976
5077,897,979
5078,898,978
5079,900,979
5080,900,977
5081,902,979
5082,901,978
5083,900,975
5084,895,973
5085,894,971
5086,895,974
5087,895,973
5088,896,976
5089,895,979
5090,897,982
5091,899,982
5092,899,980
5093,901,982
5094,899,983
5095,899,984
5096,899,983
5097,899,984
5098,900,987
5099,901,984
5100,906,988
5101,908,990
5102,912,988
5103,915,988
5104,919,984
5105,919,979
5106,921,976
5107,922,974
5108,924,971
5109,924,973
5110,926,974
5111,927,977
5112,925,979
5113,928,979
5114,925,978
5115,925,981
5116,928,978
5117,928,979
5118,927,977
5119,925,978
5120,924,975
5121,923,974
5122,919,975
5123,917,973
5124,917,972
5125,918,976
5126,913,975
5127,911,972
5128,908,973
5129,907,971
5130,903,970
5131,900,970
5132,894,967
5133,893,966
5134,893,968
5135,895,967
5136,894,970
5137,897,970
5138,897,972
5139,900,972
5140,899,971
5141,897,971
5142,894,969
5143,893,970
5144,892,967
5145,890,964
5146,889,966
5147,889,967
5148,888,969
5149,891,972
5150,892,970
5151,892,974
5152,892,972
5153,895,972
5154,895,971
5155,893,968
5156,893,968
5157,891,968
5158,891,969
5159,894,970
5160,897,971
5161,899,972
5162,902,976
5163,903,981
5164,905,983
5165,907,980
5166,906,980
5167,909,974
5168,908,969
5169,909,961
5170,912,953
5171,921,938
5172,935,925
5173,960,911
5174,993,894
5175,1038,881
5176,1096,873
5177,1163,877
5178,1237,887
5179,1304,896
5180,1345,915
5181,1351,930
5182,1309,944
5183,1219,956
5184,1095,963
5185,967,962
5186,839,962
5187,758,960
5188,733,956
5189,755,956
5190,801,960
5191,848,966
5192,891,971
5193,916,977
5194,929,982
5195,932,981
5196,928,983
5197,921,984
5198,913,982
5199,913,983
5200,912,984
5201,910,982
5202,910,983
5203,911,982
5204,911,978
5205,909,978
5206,909,977
5207,907,980
5208,907,982
5209,908,982
5210,909,984
5211,912,983
5212,911,983
5213,911,982
5214,911,982
5215,910,982
5216,907,977
5217,907,975
5218,908,977
5219,906,979
5220,909,980
5221,910,980
5222,911,984
5223,911,984
5224,910,982
5225,912,982
5226,912,979
5227,911,979
5228,911,976
5229,907,976
5230,908,974
5231,909,979
5232,909,980
5233,910,980
5234,911,983
5235,913,982
5236,913,983
5237,914,978
5238,912,979
5239,913,976
5240,911,976
5241,911,975
5242,911,974
5243,910,975
5244,910,980
5245,911,979
5246,912,980
5247,914,981
5248,914,983
5249,916,979
5250,915,977
5251,913,978
5252,912,975
5253,914,976
5254,912,974
5255,910,975
5256,911,976
5257,912,979
5258,911,980
5259,915,981
5260,919,979
5261,919,981
5262,919,979
5263,918,976
5264,918,974
5265,916,974
5266,916,975
5267,918,976
5268,918,977
5269,920,978
5270,918,980
5271,922,982
5272,926,979
5273,926,978
5274,924,979
5275,923,978
5276,921,974
5277,922,975
5278,922,975
5279,924,976
5280,924,977
5281,926,978
5282,928,977
5283,930,980
5284,933,978
5285,932,977
5286,933,975
5287,933,973
5288,932,973
5289,931,971
5290,930,973
5291,932,974
5292,931,975
5293,936,975
5294,937,977
5295,939,977
5296,939,978
5297,938,977
5298,942,973
5299,941,973
5300,940,972
5301,941,971
5302,939,971
5303,939,970
5304,941,972
5305,942,974
5306,942,974
5307,944,976
5308,941,974
5309,944,974
5310,944,972
5311,940,971
5312,939,969
5313,936,970
5314,932,970
5315,929,970
5316,924,972
5317,923,973
5318,921,974
5319,919,978
5320,919,979
5321,918,978
5322,911,975
5323,911,973
5324,906,974
5325,900,973
5326,898,973
5327,897,974
5328,895,975
5329,894,978
5330,893,981
5331,894,978
5332,894,981
5333,892,979
5334,889,978
5335,888,976
5336,884,976
5337,884,973
5338,884,975
5339,881,977
5340,882,979
5341,883,979
5342,883,979
5343,885,982
5344,886,980
5345,883,981
5346,883,977
5347,883,977
5348,881,978
5349,878,976
5350,880,975
5351,880,976
5352,880,979
5353,881,980
5354,884,981
5355,888,980
5356,888,981
5357,888,980
5358,888,980
5359,888,976
5360,887,978
5361,886,977
5362,888,976
5363,887,976
5364,888,976
5365,891,978
5366,889,979
5367,891,979
5368,894,980
5369,894,978
5370,896,976
5371,894,974
5372,892,975
5373,889,971
5374,891,972
5375,891,973
5376,892,973
5377,892,975
5378,893,976
5379,893,976
5380,895,976
5381,893,974
5382,893,973
5383,889,971
5384,888,970
5385,887,971
5386,889,969
5387,888,971
5388,888,971
5389,888,971
5390,888,976
5391,890,977
5392,889,975
5393,886,973
5394,884,975
5395,884,971
5396,887,969
5397,885,968
5398,884,968
5399,883,970
5400,886,972
5401,886,972
5402,885,973
5403,885,974
5404,887,973
5405,885,971
5406,884,971
5407,882,970
5408,882,967
5409,881,967
5410,880,967
5411,880,971
5412,880,971
5413,883,971
5414,881,971
5415,884,974
5416,885,972
5417,885,972
5418,884,971
5419,881,969
5420,882,968
5421,879,967
5422,879,969
5423,879,971
5424,879,970
5425,881,971
5426,881,972
5427,881,973
5428,882,975
5429,884,973
5430,882,972
5431,881,970
5432,881,972
5433,879,973
5434,878,972
5435,881,979
5436,880,981
5437,885,986
5438,888,985
5439,890,988
5440,894,986
5441,896,986
5442,897,984
5443,896,981
5444,899,977
5445,899,972
5446,902,971
5447,903,970
5448,906,969
5449,912,973
5450,913,975
5451,912,976
5452,914,979
5453,910,975
5454,910,974
5455,909,973
5456,906,971
5457,908,972
5458,907,971
5459,909,975
5460,908,975
5461,909,975
5462,909,974
5463,908,975
5464,908,977
5465,905,973
5466,903,971
5467,898,971
5468,892,966
5469,886,967
5470,885,964
5471,881,968
5472,879,966
5473,877,968
5474,878,970
5475,882,972
5476,885,969
5477,883,969
5478,880,968
5479,880,965
5480,879,966
5481,875,965
5482,874,967
5483,874,967
5484,873,968
5485,874,969
5486,874,970
5487,878,973
5488,881,971
5489,878,970
5490,880,971
5491,879,967
5492,877,966
5493,876,964
5494,874,965
5495,876,968
5496,877,969
5497,878,970
5498,878,969
5499,882,970
5500,881,971
5501,880,970
5502,882,968
5503,882,970
5504,883,970
5505,883,970
5506,884,973
5507,888,978
5508,889,977
5509,891,975
5510,896,966
5511,902,955
5512,911,937
5513,929,916
5514,958,896
5515,997,878
5516,1052,867
5517,1122,867
5518,1204,873
5519,1275,890
5520,1323,910
5521,1330,930
5522,1290,948
5523,1195,959
5524,1067,965
5525,939,963
5526,811,959
5527,728,955
5528,707,949
5529,733,949
5530,778,953
5531,830,962
5532,871,970
5533,895,978
5534,907,984
5535,910,986
5536,908,988
5537,903,983
5538,898,981
5539,892,982
5540,890,978
5541,888,978
5542,887,979
5543,889,981
5544,890,981
5545,891,979
5546,894,983
5547,895,982
5548,895,981
5549,894,982
5550,896,980
5551,894,979
5552,892,978
5553,889,977
5554,889,976
5555,890,980
5556,890,981
5557,892,978
5558,897,982
5559,897,982
5560,896,984
5561,897,982
5562,897,979
5563,895,979
5564,893,976
5565,893,979
5566,891,975
5567,894,979
5568,895,979
5569,896,981
5570,898,980
5571,897,981
5572,899,982
5573,898,980
5574,898,980
5575,899,979
5576,895,977
5577,898,976
5578,895,975
5579,894,978
5580,895,978
5581,898,977
5582,899,979
5583,900,980
5584,903,979
5585,902,979
5586,902,978
5587,901,976
5588,900,974
5589,899,973
5590,899,976
5591,899,977
5592,901,975
5593,903,977
5594,903,977
5595,906,980
5596,907,981
5597,904,980
5598,905,976
5599,904,976
5600,902,976
5601,902,973
5602,903,973
5603,901,975
5604,902,976
5605,903,977
5606,904,979
5607,908,980
5608,911,980
5609,911,978
5610,910,979
5611,909,976
5612,908,975
5613,907,975
5614,906,975
5615,908,977
5616,909,978
5617,912,978
5618,911,980
5619,915,979
5620,919,979
5621,918,976
5622,918,977
5623,917,976
5624,919,974
5625,914,974
5626,915,973
5627,918,972
5628,917,975
5629,922,976
5630,921,977
5631,923,979
5632,923,978
5633,924,976
5634,923,974
5635,928,975
5636,927,975
5637,925,973
5638,925,973
5639,925,974
5640,925,974
5641,926,975
5642,927,977
5643,927,977
5644,930,975
5645,930,975
5646,931,975
5647,928,973
5648,928,972
5649,924,970
5650,922,974
5651,920,973
5652,918,974
5653,915,975
5654,913,978
5655,909,981
5656,906,981
5657,904,979
5658,902,980
5659,898,977
5660,892,979
5661,888,975
5662,882,975
5663,881,979
5664,881,980
5665,878,981
5666,877,982
5667,876,983
5668,876,985
5669,876,982
5670,874,984
5671,875,981
5672,869,980
5673,870,978
5674,869,980
5675,866,982
5676,868,982
5677,868,982
5678,869,984
5679,871,983
5680,871,987
5681,873,986
5682,871,984
5683,871,984
5684,869,982
5685,865,979
5686,865,983
5687,867,982
5688,868,982
5689,871,985
5690,874,986
5691,873,987
5692,878,989
5693,877,985
5694,876,983
5695,875,984
5696,872,983
5697,872,982
5698,871,981
5699,873,982
5700,873,983
5701,874,985
5702,875,984
5703,878,987
5704,878,987
5705,880,986
5706,879,985
5707,878,981
5708,877,980
5709,877,981
5710,876,980
5711,877,982
5712,875,982
5713,878,983
5714,879,983
5715,879,985
5716,884,984
5717,878,981
5718,878,982
5719,875,984
5720,876,980
5721,874,978
5722,874,977
5723,872,978
5724,871,979
5725,872,980
5726,871,981
5727,875,981
5728,875,983
5729,873,982
5730,873,980
5731,870,981
5732,872,979
5733,871,976
5734,869,976
5735,867,978
5736,867,980
5737,868,983
5738,871,984
5739,870,984
5740,872,984
5741,873,981
5742,871,980
5743,869,979
5744,868,978
5745,865,977
5746,861,977
5747,859,979
5748,862,979
5749,864,981
5750,863,982
5751,865,984
5752,869,984
5753,869,985
5754,869,985
5755,868,982
5756,868,982
5757,866,983
5758,866,982
5759,864,985
5760,868,989
5761,868,992
5762,870,993
5763,875,993
5764,878,996
5765,879,995
5766,882,994
5767,881,992
5768,881,991
5769,882,989
5770,884,986
5771,884,984
5772,885,982
5773,890,983
5774,893,984
5775,896,988
5776,900,987
5777,901,988
5778,901,986
5779,898,985
5780,897,984
5781,892,982
5782,888,982
5783,889,983
5784,890,982
5785,893,986
5786,894,986
5787,896,990
5788,894,985
5789,892,985
5790,892,984
5791,889,982
5792,885,980
5793,881,977
5794,878,974
5795,870,976
5796,868,977
5797,864,979
5798,864,979
5799,865,979
5800,866,979
5801,864,979
5802,867,979
5803,866,977
5804,865,977
5805,861,974
5806,856,974
5807,858,976
5808,857,977
5809,857,978
5810,857,981
5811,860,981
5812,862,982
5813,859,980
5814,859,981
5815,857,978
5816,857,977
5817,859,977
5818,859,975
5819,859,979
5820,859,978
5821,861,980
5822,861,981
5823,862,981
5824,864,983
5825,863,982
5826,865,983
5827,866,980
5828,866,980
5829,867,982
5830,869,984
5831,870,986
5832,870,989
5833,875,989
5834,875,986
5835,878,979
5836,884,969
5837,891,952
5838,908,932
5839,927,911
5840,964,896
5841,1014,889
5842,1080,888
5843,1156,897
5844,1234,913
5845,1291,936
5846,1316,954
5847,1300,973
5848,1231,981
5849,1116,987
5850,988,987
5851,860,983
5852,752,976
5853,703,971
5854,705,968
5855,741,969
5856,789,969
5857,835,977
5858,867,984
5859,886,990
5860,891,994
5861,891,996
5862,885,993
5863,883,992
5864,877,990
5865,874,987
5866,873,986
5867,872,988
5868,873,990
5869,874,989
5870,877,991
5871,877,991
5872,879,992
5873,879,991
5874,881,990
5875,881,990
5876,880,987
5877,879,987
5878,877,985
5879,878,988
5880,876,986
5881,879,988
5882,881,990
5883,882,992
5884,885,988
5885,882,987
5886,882,988
5887,879,988
5888,879,986
5889,880,985
5890,876,984
5891,878,984
5892,878,985
5893,878,987
5894,880,988
5895,883,988
5896,883,990
5897,883,987
5898,884,988
5899,884,987
5900,884,984
5901,881,983
5902,881,984
5903,882,984
5904,885,985
5905,886,988
5906,884,989
5907,884,989
5908,883,989
5909,883,987
5910,884,989
5911,885,984
5912,884,984
5913,883,982
5914,882,982
5915,883,982
5916,881,982
5917,883,986
5918,884,985
5919,883,986
5920,888,986
5921,889,984
5922,887,984
5923,890,981
5924,887,982
5925,886,981
5926,882,981
5927,883,981
5928,883,980
5929,885,983
5930,887,984
5931,891,986
5932,894,987
5933,897,985
5934,895,987
5935,896,982
5936,895,981
5937,894,978
5938,893,978
5939,893,981
5940,891,981
5941,896,982
5942,896,984
5943,900,984
5944,903,986
5945,902,982
5946,905,983
5947,903,981
5948,905,979
5949,902,978
5950,903,979
5951,903,980
5952,902,976
5953,902,978
5954,904,976
5955,907,979
5956,906,981
5957,907,979
5958,906,978
5959,907,977
5960,906,976
5961,906,974
5962,906,976
5963,906,977
5964,906,978
5965,906,979
5966,911,980
5967,910,983
5968,910,982
5969,908,982
5970,912,980
5971,911,981
5972,908,978
5973,908,978
5974,903,978
5975,906,980
5976,904,981
5977,902,980
5978,903,985
5979,902,986
5980,900,987
5981,898,987
5982,894,986
5983,889,984
5984,885,984
5985,878,983
5986,874,982
5987,871,984
5988,868,984
5989,867,985
5990,864,991
5991,864,990
5992,863,991
5993,861,990
5994,862,989
5995,859,988
5996,857,987
5997,856,986
5998,853,987
5999,850,987
6000,851,988
6001,853,989
6002,854,991
6003,855,992
6004,854,990
6005,855,993
6006,853,990
6007,851,990
6008,852,989
6009,851,989
6010,850,989
6011,851,991
6012,851,989
6013,851,989
6014,849,993
6015,853,994
6016,855,994
6017,856,991
6018,856,995
6019,856,990
6020,853,988
6021,854,984
6022,853,987
6023,854,988
6024,855,989
6025,856,991
6026,858,992
6027,859,992
6028,862,994
6029,862,992
6030,860,991
6031,863,989
6032,858,988
6033,859,984
6034,858,983
6035,859,986
6036,859,988
6037,856,988
6038,860,991
6039,859,990
6040,860,993
6041,861,989
6042,862,989
6043,858,987
6044,857,986
6045,856,985
6046,857,986
6047,852,985
6048,855,985
6049,855,987
6050,856,989
6051,856,991
6052,858,989
6053,857,989
6054,858,990
6055,855,988
6056,855,985
6057,851,985
6058,850,982
6059,850,986
6060,851,984
6061,852,986
6062,852,989
6063,852,990
6064,853,991
6065,855,990
6066,855,990
6067,853,989
6068,852,986
6069,853,986
6070,849,985
6071,848,986
6072,849,986
6073,850,990
6074,851,992
6075,853,997
6076,854,997
6077,854,996
6078,857,996
6079,857,996
6080,856,996
6081,858,994
6082,860,995
6083,858,995
6084,860,996
6085,862,997
6086,866,994
6087,867,994
6088,871,993
6089,874,988
6090,877,987
6091,880,986
6092,879,986
6093,879,987
6094,879,986
6095,877,987
6096,874,988
6097,873,988
6098,877,989
6099,877,989
6100,880,993
6101,880,992
6102,879,991
6103,877,988
6104,874,986
6105,870,985
6106,866,982
6107,863,982
6108,859,980
6109,857,982
6110,854,986
6111,851,986
6112,851,986
6113,847,985
6114,847,982
6115,847,981
6116,845,982
6117,844,978
6118,843,979
6119,844,980
6120,841,979
6121,841,980
6122,842,984
6123,844,984
6124,843,988
6125,843,983
6126,844,982
6127,845,983
6128,842,980
6129,841,979
6130,840,979
6131,837,980
6132,838,980
6133,840,981
6134,841,983
6135,840,982
6136,846,986
6137,846,982
6138,843,983
6139,842,981
6140,842,982
6141,843,980
6142,840,979
6143,842,983
6144,844,983
6145,847,986
6146,852,989
6147,855,993
6148,860,995
6149,860,990
6150,858,987
6151,860,980
6152,864,966
6153,867,954
6154,883,939
6155,902,920
6156,935,904
6157,987,893
6158,1057,892
6159,1142,898
6160,1229,914
6161,1294,930
6162,1319,951
6163,1287,969
6164,1187,978
6165,1059,982
6166,931,977
6167,803,976
6168,693,970
6169,688,969
6170,730,970
6171,784,975
6172,838,987
6173,875,989
6174,892,993
6175,895,992
6176,886,990
6177,874,988
6178,862,983
6179,855,984
6180,853,984
6181,855,987
6182,859,991
6183,863,992
6184,866,992
6185,867,991
6186,865,991
6187,868,988
6188,863,988
6189,863,984
6190,864,984
6191,861,986
6192,860,986
6193,863,986
6194,868,990
6195,866,989
6196,869,988
6197,871,987
6198,865,988
6199,865,987
6200,864,985
6201,866,983
6202,865,984
6203,865,984
6204,865,983
6205,863,987
6206,866,986
6207,868,987
6208,870,987
6209,873,986
6210,871,986
6211,869,986
6212,868,984
6213,868,981
6214,867,982
6215,868,982
6216,868,984
6217,868,983
6218,871,984
6219,869,983
6220,873,987
6221,873,986
6222,872,985
6223,870,981
6224,871,981
6225,870,981
6226,870,979
6227,871,981
6228,871,982
6229,872,983
6230,874,984
6231,872,986
6232,877,984
6233,876,983
6234,877,983
6235,877,982
6236,878,979
6237,876,978
6238,875,978
6239,875,980
6240,875,981
6241,877,983
6242,877,985
6243,879,985
6244,879,985
6245,884,985
6246,884,984
6247,884,980
6248,883,981
6249,883,979
6250,882,978
6251,882,979
6252,882,981
6253,882,981
6254,886,981
6255,885,982
6256,891,983
6257,896,984
6258,893,983
6259,896,981
6260,896,979
6261,895,979
6262,894,977
6263,893,976
6264,893,976
6265,894,980
6266,896,978
6267,896,981
6268,899,982
6269,901,981
6270,900,979
6271,902,978
6272,901,974
6273,900,974
6274,902,973
6275,899,976
6276,898,976
6277,900,977
6278,901,978
6279,905,980
6280,904,979
6281,905,980
6282,905,980
6283,906,979
6284,902,977
6285,901,976
6286,899,975
6287,896,976
6288,895,979
6289,895,979
6290,893,982
6291,889,982
6292,887,984
6293,885,983
6294,883,982
6295,879,980
6296,876,980
6297,872,980
6298,867,977
6299,862,980
6300,859,980
6301,857,981
6302,858,984
6303,856,985
6304,853,985
6305,854,984
6306,851,985
6307,851,983
6308,849,981
6309,846,981
6310,846,979
6311,844,981
6312,842,983
6313,842,985
6314,843,983
6315,846,987
6316,847,987
6317,847,987
6318,847,984
6319,846,984
6320,846,982
6321,846,980
6322,844,981
6323,843,982
6324,844,979
6325,843,985
6326,846,983
6327,846,985
6328,847,988
6329,851,985
6330,850,983
6331,851,983
6332,849,981
6333,851,981
6334,847,980
6335,849,982
6336,849,982
6337,851,983
6338,852,984
6339,856,983
6340,855,986
6341,857,985
6342,856,985
6343,856,983
6344,856,981
6345,856,979
6346,855,977
6347,855,978
6348,856,981
6349,855,980
6350,856,982
6351,855,984
6352,857,982
6353,857,982
6354,858,982
6355,855,979
6356,855,979
6357,852,978
6358,852,978
6359,853,974
6360,853,978
6361,854,978
6362,853,981
6363,853,981
6364,856,980
6365,856,979
6366,855,980
6367,853,978
6368,855,976
6369,854,974
6370,851,975
6371,849,975
6372,849,978
6373,850,978
6374,851,980
6375,853,979
6376,852,981
6377,855,979
6378,855,982
6379,850,978
6380,852,978
6381,851,977
6382,849,975
6383,850,976
6384,848,977
6385,846,978
6386,847,978
6387,848,980
6388,850,980
6389,852,980
6390,851,982
6391,850,979
6392,848,977
6393,847,975
6394,846,975
6395,846,975
6396,844,977
6397,847,977
6398,845,979
6399,848,980
6400,851,980
6401,852,980
6402,851,979
6403,852,978
6404,849,977
6405,852,976
6406,848,976
6407,849,977
6408,847,978
6409,849,982
6410,849,984
6411,850,986
6412,854,988
6413,857,989
6414,857,991
6415,858,990
6416,860,988
6417,861,988
6418,862,988
6419,860,987
6420,865,985
6421,864,985
6422,866,984
6423,871,982
6424,875,983
6425,879,981
6426,881,979
6427,884,979
6428,886,978
6429,883,977
6430,880,979
6431,879,979
6432,879,978
6433,878,979
6434,881,980
6435,881,981
6436,883,982
6437,885,984
6438,883,980
6439,884,980
6440,882,979
6441,878,978
6442,877,978
6443,874,973
6444,871,973
6445,868,973
6446,866,976
6447,864,974
6448,860,975
6449,860,975
6450,855,975
6451,856,975
6452,851,973
6453,852,970
6454,852,972
6455,851,970
6456,851,972
6457,851,972
6458,853,972
6459,853,975
6460,853,976
6461,853,977
6462,851,976
6463,852,976
6464,851,973
6465,849,974
6466,849,971
6467,847,972
6468,846,971
6469,848,973
6470,849,974
6471,855,976
6472,855,978
6473,857,977
6474,856,977
6475,853,974
6476,857,971
6477,854,973
6478,854,971
6479,853,968
6480,856,972
6481,857,975
6482,858,979
6483,859,982
6484,864,985
6485,868,985
6486,870,981
6487,874,972
6488,876,960
6489,880,948
6490,893,929
6491,913,911
6492,944,893
6493,993,881
6494,1056,876
6495,1133,879
6496,1214,891
6497,1284,904
6498,1326,920
6499,1320,938
6500,1263,952
6501,1153,959
6502,1025,962
6503,897,963
6504,769,958
6505,702,954
6506,700,955
6507,731,958
6508,778,966
6509,833,973
6510,866,978
6511,888,983
6512,896,985
6513,894,986
6514,884,983
6515,878,981
6516,875,981
6517,869,983
6518,869,984
6519,869,985
6520,874,990
6521,880,988
6522,877,987
6523,878,984
6524,876,983
6525,873,983
6526,875,981
6527,873,981
6528,875,982
6529,873,982
6530,876,984
6531,877,986
6532,877,987
6533,879,987
6534,878,986
6535,878,983
6536,878,984
6537,877,982
6538,875,979
6539,872,980
6540,872,979
6541,875,982
6542,878,984
6543,881,984
6544,880,988
6545,882,987
6546,882,984
6547,881,983
6548,880,981
6549,879,981
6550,877,977
6551,876,979
6552,875,979
6553,876,982
6554,878,981
6555,875,986
6556,882,985
6557,880,985
6558,882,984
6559,882,982
6560,880,982
6561,877,978
6562,878,978
6563,879,978
6564,879,978
6565,882,979
6566,882,981
6567,881,985
6568,884,985
6569,883,981
6570,882,981
6571,886,982
6572,886,980
6573,887,980
6574,884,975
6575,883,979
6576,884,978
6577,885,980
6578,888,981
6579,888,983
6580,890,985
6581,893,984
6582,892,982
6583,893,980
6584,893,981
6585,891,977
6586,890,978
6587,890,977
6588,891,978
6589,893,980
6590,893,978
6591,897,981
6592,898,983
6593,899,985
6594,898,980
6595,897,982
6596,899,979
6597,898,976
6598,897,977
6599,899,979
6600,901,977
6601,901,978
6602,902,977
6603,905,981
6604,907,983
6605,910,981
6606,909,978
6607,912,978
6608,909,978
6609,910,975
6610,909,976
6611,909,974
6612,907,975
6613,908,974
6614,912,978
6615,912,980
6616,914,981
6617,914,978
6618,917,975
6619,917,976
6620,914,976
6621,913,972
6622,910,973
6623,911,972
6624,912,973
6625,913,973
6626,914,975
6627,919,976
6628,921,979
6629,921,978
6630,919,976
6631,919,978
6632,916,978
6633,910,975
6634,906,975
6635,902,973
6636,903,975
6637,898,978
6638,899,976
6639,895,979
6640,895,983
6641,894,984
6642,890,981
6643,885,980
6644,883,978
6645,879,976
6646,878,978
6647,872,978
6648,871,979
6649,872,980
6650,870,982
6651,869,981
6652,870,984
6653,872,984
6654,869,983
6655,870,981
6656,867,982
6657,863,982
6658,864,978
6659,862,978
6660,864,979
6661,859,982
6662,862,984
6663,862,986
6664,866,984
6665,867,985
6666,867,982
6667,867,984
6668,865,979
6669,863,981
6670,863,979
6671,862,978
6672,862,981
6673,863,981
6674,863,982
6675,865,984
6676,866,985
6677,870,985
6678,866,983
6679,869,981
6680,867,980
6681,865,980
6682,866,978
6683,867,980
6684,867,981
6685,867,981
6686,869,982
6687,870,984
6688,873,984
6689,874,984
6690,872,981
6691,876,982
6692,875,981
6693,873,980
6694,872,979
6695,870,978
6696,873,979
6697,872,982
6698,874,982
6699,874,981
6700,876,982
6701,878,985
6702,876,982
6703,872,982
6704,874,978
6705,874,977
6706,871,976
6707,869,975
6708,869,976
6709,869,978
6710,872,981
6711,873,981
6712,873,982
6713,875,983
6714,874,983
6715,872,980
6716,873,976
6717,869,977
6718,870,974
6719,868,974
6720,867,975
6721,866,976
6722,868,978
6723,869,980
6724,869,980
6725,871,980
6726,871,979
6727,870,980
6728,872,976
6729,870,977
6730,867,976
6731,865,976
6732,864,977
6733,864,978
6734,868,979
6735,867,978
6736,870,981
6737,868,980
6738,870,979
6739,868,981
6740,868,978
6741,867,977
6742,866,976
6743,864,975
6744,864,976
6745,863,976
6746,866,979
6747,868,979
6748,869,981
6749,871,981
6750,869,979
6751,871,978
6752,870,978
6753,868,977
6754,866,975
6755,866,976
6756,865,977
6757,864,978
6758,865,980
6759,869,981
6760,869,980
6761,869,982
6762,870,980
6763,867,980
6764,868,976
6765,866,978
6766,866,976
6767,866,976
6768,866,977
6769,865,976
6770,867,981
6771,867,981
6772,868,985
6773,873,985
6774,872,987
6775,870,987
6776,870,988
6777,871,988
6778,871,988
6779,873,989
6780,875,988
6781,877,992
6782,880,995
6783,883,994
6784,888,992
6785,890,993
6786,891,988
6787,894,984
6788,894,978
6789,896,978
6790,896,975
6791,896,975
6792,896,979
6793,897,981
6794,896,983
6795,897,986
6796,898,984
6797,901,984
6798,899,983
6799,900,981
6800,897,980
6801,898,981
6802,896,978
6803,891,978
6804,890,978
6805,889,978
6806,887,979
6807,887,978
6808,885,979
6809,882,979
6810,879,977
6811,876,976
6812,873,975
6813,874,974
6814,871,973
6815,871,973
6816,870,975
6817,871,975
6818,872,975
6819,871,979
6820,873,977
6821,873,980
6822,873,978
6823,874,977
6824,872,976
6825,870,973
6826,868,971
6827,867,973
6828,866,975
6829,866,975
6830,867,978
6831,866,978
6832,869,978
6833,873,980
6834,874,980
6835,873,978
6836,873,977
6837,873,975
6838,872,975
6839,872,975
6840,874,977
6841,878,978
6842,877,980
6843,882,987
6844,885,988
6845,889,993
6846,892,989
6847,894,981
6848,896,970
6849,900,957
6850,910,938
6851,930,919
6852,961,900
6853,1008,885
6854,1069,878
6855,1142,878
6856,1222,886
6857,1293,903
6858,1339,918
6859,1340,937
6860,1283,955
6861,1171,963
6862,1043,968
6863,915,969
6864,787,968
6865,710,960
6866,716,960
6867,758,965
6868,813,973
6869,864,983
6870,897,988
6871,914,991
6872,916,991
6873,910,989
6874,901,990
6875,892,986
6876,885,986
6877,885,990
6878,887,990
6879,890,991
6880,892,993
6881,896,995
6882,896,992
6883,896,991
6884,896,989
6885,896,988
6886,894,988
6887,893,988
6888,893,991
6889,893,989
6890,896,989
6891,898,991
6892,900,993
6893,901,994
6894,902,992
6895,901,992
6896,900,992
6897,897,990
6898,898,988
6899,897,989
6900,896,989
6901,897,990
6902,897,991
6903,900,994
6904,897,995
6905,899,995
6906,898,991
6907,902,993
6908,900,990
6909,899,988
6910,898,990
6911,897,988
6912,894,989
6913,896,990
6914,900,991
6915,900,992
6916,902,992
6917,903,992
6918,903,991
6919,904,993
6920,902,989
6921,899,990
6922,899,988
6923,900,987
6924,898,989
6925,899,989
6926,903,992
6927,902,991
6928,903,995
6929,903,992
6930,905,993
6931,905,992
6932,903,991
6933,904,990
6934,902,989
6935,902,987
6936,901,990
6937,903,989
6938,903,990
6939,906,993
6940,905,994
6941,908,994
6942,911,992
6943,911,991
6944,911,990
6945,909,988
6946,908,985
6947,908,986
6948,909,988
6949,908,987
6950,911,988
6951,911,990
6952,913,992
6953,915,991
6954,916,992
6955,915,991
6956,916,989
6957,915,988
6958,917,987
6959,915,986
6960,915,987
6961,918,987
6962,919,990
6963,917,988
6964,920,992
6965,923,992
6966,925,990
6967,924,989
6968,925,989
6969,925,987
6970,924,984
6971,924,985
6972,924,985
6973,924,986
6974,923,987
6975,925,987
6976,927,987
6977,929,987
6978,930,989
6979,928,987
6980,929,984
6981,927,984
6982,926,985
6983,926,983
6984,925,985
6985,925,985
6986,925,986
6987,929,987
6988,930,990
6989,931,991
6990,927,991
6991,926,989
6992,923,990
6993,919,988
6994,918,990
6995,912,987
6996,907,988
6997,906,989
6998,905,990
6999,903,995
7000,901,995
7001,900,998
7002,898,996
7003,896,994
7004,892,993
7005,890,994
7006,887,990
7007,886,992
7008,882,992
7009,882,992
7010,883,996
7011,884,996
7012,882,996
7013,882,998
7014,880,995
7015,882,996
7016,881,995
7017,881,996
7018,879,991
7019,878,992
7020,875,992
7021,878,993
7022,877,993
7023,879,997
7024,882,997
7025,882,1000
7026,884,997
7027,884,999
7028,881,996
7029,883,995
7030,881,992
7031,881,993
7032,879,993
7033,881,995
7034,883,996
7035,882,997
7036,883,999
7037,888,1000
7038,888,997
7039,889,996
7040,888,996
7041,887,993
7042,885,991
7043,884,993
7044,884,994
7045,884,994
7046,886,996
7047,888,995
7048,890,996
7049,893,998
7050,894,999
7051,893,998
7052,895,996
7053,891,994
7054,892,993
7055,889,991
7056,890,993
7057,890,992
7058,889,995
7059,892,994
7060,892,996
7061,894,998
7062,893,995
7063,891,994
7064,891,991
7065,888,996
7066,888,992
7067,884,989
7068,885,992
7069,885,991
7070,889,992
7071,888,993
7072,891,996
7073,890,997
7074,891,997
7075,887,994
7076,888,992
7077,884,994
7078,884,990
7079,883,989
7080,882,992
7081,884,993
7082,883,996
7083,886,995
7084,887,995
7085,889,997
7086,889,996
7087,888,995
7088,887,993
7089,887,993
7090,887,993
7091,885,991
7092,886,994
7093,884,994
7094,886,996
7095,889,998
7096,890,1001
7097,892,1004
7098,889,1002
7099,889,1002
7100,889,1003
7101,889,1003
7102,887,1004
7103,891,1003
7104,894,1005
7105,895,1004
7106,898,1008
7107,901,1008
7108,907,1006
7109,910,1004
7110,912,999
7111,913,995
7112,914,992
7113,916,994
7114,917,993
7115,916,993
7116,914,996
7117,916,997
7118,916,995
7119,916,997
7120,918,997
7121,920,998
7122,922,998
7123,921,998
7124,920,995
7125,920,993
7126,916,992
7127,911,990
7128,906,992
7129,902,989
7130,899,991
7131,895,992
7132,898,995
7133,895,994
7134,894,993
7135,893,991
7136,892,989
7137,893,991
7138,892,989
7139,890,988
7140,893,988
7141,892,991
7142,894,991
7143,892,995
7144,890,995
7145,891,996
7146,891,994
7147,894,993
7148,894,992
7149,894,991
7150,891,990
7151,891,990
7152,892,988
7153,893,991
7154,895,993
7155,893,994
7156,897,995
7157,898,994
7158,901,995
7159,900,994
7160,901,993
7161,899,990
7162,904,991
7163,902,991
7164,903,994
7165,903,998
7166,905,1001
7167,908,1003
7168,911,1002
7169,915,997
7170,920,988
7171,925,978
7172,933,965
7173,947,951
7174,968,933
7175,995,918
7176,1037,909
7177,1092,905
7178,1162,909
7179,1241,919
7180,1309,937
7181,1357,957
7182,1362,975
7183,1313,989
7184,1203,999
7185,1075,1000
7186,947,995
7187,819,993
7188,741,990
7189,747,984
7190,792,986
7191,852,988
7192,905,997
7193,940,1003
7194,955,1006
7195,955,1007
7196,951,1006
7197,939,1004
7198,927,1000
7199,922,998
7200,919,1000
7201,920,1000
7202,922,999
7203,925,1002
7204,930,1005
7205,937,1004
7206,938,1005
7207,937,1002
7208,937,1003
7209,935,1000
7210,932,999
7211,932,997
7212,931,1000
7213,933,1000
7214,935,1002
7215,937,1003
7216,937,1004
7217,941,1004
7218,941,1002
7219,941,1000
7220,940,1002
7221,938,998
7222,939,998
7223,940,997
7224,938,999
7225,938,998
7226,938,1000
7227,940,1001
7228,942,1003
7229,943,1003
7230,948,1002
7231,947,1003
7232,946,1000
7233,944,997
7234,942,998
7235,941,997
7236,941,996
7237,943,997
7238,943,999
7239,944,1001
7240,947,1002
7241,949,1001
7242,951,1001
7243,950,1000
7244,951,1001
7245,951,998
7246,950,995
7247,946,995
7248,946,995
7249,948,997
7250,948,1000
7251,949,1000
7252,952,999
7253,956,1001
7254,957,1000
7255,959,1001
7256,957,997
7257,958,998
7258,956,997
7259,954,994
7260,954,994
7261,958,997
7262,955,998
7263,959,997
7264,961,999
7265,965,1000
7266,964,998
7267,967,998
7268,965,997
7269,968,996
7270,966,995
7271,965,995
7272,966,993
7273,968,993
7274,971,996
7275,973,996
7276,973,998
7277,978,997
7278,979,997
7279,978,995
7280,977,993
7281,978,992
7282,976,992
7283,977,990
7284,977,989
7285,977,990
7286,977,992
7287,981,992
7288,984,996
7289,985,995
7290,988,994
7291,987,993
7292,986,991
7293,985,989
7294,985,988
7295,986,986
7296,985,989
7297,986,990
7298,988,990
7299,987,992
7300,987,994
7301,991,995
7302,990,994
7303,990,992
7304,991,993
7305,990,991
7306,992,990
7307,987,991
7308,986,992
7309,986,994
7310,984,995
7311,979,996
7312,982,1000
7313,978,1001
7314,978,999
7315,974,1000
7316,972,999
7317,968,999
7318,963,999
7319,958,997
7320,954,997
7321,949,999
7322,949,1000
7323,945,1003
7324,948,1005
7325,946,1004
7326,945,1005
7327,944,1005
7328,943,1002
7329,940,1000
7330,940,1002
7331,938,998
7332,937,1000
7333,937,1000
7334,936,1002
7335,938,1002
7336,939,1002
7337,940,1005
7338,940,1007
7339,940,1002
7340,941,1003
7341,938,1001
7342,942,1002
7343,939,999
7344,939,999
7345,940,1000
7346,940,1002
7347,942,1001
7348,945,1004
7349,947,1006
7350,947,1005
7351,948,1004
7352,948,1004
7353,946,998
7354,945,1001
7355,944,998
7356,943,1000
7357,943,999
7358,944,1002
7359,948,1002
7360,949,1002
7361,952,1006
7362,953,1003
7363,956,1001
7364,954,1000
7365,952,1002
7366,950,998
7367,953,998
7368,951,997
7369,949,999
7370,952,1000
7371,951,1001
7372,951,1002
7373,954,1002
7374,954,1001
7375,955,1001
7376,955,999
7377,950,1000
7378,952,994
7379,949,996
7380,949,998
7381,949,998
7382,950,1000
7383,948,1000
7384,951,1001
7385,951,1004
7386,952,1002
7387,953,1002
7388,951,999
7389,949,999
7390,947,996
7391,947,995
7392,946,997
7393,948,998
7394,947,999
7395,944,998
7396,949,1000
7397,950,1000
7398,950,1001
7399,950,1002
7400,948,999
7401,945,996
7402,945,996
7403,945,995
7404,943,997
7405,943,998
7406,944,1000
7407,947,1004
7408,946,1005
7409,948,1008
7410,948,1007
7411,949,1007
7412,950,1008
7413,950,1005
7414,954,1008
7415,955,1006
7416,956,1010
7417,960,1005
7418,960,1007
7419,962,1007
7420,966,1007
7421,969,1003
7422,972,1003
7423,970,998
7424,975,999
7425,978,997
7426,979,997
7427,978,998
7428,975,1000
7429,974,998
7430,973,1001
7431,975,1001
7432,975,1002
7433,977,1002
7434,978,1003
7435,981,1002
7436,980,1001
7437,977,1000
7438,976,996
7439,972,995
7440,970,994
7441,965,992
7442,962,993
7443,959,993
7444,957,996
7445,954,995
7446,953,993
7447,951,993
7448,947,992
7449,946,991
7450,947,991
7451,944,988
7452,943,990
7453,941,989
7454,944,991
7455,943,992
7456,945,995
7457,944,997
7458,946,996
7459,943,994
7460,944,994
7461,941,992
7462,941,990
7463,941,991
7464,941,988
7465,940,991
7466,940,993
7467,942,996
7468,941,996
7469,942,997
7470,944,994
7471,943,994
7472,943,994
7473,944,990
7474,943,989
7475,944,989
7476,943,990
7477,947,991
7478,946,991
7479,950,993
7480,951,998
7481,954,1002
7482,957,1005
7483,957,1002
7484,960,1000
7485,961,993
7486,962,984
7487,966,972
7488,974,958
7489,995,940
7490,1025,924
7491,1064,912
7492,1120,902
7493,1186,903
7494,1261,908
7495,1330,919
7496,1381,936
7497,1397,955
7498,1370,968
7499,1291,977
7500,1171,985
7501,1043,987
7502,915,986
7503,814,984
7504,783,979
7505,803,982
7506,850,983
7507,903,988
7508,946,993
7509,975,999
7510,988,1001
7511,989,1002
7512,984,1002
7513,977,999
7514,970,1001
7515,966,1002
7516,963,1003
7517,966,1003
7518,967,1002
7519,969,1004
7520,970,1003
7521,969,1002
7522,967,1001
7523,967,996
7524,965,997
7525,965,998
7526,964,1000
7527,967,1001
7528,966,1002
7529,969,1003
7530,971,1001
7531,971,1002
7532,971,1002
7533,969,999
7534,968,996
7535,967,997
7536,966,997
7537,967,996
7538,966,999
7539,970,999
7540,971,1002
7541,971,1001
7542,973,1001
7543,971,1001
7544,971,997
7545,971,996
7546,971,997
7547,969,994
7548,970,994
7549,970,995
7550,969,997
7551,968,999
7552,972,1001
7553,971,1000
7554,973,1001
7555,971,1000
7556,972,996
7557,974,996
7558,971,995
7559,972,992
7560,972,993
7561,970,996
7562,970,997
7563,973,997
7564,974,997
7565,976,999
7566,978,999
7567,979,998
7568,978,997
7569,977,996
7570,976,994
7571,975,993
7572,973,992
7573,974,992
7574,978,992
7575,978,995
7576,979,996
7577,978,997
7578,981,997
7579,979,995
7580,978,994
7581,978,995
7582,976,992
7583,978,992
7584,976,992
7585,979,994
7586,981,994
7587,983,994
7588,984,997
7589,986,996
7590,987,996
7591,988,995
7592,988,995
7593,984,993
7594,986,991
7595,984,992
7596,984,991
7597,987,991
7598,987,993
7599,990,994
7600,989,996
7601,992,997
7602,994,996
7603,993,995
7604,995,993
7605,997,992
7606,995,990
7607,995,993
7608,996,991
7609,995,993
7610,998,994
7611,997,993
7612,999,996
7613,1001,994
7614,1003,993
7615,1003,992
7616,1000,991
7617,998,991
7618,997,988
7619,997,987
7620,998,989
7621,999,989
7622,999,990
7623,1000,990
7624,1001,994
7625,1004,993
7626,1004,993
7627,1003,989
7628,1003,991
7629,1002,987
7630,1000,990
7631,997,986
7632,993,990
7633,990,991
7634,987,991
7635,986,991
7636,985,993
7637,981,996
7638,979,995
7639,974,994
7640,972,995
7641,967,992
7642,964,989
7643,960,991
7644,953,991
7645,954,992
7646,951,994
7647,952,995
7648,950,998
7649,949,995
7650,949,996
7651,946,996
7652,946,993
7653,944,992
7654,938,990
7655,939,992
7656,937,992
7657,933,994
7658,936,994
7659,937,996
7660,937,997
7661,937,997
7662,939,998
7663,942,998
7664,939,994
7665,939,997
7666,937,994
7667,936,994
7668,934,990
7669,935,993
7670,936,997
7671,936,995
7672,939,997
7673,941,997
7674,941,997
7675,942,996
7676,942,996
7677,938,993
7678,940,991
7679,940,993
7680,941,991
7681,938,992
7682,942,992
7683,944,996
7684,944,996
7685,946,996
7686,947,997
7687,947,995
7688,946,994
7689,946,993
7690,943,990
7691,945,990
7692,945,992
7693,946,991
7694,946,991
7695,947,992
7696,947,993
7697,949,995
7698,948,996
7699,947,994
7700,950,991
7701,947,989
7702,946,987
7703,945,988
7704,943,986
7705,944,990
7706,940,991
7707,943,990
7708,943,991
7709,941,992
7710,945,991
7711,943,989
7712,942,991
7713,940,989
7714,939,984
7715,935,984
7716,937,983
7717,933,987
7718,935,986
7719,936,989
7720,937,988
7721,938,989
7722,938,989
7723,938,988
7724,936,990
7725,936,987
7726,934,987
7727,933,985
7728,932,986
7729,932,986
7730,932,987
7731,934,985
7732,935,987
7733,934,990
7734,938,991
7735,936,988
7736,934,989
7737,931,988
7738,933,986
7739,934,984
7740,932,984
7741,928,985
7742,928,988
7743,931,990
7744,931,989
7745,932,995
7746,931,995
7747,932,993
7748,935,995
7749,934,994
7750,933,994
7751,934,993
7752,936,996
7753,938,999
7754,939,1001
7755,945,1003
7756,947,1005
7757,946,1001
7758,951,999
7759,953,998
7760,954,992
7761,952,991
7762,954,986
7763,955,984
7764,955,980
7765,957,985
7766,962,987
7767,965,992
7768,965,995
7769,962,994
7770,964,994
7771,961,991
7772,958,989
7773,960,987
7774,960,987
7775,958,988
7776,957,987
7777,955,989
7778,955,990
7779,953,990
7780,952,991
7781,952,991
7782,952,990
7783,948,985
7784,943,986
7785,935,981
7786,932,981
7787,927,979
7788,925,980
7789,921,981
7790,921,981
7791,923,983
7792,922,983
7793,922,984
7794,925,985
7795,926,983
7796,926,982
7797,925,979
7798,925,980
7799,922,981
7800,917,979
7801,917,982
7802,918,982
7803,920,984
7804,922,985
7805,922,986
7806,922,987
7807,921,984
7808,920,984
7809,922,982
7810,921,981
7811,921,980
7812,921,979
7813,920,981
7814,918,982
7815,922,984
7816,922,985
7817,926,984
7818,930,987
7819,928,984
7820,929,987
7821,927,987
7822,927,990
7823,926,992
7824,927,990
7825,931,990
7826,935,981
7827,940,975
7828,948,962
7829,962,947
7830,986,927
7831,1014,906
7832,1054,894
7833,1109,885
7834,1173,885
7835,1242,889
7836,1305,904
7837,1345,925
7838,1356,941
7839,1319,958
7840,1233,969
7841,1119,975
7842,991,979
7843,863,973
7844,786,971
7845,761,965
7846,779,962
7847,821,965
7848,868,973
7849,910,982
7850,939,989
7851,953,995
7852,956,998
7853,955,997
7854,947,1000
7855,942,995
7856,937,994
7857,932,992
7858,932,992
7859,931,989
7860,931,991
7861,931,994
7862,934,991
7863,938,993
7864,939,995
7865,939,996
7866,939,996
7867,937,996
7868,937,994
7869,937,991
7870,937,992
7871,935,992
7872,934,991
7873,934,989
7874,935,994
7875,935,992
7876,938,997
7877,941,996
7878,943,995
7879,940,995
7880,938,995
7881,939,992
7882,939,992
7883,936,990
7884,936,989
7885,937,989
7886,936,990
7887,936,991
7888,936,992
7889,939,995
7890,942,996
7891,941,992
7892,938,992
7893,937,992
7894,937,991
7895,934,989
7896,936,987
7897,935,989
7898,935,990
7899,937,992
7900,939,994
7901,938,997
7902,941,993
7903,941,993
7904,941,992
7905,938,990
7906,937,991
7907,938,988
7908,936,986
7909,937,992
7910,935,989
7911,940,989
7912,939,992
7913,942,993
7914,945,993
7915,944,990
7916,944,993
7917,942,991
7918,940,988
7919,940,989
7920,941,987
7921,937,987
7922,939,987
7923,942,988
7924,945,991
7925,945,991
7926,948,992
7927,948,991
7928,949,992
7929,947,990
7930,945,986
7931,948,988
7932,946,986
7933,948,989
7934,948,990
7935,949,991
7936,952,991
7937,953,993
7938,955,993
7939,954,991
7940,955,993
7941,958,990
7942,954,989
7943,954,987
7944,955,987
7945,953,987
7946,955,987
7947,956,990
7948,955,991
7949,959,992
7950,962,992
7951,962,990
7952,961,990
7953,962,989
7954,961,989
7955,959,985
7956,958,986
7957,957,986
7958,956,987
7959,956,987
7960,959,988
7961,960,989
7962,961,989
7963,964,988
7964,962,985
7965,961,986
7966,961,988
7967,960,985
7968,957,987
7969,955,986
7970,950,988
7971,950,992
7972,949,993
7973,946,993
7974,944,993
7975,941,993
7976,941,993
7977,937,991
7978,932,989
7979,926,987
7980,922,988
7981,920,990
7982,920,992
7983,917,992
7984,917,994
7985,915,994
7986,914,996
7987,912,995
7988,911,994
7989,908,994
7990,906,992
7991,905,990
7992,904,990
7993,900,992
7994,903,992
7995,903,994
7996,904,994
7997,903,998
7998,908,997
7999,906,997
8000,907,994
8001,904,992
8002,901,992
8003,899,992
8004,900,990
8005,901,992
8006,897,995
8007,901,995
8008,904,995
8009,903,996
8010,906,997
8011,904,995
8012,907,996
8013,905,995
8014,904,993
8015,903,992
8016,903,992
8017,902,994
8018,903,994
8019,905,993
8020,906,995
8021,908,996
8022,910,998
8023,912,996
8024,912,997
8025,911,994
8026,908,993
8027,910,991
8028,909,990
8029,907,991
8030,909,993
8031,909,994
8032,911,993
8033,912,995
8034,913,997
8035,912,992
8036,913,992
8037,910,990
8038,910,991
8039,911,988
8040,908,990
8041,906,988
8042,906,991
8043,909,992
8044,905,993
8045,906,994
8046,906,994
8047,908,994
8048,906,992
8049,904,989
8050,901,990
8051,902,986
8052,901,987
8053,901,990
8054,900,990
8055,900,987
8056,900,989
8057,901,992
8058,904,992
8059,903,991
8060,901,991
8061,899,989
8062,897,987
8063,896,985
8064,898,984
8065,897,987
8066,896,988
8067,897,988
8068,898,990
8069,900,992
8070,901,993
8071,901,990
8072,900,991
8073,900,987
8074,898,986
8075,898,984
8076,897,986
8077,894,984
8078,896,985
8079,895,987
8080,898,990
8081,899,990
8082,898,991
8083,899,988
8084,897,991
8085,896,987
8086,897,986
8087,896,986
8088,894,983
8089,892,988
8090,893,988
8091,895,989
8092,895,990
8093,895,992
8094,898,991
8095,897,991
8096,897,992
8097,894,990
8098,895,992
8099,896,991
8100,896,993
8101,895,995
8102,896,996
8103,899,1000
8104,901,1003
8105,906,1006
8106,909,1008
8107,909,1006
8108,912,1004
8109,914,1002
8110,911,998
8111,913,993
8112,915,989
8113,915,990
8114,919,988
8115,924,990
8116,926,992
8117,929,993
8118,928,998
8119,928,996
8120,927,994
8121,923,992
8122,922,989
8123,920,987
8124,919,990
8125,919,990
8126,921,992
8127,921,993
8128,921,994
8129,919,993
8130,922,991
8131,919,989
8132,917,988
8133,910,987
8134,906,984
8135,900,984
8136,894,981
8137,890,983
8138,890,983
8139,889,985
8140,891,983
8141,892,986
8142,894,990
8143,894,986
8144,894,986
8145,890,985
8146,888,981
8147,885,982
8148,885,983
8149,884,983
8150,888,984
8151,888,983
8152,886,988
8153,888,988
8154,889,989
8155,888,987
8156,886,989
8157,889,987
8158,887,984
8159,887,983
8160,885,983
8161,884,984
8162,887,984
8163,886,984
8164,888,987
8165,889,990
8166,890,987
8167,892,986
8168,893,988
8169,895,989
8170,894,990
8171,895,993
8172,897,992
8173,898,996
8174,900,993
8175,902,988
8176,905,981
8177,915,967
8178,930,950
8179,950,928
8180,987,909
8181,1039,894
8182,1102,888
8183,1178,890
8184,1253,900
8185,1307,921
8186,1335,939
8187,1312,958
8188,1237,972
8189,1116,980
8190,988,985
8191,860,979
8192,762,977
8193,726,971
8194,743,966
8195,785,972
8196,834,978
8197,879,986
8198,908,996
8199,923,1000
8200,930,1003
8201,925,1004
8202,919,1003
8203,913,1002
8204,907,1001
8205,905,997
8206,903,997
8207,903,995
8208,903,995
8209,903,997
8210,905,995
8211,904,998
8212,905,999
8213,909,1003
8214,910,1001
8215,907,1002
8216,908,1000
8217,908,999
8218,907,1000
8219,908,996
8220,907,996
8221,906,998
8222,907,996
8223,908,999
8224,909,1000
8225,909,1000
8226,909,1001
8227,909,1000
8228,911,1001
8229,908,998
8230,908,997
8231,908,997
8232,905,995
8233,904,995
8234,904,997
8235,905,996
8236,906,998
8237,908,1002
8238,908,998
8239,911,998
8240,909,997
8241,911,997
8242,909,996
8243,909,995
8244,907,993
8245,908,996
8246,904,994
8247,908,995
8248,910,996
8249,910,999
8250,912,999
8251,914,997
8252,913,997
8253,911,995
8254,911,996
8255,909,995
8256,909,992
8257,910,991
8258,909,996
8259,910,996
8260,912,996
8261,913,998
8262,915,1000
8263,915,997
8264,916,996
8265,915,995
8266,914,996
8267,913,995
8268,915,992
8269,913,993
8270,915,993
8271,918,996
8272,918,998
8273,918,997
8274,922,998
8275,923,997
8276,923,997
8277,922,993
8278,921,993
8279,921,991
8280,919,991
8281,919,993
8282,920,992
8283,921,993
8284,924,995
8285,924,998
8286,927,999
8287,929,997
8288,928,995
8289,926,992
8290,926,992
8291,926,990
8292,926,990
8293,927,990
8294,925,991
8295,926,992
8296,928,994
8297,930,996
8298,933,996
8299,932,991
8300,930,994
8301,930,992
8302,927,990
8303,928,989
8304,925,991
8305,925,989
8306,927,993
8307,928,991
8308,930,994
8309,931,993
8310,933,993
8311,933,995
8312,933,996
8313,931,993
8314,928,994
8315,926,991
8316,923,993
8317,918,994
8318,917,994
8319,917,996
8320,916,1000
8321,913,1000
8322,914,1000
8323,911,1001
8324,905,1001
8325,902,1000
8326,901,1000
8327,896,999
8328,893,997
8329,889,999
8330,887,1000
8331,887,1002
8332,886,1003
8333,888,1004
8334,887,1004
8335,888,1005
8336,883,1004
8337,884,1000
8338,881,1000
8339,881,998
8340,881,998
8341,877,1002
8342,876,1000
8343,879,999
8344,879,1002
8345,878,1004
8346,882,1005
8347,885,1003
8348,885,1004
8349,884,1004
8350,882,1002
8351,884,1002
8352,880,999
8353,882,1000
8354,882,1000
8355,881,1002
8356,884,1002
8357,884,1006
8358,887,1007
8359,889,1004
8360,886,1006
8361,888,1004
8362,885,1004
8363,883,1001
8364,883,998
8365,881,1000
8366,881,1001
8367,885,1003
8368,889,1002
8369,891,1003
8370,891,1004
8371,892,1004
8372,894,1003
8373,893,1004
8374,892,1000
8375,892,1000
8376,887,999
8377,887,998
8378,886,999
8379,889,1001
8380,888,1000
8381,891,1002
8382,892,1005
8383,890,1000
8384,889,1001
8385,888,1000
8386,887,998
8387,884,997
8388,881,995
8389,883,997
8390,882,996
8391,886,998
8392,886,999
8393,886,1001
8394,888,1002
8395,885,1000
8396,885,999
8397,888,998
8398,884,998
8399,882,996
8400,880,995
8401,881,995
8402,879,995
8403,880,997
8404,881,998
8405,881,999
8406,882,1001
8407,881,1000
8408,880,1001
8409,881,998
8410,879,996
8411,877,995
8412,875,992
8413,875,993
8414,876,995
8415,877,996
8416,877,998
8417,878,999
8418,881,1001
8419,878,1000
8420,880,998
8421,878,998
8422,875,994
8423,876,991
8424,872,994
8425,873,996
8426,874,993
8427,874,995
8428,876,997
8429,879,999
8430,879,999
8431,879,999
8432,880,997
8433,878,999
8434,875,999
8435,876,998
8436,875,997
8437,877,997
8438,877,1001
8439,878,1003
8440,881,1007
8441,884,1010
8442,887,1012
8443,889,1011
8444,890,1009
8445,888,1010
8446,888,1007
8447,891,1005
8448,893,1001
8449,895,1000
8450,897,999
8451,902,997
8452,905,996
8453,908,999
8454,912,1001
8455,914,1002
8456,914,1002
8457,911,1001
8458,907,997
8459,905,997
8460,904,996
8461,904,998
8462,904,996
8463,906,998
8464,903,1000
8465,903,1001
8466,899,1001
8467,900,997
8468,895,995
8469,891,994
8470,886,991
8471,879,990
8472,875,991
8473,875,994
8474,877,990
8475,876,992
8476,875,997
8477,874,996
8478,876,997
8479,879,995
8480,877,998
8481,877,997
8482,875,993
8483,872,994
8484,871,993
8485,869,994
8486,869,995
8487,867,995
8488,868,997
8489,870,997
8490,871,998
8491,874,996
8492,871,996
8493,874,997
8494,875,993
8495,875,994
8496,873,992
8497,873,992
8498,872,995
8499,874,996
8500,876,996
8501,878,999
8502,879,1002
8503,883,1003
8504,885,1002
8505,886,1006
8506,884,1003
8507,883,998
8508,885,988
8509,888,978
8510,897,964
8511,915,948
8512,945,933
8513,984,918
8514,1041,912
8515,1110,911
8516,1186,919
8517,1260,931
8518,1311,948
8519,1329,964
8520,1296,980
8521,1208,994
8522,1080,997
8523,952,1002
8524,824,1001
8525,723,997
8526,713,991
8527,747,989
8528,803,989
8529,854,992
8530,890,998
8531,911,1003
8532,917,1004
8533,910,1005
8534,906,1006
8535,897,1005
8536,892,1006
8537,890,1005
8538,891,1008
8539,893,1007
8540,894,1009
8541,898,1005
8542,898,1002
8543,895,1002
8544,895,1002
8545,893,1001
8546,895,1004
8547,894,1006
8548,896,1006
8549,898,1008
8550,897,1009
8551,903,1008
8552,902,1006
8553,899,1005
8554,899,1004
8555,899,1001
8556,899,1001
8557,897,1001
8558,898,1002
8559,898,1004
8560,901,1003
8561,900,1007
8562,902,1006
8563,904,1005
8564,902,1005
8565,902,1005
8566,901,1002
8567,899,1000
8568,898,1002
8569,897,999
8570,897,1001
8571,899,1003
8572,900,1004
8573,903,1004
8574,905,1004
8575,907,1005
8576,908,1004
8577,907,1003
8578,906,1000
8579,905,999
8580,901,1000
8581,902,999
8582,903,1000
8583,902,1003
8584,905,1004
8585,908,1002
8586,909,1004
8587,910,1004
8588,910,1004
8589,910,1002
8590,905,1001
8591,907,998
8592,907,1000
8593,904,997
8594,906,999
8595,910,1000
8596,910,1002
8597,911,1004
8598,914,1003
8599,915,1002
8600,914,1002
8601,914,1000
8602,915,1000
8603,913,996
8604,914,994
8605,914,998
8606,915,998
8607,914,997
8608,917,1001
8609,918,1003
8610,924,1003
8611,926,1001
8612,926,1002
8613,923,1001
8614,923,997
8615,920,996
8616,919,996
8617,917,995
8618,919,996
8619,923,998
8620,926,999
8621,928,1000
8622,929,1002
8623,932,1001
8624,931,998
8625,930,999
8626,931,994
8627,930,994
8628,931,995
8629,929,994
8630,930,996
8631,928,995
8632,933,996
8633,931,1000
8634,935,999
8635,935,1000
8636,932,997
8637,934,996
8638,932,995
8639,933,994
8640,932,994
8641,931,992
8642,932,997
8643,929,997
8644,931,995
8645,934,997
8646,937,1000
8647,936,998
8648,937,998
8649,937,996
8650,936,995
8651,936,997
8652,933,996
8653,932,996
8654,933,996
8655,931,999
8656,930,1002
8657,927,1005
8658,928,1005
8659,924,1005
8660,922,1004
8661,920,1005
8662,915,1006
8663,913,1004
8664,909,1001
8665,906,1002
8666,904,1006
8667,902,1004
8668,902,1008
8669,900,1006
8670,903,1009
8671,901,1007
8672,900,1008
8673,897,1010
8674,896,1006
8675,895,1007
8676,893,1008
8677,892,1003
8678,889,1005
8679,892,1006
8680,892,1009
8681,897,1009
8682,897,1011
8683,898,1012
8684,898,1007
8685,896,1009
8686,895,1008
8687,894,1007
8688,894,1005
8689,894,1006
8690,896,1006
8691,897,1007
8692,896,1008
8693,897,1010
8694,898,1012
8695,899,1012
8696,901,1008
8697,900,1007
8698,901,1007
8699,902,1008
8700,901,1004
8701,901,1004
8702,901,1006
8703,903,1007
8704,905,1009
8705,907,1010
8706,906,1009
8707,908,1010
8708,906,1008
8709,911,1005
8710,910,1006
8711,911,1005
8712,911,1004
8713,908,1002
8714,908,1005
8715,907,1006
8716,908,1009
8717,911,1009
8718,912,1010
8719,914,1009
8720,913,1008
8721,912,1006
8722,911,1004
8723,906,1002
8724,904,1004
8725,904,998
8726,906,1003
8727,906,1003
8728,911,1006
8729,912,1008
8730,911,1008
8731,911,1006
8732,910,1006
8733,910,1005
8734,908,1003
8735,906,1003
8736,904,1004
8737,903,1003
8738,903,1001
8739,903,1005
8740,906,1006
8741,908,1007
8742,908,1008
8743,910,1008
8744,912,1008
8745,911,1006
8746,910,1005
8747,909,1003
8748,908,1005
8749,907,1008
8750,908,1008
8751,910,1010
8752,912,1012
8753,916,1015
8754,918,1019
8755,921,1020
8756,923,1017
8757,925,1017
8758,925,1013
8759,926,1010
8760,926,1009
8761,928,1005
8762,931,1004
8763,934,1003
8764,938,1005
8765,942,1002
8766,944,1009
8767,946,1010
8768,945,1010
8769,943,1010
8770,941,1005
8771,938,1006
8772,941,1004
8773,940,1002
8774,938,1006
8775,941,1005
8776,940,1007
8777,941,1006
8778,943,1009
8779,942,1006
8780,938,1003
8781,937,1003
8782,932,1001
8783,927,999
8784,922,998
8785,917,997
8786,911,998
8787,912,1000
8788,915,1000
8789,915,1002
8790,915,1007
8791,916,1004
8792,918,1002
8793,917,1000
8794,914,997
8795,913,997
8796,913,998
8797,910,996
8798,911,997
8799,911,998
8800,910,999
8801,913,1002
8802,915,1002
8803,914,1003
8804,916,1000
8805,918,1001
8806,915,1000
8807,912,998
8808,914,997
8809,913,998
8810,912,999
8811,915,998
8812,919,1001
8813,919,1002
8814,921,1004
8815,927,1005
8816,926,1006
8817,927,1011
8818,930,1008
8819,933,1003
8820,930,998
8821,934,990
8822,938,976
8823,956,963
8824,979,944
8825,1014,927
8826,1063,917
8827,1125,910
8828,1197,914
8829,1268,920
8830,1331,933
8831,1368,948
8832,1369,963
8833,1327,976
8834,1240,988
8835,1115,995
8836,987,1000
8837,859,996
8838,783,994
8839,766,989
8840,791,990
8841,841,988
8842,892,994
8843,935,998
8844,957,1004
8845,966,1008
8846,966,1011
8847,960,1008
8848,954,1012
8849,948,1012
8850,945,1014
8851,944,1015
8852,946,1012
8853,949,1012
8854,950,1009
8855,951,1008
8856,950,1006
8857,948,1006
8858,948,1006
8859,949,1009
8860,950,1011
8861,951,1010
8862,952,1014
8863,956,1013
8864,956,1011
8865,955,1011
8866,956,1008
8867,955,1007
8868,951,1005
8869,950,1005
8870,950,1008
8871,952,1008
8872,953,1010
8873,955,1010
8874,957,1009
8875,958,1009
8876,958,1009
8877,956,1009
8878,959,1007
8879,959,1006
8880,956,1004
8881,955,1004
8882,956,1005
8883,957,1004
8884,960,1006
8885,962,1009
8886,963,1011
8887,963,1007
8888,964,1008
8889,963,1004
8890,961,1003
8891,960,1003
8892,960,1001
8893,961,1002
8894,961,1003
8895,961,1005
8896,963,1005
8897,964,1005
8898,963,1008
8899,967,1009
8900,967,1006
8901,970,1006
8902,968,1003
8903,969,1005
8904,967,1004
8905,967,1001
8906,968,1003
8907,965,1004
8908,970,1004
8909,971,1007
8910,971,1008
8911,974,1007
8912,977,1006
8913,977,1006
8914,976,1003
8915,974,1001
8916,975,1002
8917,974,1002
8918,971,1001
8919,974,1004
8920,976,1005
8921,975,1007
8922,979,1009
8923,983,1009
8924,981,1006
8925,981,1006
8926,981,1003
8927,982,1002
8928,982,1001
8929,981,1002
8930,980,1001
8931,982,1003
8932,985,1005
8933,986,1005
8934,990,1008
8935,991,1005
8936,991,1004
8937,991,1004
8938,990,1002
8939,992,1001
8940,990,999
8941,990,999
8942,994,998
8943,995,1001
8944,997,1002
8945,999,1001
8946,1000,1005
8947,1003,1004
8948,1002,1004
8949,1001,1002
8950,1001,1000
8951,1000,999
8952,1000,996
8953,999,999
8954,999,1000
8955,1002,1000
8956,1001,1002
8957,1002,1003
8958,1003,1001
8959,1002,1003
8960,1003,1002
8961,1003,1000
8962,999,999
8963,997,997
8964,997,997
8965,992,996
8966,989,997
8967,989,999
8968,988,1001
8969,987,1003
8970,986,1005
8971,983,1005
8972,981,1005
8973,978,1003
8974,974,1002
8975,970,1003
8976,966,1003
8977,962,1002
8978,960,1002
8979,957,1002
8980,957,1006
8981,956,1007
8982,955,1008
8983,955,1006
8984,952,1005
8985,950,1005
8986,948,1004
8987,945,1002
8988,943,1002
8989,940,1001
8990,937,1005
8991,941,1004
8992,943,1005
8993,942,1006
8994,943,1009
8995,946,1009
8996,944,1007
8997,946,1005
8998,945,1007
8999,941,1004
9000,942,1005
9001,941,1005
9002,941,1006
9003,941,1005
9004,941,1008
9005,944,1008
9006,944,1010
9007,950,1009
9008,949,1008
9009,951,1006
9010,948,1006
9011,950,1006
9012,950,1005
9013,947,1002
9014,944,1004
9015,949,1005
9016,950,1006
9017,952,1006
9018,955,1008
9019,957,1006
9020,956,1007
9021,958,1006
9022,959,1003
9023,956,1003
9024,957,1002
9025,955,1003
9026,955,1002
9027,957,1000
9028,957,1004
9029,960,1004
9030,960,1008
9031,961,1006
9032,961,1006
9033,959,1004
9034,961,1001
9035,959,1003
9036,956,1000
9037,952,998
9038,952,999
9039,952,1002
9040,952,1001
9041,955,1005
9042,956,1006
9043,954,1005
9044,955,1002
9045,955,1003
9046,955,999
9047,954,997
9048,951,997
9049,949,999
9050,948,998
9051,949,1000
9052,951,1002
9053,949,1001
9054,950,1003
9055,952,1004
9056,950,1004
9057,950,1002
9058,950,998
9059,947,999
9060,948,996
9061,945,998
9062,944,999
9063,947,999
9064,948,1000
9065,947,1001
9066,948,1004
9067,950,1003
9068,950,1003
9069,951,1002
9070,949,1001
9071,948,998
9072,947,997
9073,947,997
9074,942,998
9075,944,1000
9076,946,1001
9077,949,1002
9078,949,1005
9079,951,1006
9080,951,1008
9081,953,1006
9082,950,1005
9083,949,1006
9084,949,1008
9085,951,1008
9086,953,1010
9087,956,1011
9088,961,1014
9089,964,1010
9090,967,1009
9091,969,1006
9092,969,1004
9093,971,1000
9094,974,999
9095,977,999
9096,979,997
9097,979,999
9098,977,1002
9099,978,1001
9100,978,1004
9101,976,1004
9102,978,1004
9103,978,1005
9104,979,1002
9105,979,1005
9106,977,1001
9107,972,1001
9108,971,997
9109,969,994
9110,964,996
9111,961,994
9112,958,996
9113,955,997
9114,953,996
9115,952,997
9116,950,995
9117,950,995
9118,948,993
9119,946,993
9120,943,994
9121,945,994
9122,943,993
9123,943,993
9124,944,995
9125,944,994
9126,946,999
9127,944,1001
9128,946,998
9129,942,996
9130,941,994
9131,941,994
9132,940,995
9133,939,994
9134,938,994
9135,939,995
9136,940,998
9137,944,997
9138,943,998
9139,944,1000
9140,947,998
9141,946,996
9142,945,996
9143,946,994
9144,946,994
9145,946,993
9146,947,995
9147,949,998
9148,952,999
9149,954,1004
9150,954,1006
9151,958,1010
9152,956,1008
9153,958,1006
9154,961,999
9155,963,989
9156,966,977
9157,978,960
9158,999,942
9159,1030,926
9160,1078,911
9161,1144,905
9162,1216,905
9163,1294,918
9164,1354,931
9165,1382,950
9166,1360,967
9167,1288,981
9168,1169,985
9169,1041,988
9170,913,989
9171,813,984
9172,782,983
9173,795,984
9174,840,987
9175,894,995
9176,939,1004
9177,968,1009
9178,983,1011
9179,987,1013
9180,982,1008
9181,972,1004
9182,965,1008
9183,958,1010
9184,958,1007
9185,958,1009
9186,963,1012
9187,966,1013
9188,966,1012
9189,968,1011
9190,967,1010
9191,967,1008
9192,965,1006
9193,963,1007
9194,962,1008
9195,962,1009
