'sample #','MLII','V1'
0,857,921
1,857,921
2,857,921
3,857,921
4,857,921
5,857,921
6,857,921
7,861,921
8,861,927
9,858,924
10,856,921
11,854,914
12,849,906
13,847,897
14,840,894
15,830,891
16,822,896
17,816,899
18,811,901
19,805,901
20,807,901
21,811,894
22,810,889
23,812,888
24,814,886
25,812,883
26,812,887
27,811,887
28,811,889
29,811,896
30,808,896
31,808,895
32,801,898
33,801,898
34,805,896
35,810,896
36,813,891
37,813,889
38,809,886
39,804,888
40,804,886
41,801,888
42,802,887
43,802,885
44,803,884
45,803,883
46,802,885
47,804,888
48,803,887
49,806,894
50,806,893
51,808,892
52,811,884
53,808,880
54,814,871
55,817,855
56,825,838
57,844,817
58,873,789
59,910,758
60,945,727
61,969,702
62,977,690
63,976,702
64,978,724
65,984,759
66,998,789
67,1021,816
68,1046,842
69,1069,873
70,1073,922
71,1055,985
72,996,1046
73,909,1092
74,808,1105
75,724,1084
76,666,1038
77,640,982
78,628,935
79,622,902
80,614,885
81,600,876
82,590,869
83,590,864
84,596,853
85,609,839
86,612,827
87,615,823
88,619,822
89,627,830
90,634,834
91,644,831
92,664,834
93,687,832
94,710,838
95,735,840
96,757,849
97,778,856
98,789,872
99,796,884
100,794,895
101,790,904
102,790,911
103,796,911
104,805,907
105,812,903
106,804,900
107,788,902
108,778,905
109,782,907
110,805,904
111,827,897
112,832,890
113,825,882
114,817,883
115,810,880
116,808,883
117,816,880
118,821,873
119,825,869
120,822,867
121,815,864
122,807,867
123,801,870
124,803,869
125,803,867
126,799,858
127,796,847
128,789,837
129,787,830
130,789,825
131,787,826
132,783,826
133,784,829
134,783,831
135,784,832
136,791,832
137,798,830
138,797,827
139,794,824
140,782,814
141,779,816
142,783,812
143,781,813
144,778,815
145,771,811
146,772,813
147,782,814
148,794,813
149,794,808
150,789,799
151,783,795
152,774,791
153,760,792
154,745,794
155,730,796
156,725,794
157,727,792
158,738,800
159,749,805
160,757,809
161,769,818
162,782,827
163,793,829
164,792,831
165,781,832
166,770,829
167,764,829
168,766,828
169,772,828
170,781,829
171,790,831
172,797,833
173,806,837
174,811,838
175,816,839
176,817,838
177,819,839
178,813,844
179,810,847
180,810,852
181,816,855
182,826,859
183,832,862
184,840,860
185,847,858
186,849,858
187,846,858
188,846,858
189,841,860
190,831,866
191,823,871
192,817,879
193,816,880
194,829,884
195,843,886
196,847,886
197,854,884
198,853,884
199,843,883
200,840,883
201,833,885
202,828,888
203,833,890
204,836,890
205,837,892
206,834,893
207,832,897
208,840,897
209,841,899
210,844,891
211,838,889
212,835,889
213,835,892
214,839,891
215,841,894
216,830,891
217,817,885
218,812,887
219,814,888
220,823,885
221,836,884
222,839,887
223,840,888
224,839,890
225,838,890
226,839,892
227,838,890
228,837,889
229,839,887
230,836,889
231,827,896
232,816,901
233,809,901
234,816,902
235,829,895
236,837,888
237,843,875
238,844,874
239,832,871
240,820,875
241,810,882
242,812,888
243,820,889
244,833,892
245,846,886
246,854,882
247,850,878
248,841,878
249,829,878
250,816,883
251,815,887
252,819,888
253,829,890
254,837,883
255,843,880
256,839,880
257,836,878
258,834,883
259,833,883
260,828,886
261,829,885
262,829,880
263,827,876
264,826,876
265,831,873
266,834,872
267,838,878
268,846,880
269,851,883
270,848,878
271,849,874
272,839,875
273,832,877
274,830,879
275,828,878
276,836,877
277,844,875
278,842,875
279,840,874
280,835,875
281,841,877
282,852,877
283,860,877
284,857,877
285,850,873
286,849,872
287,853,874
288,860,874
289,872,867
290,878,859
291,884,851
292,886,851
293,884,851
294,875,864
295,868,876
296,858,885
297,858,886
298,857,887
299,860,881
300,861,870
301,856,862
302,854,860
303,849,872
304,864,885
305,879,899
306,889,906
307,894,906
308,890,903
309,876,903
310,861,898
311,844,895
312,838,888
313,842,882
314,848,875
315,856,869
316,853,863
317,850,861
318,844,869
319,834,871
320,822,874
321,814,874
322,809,871
323,807,867
324,805,864
325,810,865
326,815,869
327,824,871
328,834,875
329,838,874
330,838,871
331,833,871
332,828,871
333,822,873
334,820,875
335,825,877
336,822,879
337,824,880
338,823,882
339,822,884
340,827,883
341,831,887
342,833,886
343,842,881
344,848,875
345,851,869
346,845,871
347,830,871
348,814,882
349,812,887
350,825,887
351,842,878
352,854,864
353,854,852
354,843,844
355,834,833
356,822,824
357,825,810
358,842,790
359,867,757
360,895,724
361,926,689
362,942,663
363,950,661
364,950,674
365,950,708
366,959,750
367,987,799
368,1031,840
369,1080,890
370,1109,942
371,1106,1001
372,1066,1065
373,990,1112
374,897,1141
375,813,1142
376,757,1108
377,721,1060
378,700,1015
379,684,978
380,660,951
381,634,945
382,618,932
383,602,920
384,595,911
385,594,898
386,597,889
387,604,888
388,605,889
389,605,894
390,608,899
391,612,895
392,622,885
393,637,877
394,649,870
395,655,863
396,663,860
397,683,864
398,707,875
399,735,892
400,763,900
401,783,904
402,795,903
403,801,900
404,803,899
405,801,903
406,796,900
407,790,903
408,792,904
409,803,910
410,818,914
411,830,914
412,830,913
413,825,911
414,816,915
415,808,912
416,804,909
417,806,903
418,810,899
419,814,892
420,819,889
421,823,889
422,826,888
423,822,891
424,820,893
425,812,893
426,811,893
427,810,893
428,811,888
429,815,883
430,814,877
431,809,871
432,803,869
433,798,869
434,794,869
435,790,872
436,787,868
437,783,864
438,787,866
439,790,860
440,793,855
441,793,850
442,792,844
443,792,844
444,790,844
445,786,847
446,775,847
447,765,845
448,762,847
449,766,843
450,776,842
451,787,837
452,792,828
453,791,822
454,776,821
455,760,825
456,749,828
457,753,832
458,771,829
459,784,826
460,791,816
461,789,812
462,780,814
463,771,823
464,768,826
465,766,826
466,772,824
467,783,816
468,781,812
469,783,811
470,783,820
471,787,834
472,787,843
473,791,850
474,799,852
475,809,848
476,822,839
477,830,837
478,828,835
479,824,836
480,816,843
481,815,849
482,822,855
483,829,860
484,830,862
485,835,870
486,834,875
487,835,881
488,842,883
489,846,887
490,847,885
491,840,880
492,837,877
493,844,877
494,852,878
495,858,880
496,858,886
497,853,887
498,844,895
499,837,895
500,836,896
501,835,894
502,837,894
503,841,894
504,850,893
505,858,894
506,861,890
507,859,891
508,854,893
509,851,894
510,850,896
511,850,897
512,853,900
513,856,901
514,853,903
515,843,904
516,832,905
517,829,907
518,834,901
519,844,902
520,851,898
521,849,899
522,840,892
523,838,893
524,834,892
525,837,894
526,834,888
527,826,886
528,824,888
529,827,886
530,833,887
531,840,888
532,844,890
533,849,891
534,851,895
535,848,894
536,845,895
537,845,891
538,844,889
539,838,891
540,834,890
541,828,893
542,835,897
543,845,900
544,850,905
545,850,905
546,841,898
547,835,897
548,833,892
549,836,893
550,843,892
551,843,895
552,837,896
553,832,895
554,833,892
555,836,891
556,847,889
557,849,890
558,856,896
559,855,900
560,854,903
561,848,909
562,840,912
563,839,916
564,845,911
565,853,906
566,857,901
567,853,902
568,852,902
569,852,902
570,853,906
571,851,905
572,844,905
573,843,906
574,844,905
575,850,898
576,854,890
577,858,879
578,854,878
579,845,878
580,840,887
581,835,895
582,838,901
583,842,903
584,849,903
585,851,899
586,850,900
587,853,902
588,853,899
589,852,897
590,853,899
591,857,904
592,860,906
593,866,906
594,869,904
595,873,898
596,873,891
597,877,884
598,880,885
599,880,882
600,882,887
601,882,897
602,884,907
603,883,917
604,880,919
605,874,917
606,870,919
607,863,910
608,861,909
609,867,902
610,881,906
611,890,907
612,898,911
613,893,915
614,887,927
615,880,935
616,881,942
617,884,947
618,875,944
619,860,937
620,845,930
621,839,926
622,842,922
623,847,915
624,851,911
625,857,906
626,855,903
627,848,902
628,845,901
629,843,902
630,839,903
631,837,905
632,831,908
633,829,909
634,828,906
635,827,903
636,826,896
637,831,891
638,837,895
639,843,893
640,845,897
641,839,900
642,832,900
643,826,900
644,818,902
645,819,900
646,824,896
647,829,893
648,829,891
649,825,889
650,824,893
651,829,900
652,837,905
653,836,909
654,839,907
655,833,901
656,826,899
657,822,897
658,821,894
659,823,889
660,819,880
661,817,864
662,821,844
663,841,819
664,871,787
665,902,750
666,933,714
667,954,683
668,959,670
669,953,680
670,944,710
671,950,750
672,978,793
673,1023,830
674,1073,873
675,1108,923
676,1111,984
677,1076,1042
678,1004,1089
679,917,1111
680,829,1108
681,757,1081
682,703,1034
683,670,991
684,651,958
685,644,942
686,638,926
687,635,919
688,627,906
689,615,893
690,607,879
691,600,871
692,602,864
693,607,865
694,606,869
695,607,872
696,611,870
697,620,871
698,630,867
699,643,868
700,658,871
701,673,871
702,692,880
703,718,890
704,744,898
705,767,905
706,787,909
707,800,912
708,802,907
709,801,907
710,798,905
711,794,917
712,799,923
713,803,931
714,812,938
715,821,940
716,822,935
717,826,927
718,830,918
719,828,919
720,816,916
721,799,916
722,788,918
723,784,924
724,795,927
725,807,926
726,819,923
727,825,918
728,833,908
729,833,904
730,829,896
731,823,894
732,808,893
733,794,895
734,787,895
735,789,891
736,792,890
737,795,887
738,793,880
739,793,876
740,792,873
741,792,869
742,783,865
743,776,862
744,767,861
745,763,859
746,763,859
747,765,863
748,770,861
749,776,861
750,780,856
751,784,852
752,785,847
753,779,849
754,771,847
755,767,850
756,760,852
757,756,848
758,752,845
759,752,842
760,753,839
761,763,836
762,776,836
763,782,831
764,782,836
765,784,830
766,778,829
767,771,828
768,766,827
769,761,826
770,757,827
771,760,831
772,762,835
773,769,842
774,775,848
775,784,849
776,790,850
777,791,852
778,799,851
779,799,851
780,805,850
781,811,854
782,813,861
783,817,870
784,820,871
785,821,878
786,811,885
787,798,884
788,792,888
789,810,887
790,829,888
791,847,880
792,856,878
793,855,875
794,851,880
795,840,889
796,835,900
797,834,906
798,837,911
799,837,910
800,833,905
801,830,904
802,831,903
803,834,899
804,838,901
805,837,902
806,836,907
807,831,911
808,835,916
809,831,917
810,830,918
811,829,920
812,832,922
813,826,922
814,818,925
815,808,925
816,818,927
817,834,923
818,851,922
819,861,914
820,861,909
821,857,908
822,844,914
823,832,919
824,821,922
825,816,927
826,813,925
827,820,917
828,823,915
829,825,911
830,823,913
831,820,921
832,815,924
833,817,923
834,822,923
835,834,919
836,839,916
837,841,913
838,839,916
839,834,919
840,830,921
841,821,927
842,819,927
843,825,926
844,834,921
845,843,922
846,845,921
847,839,920
848,836,917
849,833,919
850,830,921
851,829,922
852,826,921
853,823,921
854,819,924
855,815,925
856,819,926
857,826,923
858,832,923
859,835,922
860,841,921
861,841,920
862,843,925
863,842,931
864,841,930
865,836,930
866,837,933
867,837,935
868,830,935
869,827,929
870,827,929
871,834,924
872,844,923
873,857,921
874,868,923
875,869,920
876,865,923
877,854,922
878,842,927
879,833,934
880,831,932
881,835,937
882,837,936
883,842,935
884,841,931
885,839,930
886,834,930
887,833,933
888,835,934
889,837,933
890,844,933
891,844,933
892,853,933
893,857,933
894,854,933
895,850,930
896,851,933
897,854,930
898,864,925
899,865,919
900,866,918
901,871,917
902,875,914
903,875,917
904,875,924
905,872,927
906,872,929
907,878,936
908,881,935
909,881,940
910,876,941
911,872,942
912,863,939
913,856,936
914,849,934
915,853,936
916,860,936
917,874,940
918,884,945
919,892,949
920,899,954
921,896,958
922,885,959
923,869,963
924,842,965
925,832,959
926,832,956
927,838,944
928,845,936
929,853,933
930,852,933
931,850,934
932,845,939
933,846,942
934,841,941
935,831,944
936,818,940
937,807,939
938,810,936
939,814,937
940,818,936
941,823,933
942,828,937
943,831,938
944,833,939
945,834,940
946,836,934
947,840,934
948,850,929
949,855,928
950,852,930
951,850,935
952,845,937
953,844,940
954,843,938
955,844,935
956,836,924
957,837,919
958,839,914
959,837,911
960,837,911
961,829,916
962,821,918
963,818,920
964,814,911
965,814,904
966,821,887
967,836,868
968,856,847
969,879,824
970,905,800
971,932,781
972,960,760
973,980,752
974,987,756
975,986,774
976,981,798
977,986,826
978,996,857
979,1026,883
980,1059,919
981,1082,968
982,1083,1032
983,1051,1098
984,989,1149
985,903,1172
986,817,1166
987,741,1128
988,690,1075
989,655,1018
990,636,977
991,627,949
992,621,937
993,620,928
994,622,920
995,620,913
996,614,906
997,606,898
998,601,896
999,597,897
1000,595,901
1001,594,907
1002,598,908
1003,605,908
1004,626,904
1005,649,894
1006,672,892
1007,700,891
1008,731,895
1009,753,908
1010,777,925
1011,789,938
1012,797,951
1013,796,958
1014,799,957
1015,801,954
1016,806,945
1017,813,937
1018,816,935
1019,819,940
1020,810,950
1021,799,964
1022,792,971
1023,800,972
1024,810,967
1025,818,956
1026,818,945
1027,819,937
1028,814,934
1029,809,932
1030,805,932
1031,802,930
1032,799,932
1033,801,928
1034,800,930
1035,801,927
1036,799,931
1037,796,924
1038,796,919
1039,796,913
1040,794,905
1041,791,903
1042,787,895
1043,786,897
1044,782,897
1045,782,898
1046,779,903
1047,780,902
1048,778,898
1049,775,895
1050,774,890
1051,771,883
1052,767,873
1053,765,871
1054,764,868
1055,760,868
1056,760,867
1057,761,866
1058,765,871
1059,765,870
1060,761,869
1061,755,864
1062,751,865
1063,746,863
1064,751,859
1065,758,858
1066,762,855
1067,763,852
1068,764,849
1069,762,849
1070,761,852
1071,762,856
1072,761,858
1073,764,861
1074,768,864
1075,774,864
1076,778,869
1077,781,871
1078,785,872
1079,783,873
1080,784,873
1081,786,875
1082,790,877
1083,795,880
1084,802,887
1085,806,888
1086,809,892
1087,815,896
1088,821,900
1089,824,904
1090,824,908
1091,820,916
1092,815,922
1093,815,927
1094,822,925
1095,826,929
1096,831,932
1097,834,935
1098,835,934
1099,835,933
1100,836,932
1101,835,930
1102,835,928
1103,830,929
1104,832,931
1105,834,940
1106,833,948
1107,835,950
1108,834,953
1109,829,956
1110,830,950
1111,832,950
1112,830,947
1113,829,944
1114,831,942
1115,828,940
1116,831,940
1117,829,939
1118,830,939
1119,831,937
1120,830,937
1121,826,940
1122,824,936
1123,821,936
1124,823,930
1125,821,928
1126,820,931
1127,819,933
1128,821,940
1129,823,941
1130,824,947
1131,825,947
1132,826,944
1133,827,947
1134,829,944
1135,829,946
1136,824,939
1137,821,937
1138,826,933
1139,828,934
1140,832,931
1141,830,936
1142,823,938
1143,820,936
1144,818,937
1145,814,934
1146,816,931
1147,819,930
1148,815,929
1149,815,930
1150,815,930
1151,814,930
1152,817,931
1153,813,929
1154,815,934
1155,816,933
1156,817,937
1157,821,939
1158,819,936
1159,822,938
1160,820,939
1161,822,936
1162,820,932
1163,825,929
1164,825,930
1165,826,930
1166,827,937
1167,824,933
1168,818,938
1169,817,939
1170,815,937
1171,811,930
1172,808,928
1173,806,927
1174,805,923
1175,808,921
1176,813,920
1177,815,924
1178,816,929
1179,814,931
1180,816,933
1181,814,930
1182,813,928
1183,817,925
1184,819,924
1185,820,924
1186,825,921
1187,827,926
1188,832,930
1189,834,938
1190,834,944
1191,832,943
1192,834,942
1193,831,942
1194,827,939
1195,828,935
1196,831,931
1197,835,924
1198,832,923
1199,833,921
1200,834,919
1201,832,920
1202,834,921
1203,837,921
1204,842,924
1205,852,922
1206,859,924
1207,864,924
1208,865,928
1209,867,937
1210,862,945
1211,857,951
1212,853,950
1213,847,953
1214,845,943
1215,843,940
1216,844,932
1217,849,932
1218,856,934
1219,863,944
1220,863,955
1221,866,957
1222,863,966
1223,862,970
1224,856,972
1225,853,970
1226,850,965
1227,845,960
1228,841,953
1229,837,952
1230,834,947
1231,832,947
1232,830,943
1233,831,943
1234,829,941
1235,831,940
1236,830,934
1237,829,938
1238,827,935
1239,825,936
1240,822,936
1241,824,938
1242,825,933
1243,823,934
1244,819,935
1245,815,932
1246,813,939
1247,811,934
1248,811,929
1249,809,929
1250,809,926
1251,812,929
1252,812,931
1253,812,933
1254,814,923
1255,815,925
1256,812,918
1257,811,916
1258,803,917
1259,799,915
1260,791,913
1261,789,914
1262,791,913
1263,798,911
1264,805,911
1265,806,914
1266,809,917
1267,808,915
1268,813,906
1269,812,895
1270,824,876
1271,842,856
1272,863,830
1273,892,804
1274,921,783
1275,952,761
1276,976,749
1277,987,741
1278,986,753
1279,983,774
1280,984,802
1281,992,830
1282,1011,866
1283,1038,897
1284,1065,933
1285,1080,980
1286,1079,1041
1287,1052,1098
1288,1000,1147
1289,925,1170
1290,843,1162
1291,768,1127
1292,709,1072
1293,671,1016
1294,651,970
1295,643,945
1296,636,932
1297,630,926
1298,624,916
1299,618,908
1300,615,898
1301,614,892
1302,612,890
1303,607,891
1304,607,889
1305,605,896
1306,609,899
1307,615,898
1308,619,895
1309,629,889
1310,645,890
1311,667,889
1312,694,892
1313,723,899
1314,753,907
1315,775,923
1316,794,932
1317,807,941
1318,811,947
1319,806,950
1320,808,945
1321,805,947
1322,806,947
1323,813,946
1324,819,951
1325,823,955
1326,826,954
1327,828,954
1328,828,950
1329,825,948
1330,822,946
1331,818,944
1332,818,944
1333,816,944
1334,816,947
1335,818,945
1336,819,946
1337,821,944
1338,818,941
1339,816,937
1340,811,931
1341,809,926
1342,804,925
1343,803,922
1344,805,917
1345,804,918
1346,801,914
1347,801,912
1348,799,911
1349,798,906
1350,802,906
1351,798,903
1352,793,898
1353,790,891
1354,783,889
1355,781,887
1356,778,881
1357,776,878
1358,776,876
1359,777,876
1360,775,876
1361,777,875
1362,774,877
1363,772,874
1364,774,869
1365,770,863
1366,770,861
1367,766,859
1368,763,853
1369,762,855
1370,759,855
1371,760,854
1372,762,854
1373,764,855
1374,767,853
1375,770,851
1376,769,852
1377,770,848
1378,771,851
1379,770,850
1380,774,851
1381,769,852
1382,777,853
1383,781,854
1384,787,859
1385,792,862
1386,793,866
1387,797,869
1388,798,870
1389,798,871
1390,800,874
1391,805,875
1392,808,876
1393,810,882
1394,813,890
1395,818,894
1396,821,899
1397,826,904
1398,826,906
1399,829,901
1400,834,900
1401,835,899
1402,835,903
1403,836,901
1404,837,907
1405,838,912
1406,839,916
1407,844,920
1408,844,920
1409,849,922
1410,850,927
1411,849,926
1412,850,925
1413,851,924
1414,848,925
1415,847,923
1416,845,924
1417,846,925
1418,846,925
1419,846,929
1420,848,930
1421,848,935
1422,853,934
1423,851,933
1424,853,935
1425,848,930
1426,847,930
1427,848,925
1428,847,925
1429,846,924
1430,847,928
1431,844,931
1432,848,933
1433,850,936
1434,850,935
1435,847,935
1436,849,935
1437,847,934
1438,844,933
1439,843,930
1440,846,926
1441,844,928
1442,843,928
1443,845,934
1444,846,936
1445,846,937
1446,850,940
1447,850,938
1448,846,937
1449,847,931
1450,840,928
1451,842,927
1452,841,929
1453,843,927
1454,840,928
1455,848,929
1456,847,931
1457,852,932
1458,851,933
1459,848,933
1460,850,928
1461,849,925
1462,847,925
1463,846,922
1464,845,922
1465,845,924
1466,846,924
1467,848,929
1468,851,929
1469,853,933
1470,853,929
1471,850,927
1472,847,928
1473,847,924
1474,848,924
1475,848,919
1476,846,921
1477,846,922
1478,849,924
1479,850,924
1480,849,927
1481,854,929
1482,854,927
1483,853,928
1484,854,924
1485,852,924
1486,852,923
1487,850,921
1488,851,923
1489,846,917
1490,849,921
1491,853,920
1492,857,928
1493,857,927
1494,859,930
1495,856,931
1496,856,933
1497,861,934
1498,859,930
1499,859,926
1500,860,930
1501,860,925
1502,865,927
1503,865,928
1504,871,923
1505,874,926
1506,878,921
1507,880,917
1508,878,919
1509,878,915
1510,880,914
1511,883,914
1512,888,916
1513,890,916
1514,893,925
1515,892,930
1516,892,935
1517,894,938
1518,895,937
1519,886,932
1520,884,931
1521,879,925
1522,877,923
1523,879,924
1524,882,925
1525,890,933
1526,895,939
1527,901,950
1528,902,958
1529,903,963
1530,899,964
1531,888,957
1532,882,951
1533,877,942
1534,872,928
1535,868,925
1536,867,926
1537,863,929
1538,860,934
1539,861,935
1540,858,935
1541,859,936
1542,861,933
1543,859,928
1544,853,923
1545,853,920
1546,852,921
1547,852,921
1548,851,924
1549,850,930
1550,849,927
1551,854,930
1552,856,927
1553,855,928
1554,856,927
1555,854,926
1556,855,924
1557,855,922
1558,855,919
1559,854,917
1560,855,919
1561,855,917
1562,856,918
1563,859,920
1564,856,921
1565,859,920
1566,859,920
1567,859,917
1568,857,913
1569,852,908
1570,849,903
1571,845,894
1572,843,879
1573,845,870
1574,856,850
1575,875,830
1576,902,803
1577,933,777
1578,960,748
1579,983,728
1580,987,716
1581,987,720
1582,981,739
1583,972,764
1584,978,795
1585,988,828
1586,1015,864
1587,1050,907
1588,1078,955
1589,1093,1021
1590,1079,1081
1591,1031,1131
1592,957,1154
1593,878,1147
1594,806,1111
1595,755,1062
1596,722,1011
1597,701,975
1598,687,948
1599,680,934
1600,670,929
1601,663,921
1602,658,914
1603,654,903
1604,653,895
1605,651,890
1606,649,889
1607,650,887
1608,650,888
1609,647,888
1610,654,890
1611,663,893
1612,674,888
1613,693,885
1614,724,885
1615,753,892
1616,784,897
1617,811,907
1618,830,916
1619,841,920
1620,848,929
1621,847,929
1622,847,931
1623,852,933
1624,854,933
1625,856,931
1626,861,929
1627,858,931
1628,860,926
1629,857,922
1630,854,923
1631,852,921
1632,852,920
1633,847,919
1634,848,920
1635,845,923
1636,850,918
1637,849,921
1638,851,918
1639,851,913
1640,847,911
1641,843,909
1642,841,905
1643,835,900
1644,831,896
1645,829,896
1646,829,894
1647,826,892
1648,829,896
1649,829,893
1650,829,888
1651,829,887
1652,822,884
1653,820,877
1654,817,873
1655,815,870
1656,810,868
1657,807,864
1658,805,864
1659,801,864
1660,799,866
1661,795,864
1662,792,861
1663,788,857
1664,784,858
1665,779,853
1666,775,851
1667,769,849
1668,768,843
1669,762,846
1670,761,847
1671,762,850
1672,768,848
1673,769,853
1674,777,848
1675,778,848
1676,783,846
1677,787,843
1678,792,841
1679,799,839
1680,804,839
1681,809,840
1682,813,842
1683,820,846
1684,823,845
1685,827,851
1686,835,854
1687,834,854
1688,839,856
1689,842,860
1690,842,861
1691,843,863
1692,847,864
1693,843,870
1694,844,874
1695,848,880
1696,852,884
1697,856,887
1698,856,890
1699,859,892
1700,857,896
1701,859,896
1702,856,894
1703,857,894
1704,856,898
1705,856,902
1706,859,905
1707,860,909
1708,867,908
1709,865,911
1710,868,912
1711,868,911
1712,869,914
1713,871,914
1714,868,912
1715,866,912
1716,862,913
1717,863,914
1718,863,912
1719,863,916
1720,865,916
1721,866,919
1722,870,923
1723,871,917
1724,867,918
1725,865,916
1726,864,910
1727,860,910
1728,859,909
1729,855,912
1730,855,909
1731,855,908
1732,857,910
1733,859,912
1734,859,911
1735,859,910
1736,859,908
1737,857,908
1738,852,905
1739,853,900
1740,853,899
1741,847,899
1742,850,902
1743,851,904
1744,852,901
1745,853,899
1746,851,899
1747,853,898
1748,849,897
1749,852,896
1750,853,893
1751,853,893
1752,853,890
1753,851,892
1754,853,890
1755,856,897
1756,855,894
1757,856,895
1758,857,894
1759,857,893
1760,858,896
1761,855,891
1762,851,891
1763,851,888
1764,850,889
1765,849,888
1766,850,887
1767,853,891
1768,855,892
1769,860,900
1770,861,901
1771,858,898
1772,857,895
1773,856,894
1774,853,894
1775,852,888
1776,853,891
1777,851,889
1778,855,890
1779,854,893
1780,857,898
1781,853,895
1782,861,898
1783,857,898
1784,859,894
1785,857,886
1786,857,882
1787,856,879
1788,856,879
1789,857,882
1790,861,882
1791,864,887
1792,867,889
1793,869,888
1794,872,889
1795,871,884
1796,876,880
1797,874,877
1798,874,871
1799,876,871
1800,876,869
1801,879,874
1802,883,880
1803,890,885
1804,894,887
1805,898,890
1806,899,893
1807,895,893
1808,892,890
1809,886,888
1810,881,885
1811,878,881
1812,874,881
1813,874,883
1814,880,881
1815,888,887
1816,894,893
1817,898,905
1818,900,908
1819,896,912
1820,889,916
1821,882,909
1822,872,904
1823,865,898
1824,859,893
1825,856,887
1826,858,892
1827,857,892
1828,859,896
1829,856,896
1830,858,897
1831,851,892
1832,851,887
1833,844,883
1834,844,879
1835,840,880
1836,843,873
1837,842,872
1838,842,870
1839,841,875
1840,845,873
1841,850,877
1842,850,876
1843,851,876
1844,850,877
1845,847,873
1846,844,875
1847,841,872
1848,842,870
1849,839,870
1850,837,873
1851,838,871
1852,839,878
1853,841,874
1854,843,876
1855,847,871
1856,846,871
1857,844,871
1858,846,868
1859,847,868
1860,842,864
1861,837,865
1862,836,863
1863,836,861
1864,840,857
1865,844,845
1866,855,830
1867,871,808
1868,894,787
1869,920,762
1870,945,741
1871,975,721
1872,995,706
1873,1002,700
1874,997,712
1875,992,737
1876,994,765
1877,1006,793
1878,1031,819
1879,1060,847
1880,1091,887
1881,1105,933
1882,1095,995
1883,1053,1052
1884,980,1090
1885,891,1104
1886,802,1083
1887,733,1035
1888,687,980
1889,663,932
1890,646,896
1891,641,873
1892,631,859
1893,624,848
1894,619,840
1895,614,833
1896,613,828
1897,613,822
1898,612,824
1899,616,827
1900,619,834
1901,622,836
1902,628,837
1903,636,833
1904,648,829
1905,668,824
1906,691,822
1907,723,827
1908,752,838
1909,776,854
1910,798,872
1911,815,886
1912,825,898
1913,828,904
1914,830,907
1915,829,905
1916,831,903
1917,833,899
1918,835,894
1919,834,889
1920,834,891
1921,835,892
1922,838,893
1923,837,897
1924,837,900
1925,836,902
1926,837,904
1927,833,899
1928,835,895
1929,836,894
1930,832,890
1931,827,887
1932,828,885
1933,827,887
1934,827,889
1935,827,890
1936,823,889
1937,824,888
1938,823,880
1939,821,872
1940,824,866
1941,818,860
1942,816,850
1943,813,849
1944,809,849
1945,808,845
1946,804,842
1947,805,841
1948,803,838
1949,805,835
1950,805,828
1951,802,827
1952,796,820
1953,796,818
1954,791,817
1955,786,815
1956,783,815
1957,785,817
1958,784,815
1959,786,817
1960,788,816
1961,787,819
1962,791,818
1963,788,822
1964,787,822
1965,788,820
1966,788,816
1967,786,815
1968,784,816
1969,780,816
1970,785,820
1971,789,818
1972,792,821
1973,797,824
1974,797,827
1975,803,827
1976,804,829
1977,808,831
1978,808,832
1979,811,834
1980,811,836
1981,815,844
1982,819,842
1983,823,846
1984,828,849
1985,834,856
1986,839,860
1987,838,863
1988,838,869
1989,841,870
1990,844,874
1991,845,876
1992,850,884
1993,850,886
1994,851,892
1995,853,890
1996,853,895
1997,855,900
1998,857,902
1999,859,904
2000,859,903
2001,859,900
2002,860,899
2003,858,896
2004,859,897
2005,855,898
2006,855,902
2007,859,904
2008,858,908
2009,859,907
2010,860,910
2011,860,908
2012,863,909
2013,862,906
2014,856,903
2015,862,904
2016,860,904
2017,858,909
2018,856,912
2019,854,911
2020,854,912
2021,858,910
2022,857,908
2023,862,907
2024,861,906
2025,862,904
2026,860,906
2027,857,902
2028,853,903
2029,856,909
2030,854,906
2031,853,909
2032,853,916
2033,854,915
2034,857,914
2035,855,911
2036,854,908
2037,857,907
2038,852,906
2039,849,906
2040,852,904
2041,853,910
2042,853,913
2043,856,913
2044,858,915
2045,857,917
2046,860,913
2047,859,915
2048,856,908
2049,856,908
2050,855,904
2051,855,902
2052,856,902
2053,857,905
2054,855,904
2055,861,903
2056,860,907
2057,862,911
2058,863,909
2059,860,909
2060,862,911
2061,860,907
2062,859,905
2063,858,903
2064,858,901
2065,859,903
2066,860,903
2067,864,908
2068,864,910
2069,865,911
2070,868,914
2071,867,908
2072,866,904
2073,865,901
2074,865,897
2075,864,897
2076,862,898
2077,860,898
2078,865,901
2079,867,905
2080,867,906
2081,869,907
2082,872,910
2083,873,905
2084,871,908
2085,869,903
2086,870,902
2087,869,898
2088,874,896
2089,876,890
2090,877,894
2091,881,893
2092,885,890
2093,889,896
2094,892,901
2095,893,900
2096,893,901
2097,892,897
2098,890,897
2099,892,897
2100,894,896
2101,894,898
2102,898,901
2103,903,909
2104,904,916
2105,902,922
2106,902,926
2107,895,928
2108,891,925
2109,887,918
2110,885,910
2111,879,913
2112,881,912
2113,882,915
2114,885,922
2115,887,932
2116,890,938
2117,894,944
2118,890,949
2119,886,949
2120,880,942
2121,872,940
2122,864,931
2123,857,921
2124,855,918
2125,851,916
2126,849,923
2127,847,925
2128,847,925
2129,848,928
2130,848,926
2131,848,920
2132,843,916
2133,844,916
2134,842,917
2135,839,916
2136,835,914
2137,833,916
2138,834,913
2139,837,916
2140,836,915
2141,840,915
2142,843,917
2143,840,916
2144,840,918
2145,839,922
2146,839,919
2147,839,919
2148,837,915
2149,836,919
2150,840,915
2151,841,919
2152,841,916
2153,846,920
2154,848,920
2155,848,920
2156,851,919
2157,847,912
2158,843,905
2159,835,896
2160,836,888
2161,831,880
2162,834,870
2163,847,854
2164,869,833
2165,894,815
2166,928,787
2167,958,767
2168,985,745
2169,997,736
2170,999,742
2171,996,758
2172,997,786
2173,1004,812
2174,1030,842
2175,1061,879
2176,1091,924
2177,1107,980
2178,1092,1048
2179,1043,1108
2180,967,1139
2181,879,1134
2182,797,1100
2183,736,1041
2184,694,988
2185,671,947
2186,661,923
2187,658,913
2188,654,908
2189,650,906
2190,648,896
2191,644,886
2192,642,882
2193,639,875
2194,635,874
2195,635,877
2196,637,879
2197,640,881
2198,645,883
2199,654,879
2200,671,876
2201,692,875
2202,722,879
2203,750,882
2204,776,890
2205,797,901
2206,813,908
2207,821,915
2208,820,921
2209,823,925
2210,822,929
2211,822,927
2212,828,923
2213,832,924
2214,832,924
2215,837,923
2216,838,921
2217,838,917
2218,838,914
2219,835,915
2220,835,907
2221,827,912
2222,831,908
2223,833,911
2224,833,912
2225,834,910
2226,836,911
2227,835,909
2228,834,907
2229,829,900
2230,829,897
2231,825,893
2232,824,892
2233,823,891
2234,822,890
2235,820,891
2236,819,890
2237,817,884
2238,820,884
2239,820,878
2240,816,870
2241,813,865
2242,810,859
2243,808,856
2244,806,853
2245,805,856
2246,801,852
2247,799,857
2248,798,853
2249,803,851
2250,801,850
2251,800,845
2252,800,842
2253,796,839
2254,795,837
2255,792,833
2256,788,832
2257,787,832
2258,784,833
2259,786,833
2260,787,834
2261,787,835
2262,789,835
2263,791,835
2264,792,833
2265,792,831
2266,790,831
2267,789,828
2268,789,827
2269,793,829
2270,795,827
2271,797,832
2272,803,834
2273,805,834
2274,808,836
2275,814,841
2276,820,838
2277,822,839
2278,826,839
2279,831,840
2280,833,847
2281,833,850
2282,836,853
2283,840,859
2284,842,863
2285,846,870
2286,850,875
2287,852,874
2288,857,871
2289,854,873
2290,854,872
2291,857,875
2292,859,875
2293,859,882
2294,863,884
2295,862,892
2296,865,899
2297,870,902
2298,871,901
2299,871,903
2300,871,904
2301,870,900
2302,872,899
2303,870,897
2304,871,899
2305,872,901
2306,873,903
2307,872,906
2308,875,911
2309,876,915
2310,877,917
2311,877,914
2312,874,914
2313,872,911
2314,872,911
2315,872,909
2316,870,911
2317,871,912
2318,872,912
2319,873,915
2320,876,918
2321,876,915
2322,876,923
2323,876,921
2324,872,923
2325,871,920
2326,869,918
2327,864,917
2328,864,914
2329,865,919
2330,867,921
2331,868,925
2332,867,926
2333,867,931
2334,866,932
2335,868,930
2336,862,929
2337,863,925
2338,856,920
2339,855,919
2340,852,922
2341,849,919
2342,850,921
2343,849,928
2344,852,925
2345,853,929
2346,855,928
2347,857,932
2348,857,925
2349,854,924
2350,851,922
2351,850,921
2352,849,921
2353,849,920
2354,851,924
2355,850,923
2356,850,928
2357,849,928
2358,851,930
2359,852,924
2360,854,922
2361,853,920
2362,851,913
2363,849,910
2364,848,909
2365,846,909
2366,847,913
2367,848,912
2368,848,919
2369,849,919
2370,850,921
2371,852,920
2372,850,918
2373,849,917
2374,847,916
2375,848,913
2376,845,911
2377,845,909
2378,844,910
2379,846,912
2380,846,913
2381,848,916
2382,853,920
2383,858,918
2384,861,916
2385,861,916
2386,862,909
2387,862,908
2388,860,905
2389,863,901
2390,868,902
2391,865,901
2392,872,900
2393,875,903
2394,880,906
2395,881,907
2396,882,908
2397,888,910
2398,890,911
2399,889,914
2400,886,916
2401,882,917
2402,878,919
2403,877,918
2404,880,913
2405,875,914
2406,875,911
2407,880,907
2408,881,912
2409,887,911
2410,886,915
2411,887,926
2412,890,928
2413,890,931
2414,888,935
2415,881,936
2416,880,932
2417,874,927
2418,869,921
2419,867,914
2420,863,907
2421,856,906
2422,851,903
2423,852,902
2424,846,905
2425,841,902
2426,843,909
2427,843,906
2428,847,909
2429,849,910
2430,848,915
2431,851,911
2432,847,907
2433,843,906
2434,843,907
2435,846,901
2436,843,901
2437,842,902
2438,840,903
2439,841,909
2440,844,909
2441,840,911
2442,847,916
2443,847,914
2444,845,909
2445,845,908
2446,844,903
2447,842,898
2448,836,894
2449,838,895
2450,838,898
2451,841,898
2452,842,905
2453,845,903
2454,846,907
2455,849,902
2456,847,898
2457,845,895
2458,838,894
2459,839,891
2460,840,881
2461,841,867
2462,853,848
2463,873,826
2464,899,805
2465,928,786
2466,963,765
2467,985,743
2468,994,733
2469,999,738
2470,991,751
2471,986,774
2472,992,803
2473,1010,829
2474,1041,859
2475,1073,892
2476,1098,946
2477,1104,1006
2478,1079,1066
2479,1017,1115
2480,938,1134
2481,850,1124
2482,774,1084
2483,721,1028
2484,685,978
2485,665,939
2486,655,915
2487,642,905
2488,632,894
2489,627,890
2490,624,878
2491,620,870
2492,622,865
2493,621,861
2494,621,862
2495,622,863
2496,623,866
2497,627,864
2498,638,864
2499,656,859
2500,682,859
2501,713,863
2502,745,871
2503,773,883
2504,793,893
2505,810,902
2506,819,912
2507,822,914
2508,822,921
2509,820,920
2510,821,922
2511,823,926
2512,829,929
2513,829,929
2514,834,931
2515,835,926
2516,833,923
2517,830,919
2518,825,917
2519,824,915
2520,828,913
2521,826,913
2522,825,912
2523,824,910
2524,829,907
2525,830,908
2526,834,908
2527,829,907
2528,828,905
2529,820,904
2530,816,904
2531,817,900
2532,814,898
2533,811,897
2534,810,891
2535,812,890
2536,812,890
2537,811,884
2538,809,883
2539,803,878
2540,807,873
2541,802,873
2542,800,869
2543,799,868
2544,793,862
2545,791,859
2546,788,859
2547,789,855
2548,787,855
2549,787,852
2550,789,854
2551,787,851
2552,786,852
2553,786,852
2554,782,848
2555,783,842
2556,778,838
2557,778,833
2558,777,831
2559,780,835
2560,781,836
2561,784,840
2562,786,843
2563,792,841
2564,794,845
2565,793,843
2566,793,842
2567,798,844
2568,799,847
2569,798,850
2570,800,855
2571,805,858
2572,806,859
2573,814,857
2574,818,863
2575,823,867
2576,827,870
2577,832,875
2578,830,878
2579,832,875
2580,833,876
2581,836,881
2582,837,887
2583,840,893
2584,845,899
2585,845,906
2586,847,910
2587,846,908
2588,844,908
2589,845,909
2590,847,909
2591,847,905
2592,843,908
2593,846,909
2594,849,911
2595,849,914
2596,852,918
2597,852,921
2598,855,926
2599,854,926
2600,855,926
2601,855,927
2602,855,926
2603,854,923
2604,850,923
2605,847,922
2606,847,920
2607,849,923
2608,851,927
2609,853,932
2610,852,932
2611,851,929
2612,854,927
2613,852,924
2614,852,925
2615,847,917
2616,848,918
2617,845,917
2618,843,921
2619,844,930
2620,847,929
2621,847,930
2622,851,931
2623,849,928
2624,849,930
2625,848,929
2626,845,922
2627,844,922
2628,842,919
2629,840,917
2630,841,913
2631,839,921
2632,842,923
2633,846,932
2634,845,931
2635,847,929
2636,846,926
2637,846,924
2638,844,919
2639,845,924
2640,843,921
2641,849,921
2642,844,924
2643,844,928
2644,847,931
2645,846,932
2646,844,938
2647,849,934
2648,845,931
2649,845,928
2650,849,922
2651,847,920
2652,847,922
2653,847,926
2654,847,929
2655,849,931
2656,853,932
2657,852,934
2658,856,935
2659,855,934
2660,853,931
2661,851,929
2662,848,928
2663,846,928
2664,847,925
2665,847,924
2666,849,926
2667,849,926
2668,848,929
2669,852,931
2670,857,935
2671,854,935
2672,856,932
2673,857,930
2674,856,926
2675,856,928
2676,855,930
2677,856,927
2678,853,927
2679,857,930
2680,860,934
2681,865,936
2682,867,936
2683,870,931
2684,871,927
2685,872,924
2686,869,916
2687,871,919
2688,871,918
2689,872,922
2690,876,924
2691,881,929
2692,887,938
2693,888,942
2694,889,950
2695,883,948
2696,881,943
2697,878,939
2698,873,935
2699,871,930
2700,869,929
2701,873,932
2702,875,940
2703,880,947
2704,885,957
2705,887,964
2706,888,971
2707,887,966
2708,881,963
2709,874,956
2710,867,945
2711,863,938
2712,858,934
2713,855,931
2714,856,934
2715,856,937
2716,851,945
2717,850,945
2718,850,948
2719,851,943
2720,848,937
2721,846,932
2722,845,929
2723,843,926
2724,841,926
2725,841,923
2726,840,925
2727,842,929
2728,844,932
2729,847,937
2730,846,938
2731,846,939
2732,846,937
2733,843,931
2734,839,932
2735,840,930
2736,839,927
2737,838,924
2738,839,923
2739,842,930
2740,843,930
2741,842,932
2742,844,934
2743,846,931
2744,847,930
2745,843,927
2746,840,924
2747,839,923
2748,836,921
2749,834,919
2750,835,914
2751,833,909
2752,835,899
2753,840,886
2754,850,866
2755,871,842
2756,895,816
2757,924,790
2758,949,766
2759,972,748
2760,981,748
2761,980,759
2762,975,781
2763,977,817
2764,985,851
2765,1013,879
2766,1043,914
2767,1074,961
2768,1088,1019
2769,1068,1085
2770,1017,1134
2771,941,1156
2772,858,1152
2773,792,1109
2774,742,1059
2775,716,1013
2776,703,978
2777,696,960
2778,686,953
2779,679,939
2780,667,930
2781,659,920
2782,655,910
2783,651,902
2784,648,902
2785,647,903
2786,645,906
2787,646,904
2788,650,907
2789,658,904
2790,673,902
2791,693,899
2792,719,896
2793,743,900
2794,770,904
2795,795,916
2796,809,926
2797,817,935
2798,823,943
2799,822,945
2800,821,945
2801,823,945
2802,829,947
2803,834,945
2804,838,944
2805,837,945
2806,835,944
2807,834,942
2808,836,942
2809,838,939
2810,840,939
2811,839,939
2812,835,934
2813,835,937
2814,834,934
2815,836,938
2816,833,935
2817,832,933
2818,834,924
2819,830,919
2820,832,914
2821,830,910
2822,829,909
2823,829,908
2824,828,908
2825,827,908
2826,830,903
2827,827,897
2828,821,894
2829,816,890
2830,811,888
2831,807,880
2832,810,879
2833,810,873
2834,810,876
2835,810,874
2836,810,874
2837,808,873
2838,805,866
2839,804,864
2840,802,858
2841,795,852
2842,795,854
2843,791,844
2844,792,848
2845,788,849
2846,789,843
2847,787,848
2848,787,842
2849,787,845
2850,790,848
2851,792,842
2852,792,843
2853,791,843
2854,792,837
2855,791,835
2856,790,835
2857,789,837
2858,791,839
2859,794,846
2860,800,851
2861,803,854
2862,807,858
2863,812,856
2864,816,858
2865,818,857
2866,818,857
2867,817,862
2868,823,866
2869,825,870
2870,828,874
2871,832,881
2872,838,885
2873,840,887
2874,846,889
2875,848,890
2876,850,892
2877,849,892
2878,850,895
2879,853,894
2880,850,899
2881,850,895
2882,849,897
2883,850,899
2884,856,909
2885,859,910
2886,858,910
2887,863,912
2888,861,910
2889,859,915
2890,857,912
2891,854,912
2892,855,912
2893,856,916
2894,859,915
2895,858,922
2896,861,920
2897,862,924
2898,864,924
2899,863,925
2900,864,925
2901,862,923
2902,860,919
2903,855,918
2904,853,919
2905,855,920
2906,854,918
2907,856,923
2908,858,924
2909,857,926
2910,857,925
2911,858,924
2912,857,925
2913,856,925
2914,852,921
2915,851,919
2916,847,920
2917,845,920
2918,847,918
2919,845,917
2920,846,918
2921,847,920
2922,847,922
2923,851,920
2924,856,920
2925,861,921
2926,860,917
2927,855,917
2928,851,915
2929,841,915
2930,835,916
2931,841,920
2932,848,922
2933,851,928
2934,857,928
2935,853,926
2936,848,922
2937,840,920
2938,837,922
2939,836,922
2940,837,924
2941,835,923
2942,838,925
2943,837,923
2944,841,922
2945,842,921
2946,847,918
2947,847,920
2948,845,921
2949,846,915
2950,843,914
2951,839,916
2952,844,917
2953,842,926
2954,842,928
2955,845,927
2956,847,925
2957,851,924
2958,853,922
2959,854,921
2960,853,919
2961,851,916
2962,850,914
2963,850,911
2964,854,911
2965,851,915
2966,858,916
2967,857,922
2968,863,922
2969,871,925
2970,870,922
2971,874,918
2972,875,916
2973,877,913
2974,875,910
2975,875,910
2976,872,911
2977,869,914
2978,868,919
2979,871,927
2980,872,935
2981,874,937
2982,877,940
2983,871,938
2984,869,933
2985,871,933
2986,872,929
2987,877,926
2988,881,927
2989,878,926
2990,879,932
2991,874,937
2992,874,944
2993,866,948
2994,865,955
2995,858,947
2996,845,942
2997,840,935
2998,839,923
2999,838,918
3000,835,916
3001,836,910
3002,837,911
3003,837,915
3004,836,917
3005,834,921
3006,828,925
3007,831,928
3008,832,930
3009,831,925
3010,828,920
3011,825,917
3012,826,914
3013,827,915
3014,830,915
3015,828,919
3016,833,922
3017,829,922
3018,832,923
3019,830,919
3020,831,917
3021,827,913
3022,826,911
3023,824,908
3024,822,912
3025,817,910
3026,816,908
3027,817,908
3028,820,912
3029,821,913
3030,823,912
3031,824,911
3032,825,912
3033,821,914
3034,819,913
3035,816,909
3036,811,903
3037,805,893
3038,801,878
3039,800,865
3040,805,845
3041,811,820
3042,828,788
3043,847,755
3044,872,725
3045,892,698
3046,902,688
3047,906,693
3048,907,715
3049,909,742
3050,923,776
3051,950,811
3052,988,840
3053,1029,876
3054,1062,927
3055,1070,989
3056,1059,1049
3057,1021,1099
3058,962,1121
3059,894,1116
3060,824,1089
3061,768,1049
3062,729,1010
3063,705,982
3064,691,967
3065,685,956
3066,677,952
3067,667,944
3068,652,938
3069,643,928
3070,638,923
3071,634,918
3072,631,915
3073,629,913
3074,636,910
3075,637,908
3076,645,901
3077,655,901
3078,671,896
3079,691,894
3080,717,898
3081,743,905
3082,764,910
3083,782,917
3084,795,923
3085,799,924
3086,802,929
3087,799,930
3088,800,925
3089,802,928
3090,804,929
3091,806,926
3092,808,929
3093,808,934
3094,808,935
3095,810,933
3096,806,928
3097,807,926
3098,808,927
3099,811,925
3100,812,930
3101,810,922
3102,809,922
3103,812,916
3104,809,911
3105,808,905
3106,805,898
3107,800,900
3108,798,900
3109,794,902
3110,796,903
3111,794,903
3112,795,902
3113,795,902
3114,796,895
3115,793,887
3116,788,883
3117,787,880
3118,787,879
3119,789,877
3120,787,878
3121,780,874
3122,776,869
3123,771,872
3124,769,870
3125,773,864
3126,771,861
3127,774,859
3128,775,858
3129,775,860
3130,775,862
3131,773,857
3132,768,852
3133,764,850
3134,763,847
3135,765,849
3136,766,849
3137,765,851
3138,765,851
3139,768,855
3140,771,852
3141,771,853
3142,772,855
3143,769,849
3144,769,847
3145,765,843
3146,766,841
3147,770,843
3148,772,845
3149,777,852
3150,782,854
3151,787,856
3152,787,857
3153,789,861
3154,792,864
3155,792,869
3156,796,869
3157,797,866
3158,797,867
3159,803,872
3160,813,874
3161,814,878
3162,820,884
3163,825,891
3164,828,894
3165,831,895
3166,827,895
3167,823,890
3168,820,891
3169,816,887
3170,819,893
3171,821,896
3172,822,901
3173,824,903
3174,827,907
3175,832,909
3176,833,913
3177,833,913
3178,833,912
3179,827,912
3180,825,905
3181,826,904
3182,822,906
3183,826,907
3184,827,912
3185,827,918
3186,829,924
3187,832,927
3188,835,925
3189,837,919
3190,833,916
3191,825,911
3192,819,907
3193,815,909
3194,811,911
3195,811,915
3196,817,920
3197,825,924
3198,830,923
3199,830,921
3200,825,919
3201,818,916
3202,814,910
3203,813,909
3204,811,908
3205,817,908
3206,821,908
3207,824,912
3208,824,915
3209,823,917
3210,822,916
3211,816,913
3212,815,910
3213,811,899
3214,808,898
3215,811,895
3216,814,898
3217,816,906
3218,819,911
3219,819,921
3220,819,922
3221,819,924
3222,816,926
3223,816,921
3224,816,917
3225,812,909
3226,809,905
3227,808,899
3228,810,901
3229,812,904
3230,811,909
3231,815,910
3232,816,920
3233,813,919
3234,813,918
3235,812,909
3236,812,909
3237,804,907
3238,801,901
3239,798,899
3240,794,899
3241,793,903
3242,799,904
3243,809,914
3244,816,916
3245,820,915
3246,817,916
3247,812,912
3248,806,912
3249,801,915
3250,802,916
3251,801,917
3252,805,919
3253,803,916
3254,801,913
3255,799,914
3256,799,914
3257,805,917
3258,807,922
3259,809,924
3260,810,921
3261,810,920
3262,806,917
3263,802,914
3264,802,910
3265,799,912
3266,795,909
3267,798,908
3268,803,911
3269,804,908
3270,805,905
3271,804,909
3272,804,908
3273,804,914
3274,809,915
3275,809,919
3276,812,915
3277,811,912
3278,811,904
3279,810,898
3280,810,895
3281,812,896
3282,812,900
3283,821,907
3284,819,908
3285,821,912
3286,827,907
3287,830,904
3288,833,904
3289,833,907
3290,835,912
3291,835,919
3292,835,924
3293,831,925
3294,829,923
3295,825,921
3296,822,915
3297,822,909
3298,819,907
3299,822,906
3300,826,911
3301,832,923
3302,836,933
3303,837,942
3304,836,952
3305,830,947
3306,820,946
3307,812,936
3308,806,926
3309,802,925
3310,802,916
3311,798,913
3312,793,912
3313,792,911
3314,791,910
3315,787,914
3316,785,917
3317,786,915
3318,784,919
3319,786,920
3320,785,916
3321,784,908
3322,788,908
3323,789,904
3324,787,902
3325,782,901
3326,779,905
3327,775,906
3328,775,907
3329,776,908
3330,786,908
3331,788,909
3332,791,902
3333,783,906
3334,784,906
3335,779,906
3336,780,899
3337,778,900
3338,777,897
3339,779,900
3340,783,902
3341,787,905
3342,793,910
3343,794,913
3344,788,909
3345,782,902
3346,775,894
3347,767,884
3348,759,872
3349,758,859
3350,762,848
3351,776,832
3352,799,816
3353,832,795
3354,861,770
3355,887,743
3356,900,720
3357,912,714
3358,911,715
3359,907,737
3360,908,762
3361,914,795
3362,938,826
3363,970,860
3364,1004,896
3365,1032,941
3366,1034,998
3367,1016,1054
3368,955,1095
3369,871,1107
3370,788,1090
3371,712,1043
3372,655,993
3373,618,944
3374,591,919
3375,581,902
3376,575,896
3377,576,891
3378,576,881
3379,582,872
3380,581,861
3381,583,858
3382,581,856
3383,578,861
3384,572,860
3385,572,862
3386,577,859
3387,586,859
3388,606,858
3389,633,855
3390,661,861
3391,687,867
3392,709,877
3393,722,890
3394,738,900
3395,745,904
3396,747,907
3397,747,908
3398,749,905
3399,748,905
3400,754,901
3401,761,903
3402,766,907
3403,771,910
3404,771,909
3405,770,912
3406,766,909
3407,763,906
3408,764,905
3409,759,905
3410,755,904
3411,748,905
3412,751,904
3413,749,898
3414,757,895
3415,760,894
3416,763,892
3417,763,892
3418,755,890
3419,752,890
3420,752,889
3421,747,887
3422,746,885
3423,747,882
3424,748,878
3425,751,875
3426,748,878
3427,742,872
3428,738,866
3429,736,862
3430,735,855
3431,733,850
3432,731,852
3433,728,852
3434,724,855
3435,719,849
3436,719,851
3437,716,846
3438,719,842
3439,724,842
3440,721,839
3441,724,834
3442,725,826
3443,725,824
3444,717,824
3445,716,824
3446,714,825
3447,715,826
3448,717,829
3449,720,827
3450,725,825
3451,726,826
3452,725,824
3453,723,824
3454,724,824
3455,722,821
3456,723,822
3457,721,824
3458,720,825
3459,723,832
3460,729,836
3461,739,844
3462,749,844
3463,756,847
3464,761,841
3465,761,846
3466,758,844
3467,752,842
3468,745,847
3469,747,848
3470,753,851
3471,761,858
3472,773,862
3473,780,869
3474,783,874
3475,789,876
3476,790,880
3477,789,884
3478,792,890
3479,791,895
3480,792,893
3481,789,894
3482,787,892
3483,783,888
3484,781,887
3485,782,887
3486,783,890
3487,786,897
3488,789,903
3489,787,908
3490,787,907
3491,789,903
3492,788,897
3493,787,895
3494,787,896
3495,784,899
3496,785,904
3497,789,904
3498,791,907
3499,794,909
3500,792,906
3501,795,905
3502,793,901
3503,789,899
3504,792,897
3505,787,894
3506,784,895
3507,782,895
3508,789,898
3509,791,898
3510,787,902
3511,789,904
3512,791,906
3513,789,908
3514,783,906
3515,777,902
3516,772,901
3517,775,895
3518,775,896
3519,776,892
3520,783,895
3521,786,897
3522,789,902
3523,788,895
3524,786,901
3525,780,900
3526,777,902
3527,774,901
3528,776,899
3529,777,895
3530,778,891
3531,783,894
3532,783,897
3533,788,902
3534,784,900
3535,786,904
3536,787,901
3537,791,903
3538,794,901
3539,794,900
3540,788,899
3541,784,897
3542,776,895
3543,773,889
3544,773,892
3545,778,889
3546,779,894
3547,783,895
3548,789,901
3549,785,903
3550,787,906
3551,791,901
3552,790,901
3553,791,898
3554,788,892
3555,786,893
3556,784,892
3557,786,893
3558,785,895
3559,785,894
3560,788,893
3561,787,896
3562,787,895
3563,789,896
3564,790,901
3565,792,898
3566,789,897
3567,787,900
3568,788,902
3569,787,905
3570,785,906
3571,790,908
3572,789,906
3573,794,897
3574,794,895
3575,793,893
3576,792,892
3577,792,895
3578,792,896
3579,790,900
3580,792,900
3581,797,904
3582,798,900
3583,802,902
3584,799,899
3585,797,901
3586,792,902
3587,789,902
3588,788,898
3589,792,898
3590,795,895
3591,801,895
3592,805,898
3593,807,899
3594,809,901
3595,814,898
3596,813,892
3597,813,887
3598,816,885
3599,817,886
3600,821,889
3601,828,891
3602,828,895
3603,832,899
3604,833,899
3605,831,900
3606,831,903
3607,825,901
3608,818,902
3609,819,904
3610,817,902
3611,814,905
3612,821,905
3613,830,912
3614,836,917
3615,836,922
3616,834,924
3617,831,925
3618,826,925
3619,823,922
3620,815,917
3621,805,910
3622,800,901
3623,801,894
3624,797,889
3625,795,886
3626,792,894
3627,785,899
3628,786,906
3629,783,906
3630,784,907
3631,786,905
3632,787,897
3633,789,897
3634,792,890
3635,788,889
3636,788,889
3637,785,890
3638,781,889
3639,781,891
3640,785,897
3641,788,897
3642,794,898
3643,796,897
3644,795,897
3645,795,898
3646,787,895
3647,783,894
3648,772,891
3649,771,888
3650,770,888
3651,775,889
3652,779,897
3653,783,893
3654,790,896
3655,792,895
3656,792,895
3657,789,888
3658,786,879
3659,781,870
3660,777,860
3661,779,850
3662,784,840
3663,799,825
3664,824,807
3665,856,778
3666,890,746
3667,920,722
3668,932,714
3669,933,715
3670,922,732
3671,921,761
3672,929,790
3673,960,828
3674,996,867
3675,1029,918
3676,1047,983
3677,1032,1037
3678,980,1083
3679,900,1096
3680,814,1083
3681,735,1044
3682,677,999
3683,644,956
3684,629,922
3685,621,906
3686,610,895
3687,600,890
3688,591,883
3689,580,870
3690,573,863
3691,572,858
3692,573,858
3693,573,854
3694,571,852
3695,567,850
3696,566,850
3697,569,851
3698,578,846
3699,589,842
3700,605,841
3701,623,848
3702,646,849
3703,677,862
3704,699,875
3705,721,885
3706,741,894
3707,751,898
3708,753,896
3709,756,901
3710,760,902
3711,767,904
3712,774,903
3713,779,902
3714,783,906
3715,784,908
3716,787,907
3717,782,905
3718,776,899
3719,770,892
3720,768,892
3721,770,888
3722,768,887
3723,777,886
3724,775,889
3725,775,889
3726,777,891
3727,778,894
3728,774,893
3729,774,889
3730,771,888
3731,770,881
3732,769,878
3733,768,873
3734,769,875
3735,767,878
3736,767,879
3737,763,874
3738,764,872
3739,760,863
3740,759,855
3741,755,851
3742,755,848
3743,754,841
3744,751,838
3745,749,835
3746,744,837
3747,740,838
3748,737,839
3749,734,838
3750,735,842
3751,738,840
3752,737,836
3753,737,833
3754,738,836
3755,738,833
3756,737,835
3757,735,828
3758,732,825
3759,730,824
3760,734,823
3761,737,821
3762,738,820
3763,742,821
3764,740,824
3765,735,823
3766,734,822
3767,735,821
3768,736,823
3769,740,821
3770,741,822
3771,746,823
3772,753,823
3773,757,825
3774,763,825
3775,766,832
3776,767,833
3777,768,844
3778,769,846
3779,768,848
3780,772,847
3781,780,845
3782,782,847
3783,783,850
3784,787,852
3785,790,859
3786,794,863
3787,800,867
3788,802,867
3789,804,868
3790,803,869
3791,798,872
3792,798,871
3793,801,878
3794,802,881
3795,803,882
3796,806,883
3797,811,884
3798,817,888
3799,821,890
3800,816,896
3801,811,901
3802,811,899
3803,803,903
3804,802,900
3805,804,900
3806,804,901
3807,808,900
3808,812,898
3809,816,897
3810,818,901
3811,818,898
3812,816,902
3813,811,908
3814,803,904
3815,801,903
3816,801,896
3817,801,894
3818,801,894
3819,803,892
3820,809,888
3821,809,895
3822,809,898
3823,812,901
3824,809,903
3825,805,903
3826,799,900
3827,792,900
3828,787,890
3829,788,890
3830,792,890
3831,796,893
3832,801,894
3833,803,896
3834,804,897
3835,803,896
3836,802,891
3837,802,891
3838,802,887
3839,801,887
3840,802,886
3841,801,891
3842,798,894
3843,797,896
3844,798,899
3845,798,897
3846,802,892
3847,803,891
3848,803,891
3849,807,894
3850,808,897
3851,806,893
3852,805,892
3853,803,889
3854,801,891
3855,800,893
3856,800,898
3857,800,902
3858,805,903
3859,806,901
3860,801,899
3861,802,898
3862,802,894
3863,805,893
3864,804,892
3865,805,892
3866,805,891
3867,803,888
3868,803,892
3869,803,893
3870,808,896
3871,813,900
3872,814,899
3873,809,901
3874,805,903
3875,797,900
3876,797,906
3877,798,898
3878,799,899
3879,798,898
3880,805,895
3881,809,893
3882,812,893
3883,813,895
3884,814,896
3885,813,896
3886,809,895
3887,809,895
3888,808,890
3889,810,889
3890,809,894
3891,810,896
3892,816,898
3893,816,900
3894,821,900
3895,824,894
3896,822,889
3897,824,882
3898,823,881
3899,828,884
3900,829,888
3901,836,892
3902,839,899
3903,847,901
3904,852,903
3905,851,908
3906,845,913
3907,840,912
3908,835,905
3909,831,900
3910,830,893
3911,826,888
3912,826,891
3913,825,893
3914,829,901
3915,835,910
3916,840,917
3917,847,925
3918,852,936
3919,849,939
3920,840,938
3921,832,939
3922,828,934
3923,824,924
3924,818,914
3925,816,906
3926,814,906
3927,809,911
3928,808,913
3929,807,913
3930,809,911
3931,811,909
3932,813,905
3933,811,902
3934,806,895
3935,799,895
3936,792,891
3937,787,894
3938,784,900
3939,789,906
3940,794,913
3941,799,914
3942,802,909
3943,803,908
3944,798,904
3945,798,897
3946,798,896
3947,797,896
3948,796,896
3949,796,897
3950,794,899
3951,791,899
3952,792,903
3953,793,898
3954,795,900
3955,805,903
3956,805,904
3957,808,903
3958,807,899
3959,802,890
3960,799,886
3961,794,885
3962,788,879
3963,790,880
3964,790,871
3965,800,856
3966,815,848
3967,838,824
3968,870,805
3969,902,781
3970,934,756
3971,954,741
3972,961,739
3973,957,749
3974,947,770
3975,947,798
3976,957,828
3977,979,863
3978,1011,898
3979,1045,941
3980,1061,992
3981,1060,1044
3982,1025,1089
3983,955,1119
3984,871,1119
3985,783,1091
3986,709,1044
3987,657,992
3988,629,945
3989,614,912
3990,606,893
3991,602,883
3992,595,873
3993,588,864
3994,586,857
3995,581,851
3996,583,850
3997,589,852
3998,592,855
3999,595,860
4000,601,860
4001,607,857
4002,613,857
4003,619,857
4004,632,854
4005,653,859
4006,681,868
4007,711,875
4008,734,886
4009,753,892
4010,764,903
4011,774,911
4012,778,915
4013,777,919
4014,778,917
4015,779,915
4016,776,910
4017,776,905
4018,775,898
4019,778,900
4020,780,899
4021,782,902
4022,783,911
4023,782,918
4024,790,925
4025,791,923
4026,790,919
4027,789,912
4028,786,907
4029,784,900
4030,782,895
4031,780,895
4032,779,894
4033,780,897
4034,779,898
4035,779,896
4036,781,895
4037,778,889
4038,782,887
4039,779,879
4040,770,870
4041,769,866
4042,767,864
4043,764,866
4044,763,866
4045,761,863
4046,757,858
4047,752,852
4048,748,850
4049,748,848
4050,751,848
4051,753,847
4052,758,848
4053,755,841
4054,752,843
4055,749,838
4056,747,834
4057,741,833
4058,735,829
4059,734,830
4060,737,829
4061,741,828
4062,742,833
4063,746,833
4064,747,831
4065,752,826
4066,748,825
4067,745,824
4068,743,820
4069,741,819
4070,736,821
4071,740,819
4072,744,827
4073,748,831
4074,754,839
4075,763,844
4076,765,844
4077,765,845
4078,767,845
4079,768,846
4080,767,849
4081,769,847
4082,773,847
4083,778,849
4084,783,853
4085,786,862
4086,794,866
4087,797,874
4088,802,880
4089,806,883
4090,810,882
4091,810,884
4092,808,877
4093,806,880
4094,804,881
4095,803,886
4096,810,895
4097,811,899
4098,813,906
4099,818,909
4100,820,905
4101,816,898
4102,815,893
4103,811,892
4104,810,896
4105,811,897
4106,813,902
4107,817,904
4108,819,910
4109,819,912
4110,819,914
4111,819,912
4112,816,909
4113,814,908
4114,813,909
4115,817,911
4116,818,910
4117,817,911
4118,813,907
4119,813,909
4120,811,910
4121,813,912
4122,810,913
4123,814,913
4124,813,912
4125,814,911
4126,815,910
4127,810,905
4128,811,906
4129,808,906
4130,808,911
4131,811,912
4132,815,915
4133,813,916
4134,815,917
4135,814,916
4136,817,918
4137,815,914
4138,810,906
4139,811,903
4140,808,900
4141,809,906
4142,809,917
4143,813,926
4144,814,926
4145,817,921
4146,819,909
4147,823,901
4148,824,898
4149,825,898
4150,826,901
4151,826,901
4152,823,898
4153,819,898
4154,815,893
4155,813,892
4156,813,894
4157,814,901
4158,818,907
4159,822,915
4160,825,919
4161,828,922
4162,827,921
4163,821,912
4164,816,906
4165,812,899
4166,812,901
4167,813,903
4168,817,904
4169,821,905
4170,825,907
4171,828,908
4172,831,910
4173,826,909
4174,827,909
4175,826,907
4176,825,903
4177,822,898
4178,823,899
4179,824,901
4180,827,903
4181,829,904
4182,834,902
4183,833,906
4184,832,905
4185,832,909
4186,829,913
4187,831,912
4188,832,911
4189,829,905
4190,834,904
4191,835,908
4192,838,908
4193,844,908
4194,845,909
4195,850,910
4196,851,902
4197,856,898
4198,855,893
4199,856,890
4200,852,885
4201,855,888
4202,857,888
4203,859,891
4204,865,894
4205,867,896
4206,862,897
4207,857,903
4208,853,909
4209,852,913
4210,850,916
4211,849,911
4212,845,906
4213,845,898
4214,845,899
4215,847,897
4216,855,901
4217,858,908
4218,865,917
4219,871,921
4220,874,929
4221,867,935
4222,865,931
4223,858,923
4224,850,913
4225,839,904
4226,832,896
4227,836,897
4228,835,897
4229,842,900
4230,844,907
4231,846,911
4232,841,912
4233,837,907
4234,832,899
4235,821,892
4236,817,890
4237,813,889
4238,810,891
4239,814,890
4240,821,899
4241,823,904
4242,824,906
4243,827,906
4244,824,902
4245,824,894
4246,818,890
4247,818,888
4248,817,888
4249,813,892
4250,812,894
4251,811,900
4252,811,903
4253,817,902
4254,819,901
4255,823,898
4256,825,894
4257,825,894
4258,824,893
4259,823,894
4260,818,890
4261,817,890
4262,816,887
4263,813,881
4264,814,880
4265,812,879
4266,813,872
4267,813,868
4268,814,850
4269,818,833
4270,834,808
4271,855,782
4272,879,757
4273,901,735
4274,923,717
4275,936,707
4276,941,710
4277,941,725
4278,940,752
4279,945,775
4280,970,803
4281,998,832
4282,1033,866
4283,1061,915
4284,1068,974
4285,1046,1031
4286,989,1075
4287,914,1094
4288,835,1083
4289,771,1047
4290,723,1006
4291,693,964
4292,680,931
4293,669,912
4294,659,899
4295,649,887
4296,641,873
4297,634,865
4298,631,857
4299,632,855
4300,633,865
4301,639,870
4302,638,877
4303,639,878
4304,641,873
4305,644,870
4306,648,861
4307,663,856
4308,683,851
4309,709,855
4310,732,861
4311,748,872
4312,763,883
4313,775,895
4314,783,899
4315,794,907
4316,796,909
4317,801,908
4318,803,905
4319,805,897
4320,809,893
4321,809,892
4322,812,890
4323,809,892
4324,806,894
4325,804,899
4326,804,904
4327,803,905
4328,802,900
4329,803,895
4330,806,891
4331,805,888
4332,807,883
4333,805,880
4334,803,881
4335,802,879
4336,802,881
4337,799,879
4338,802,880
4339,801,876
4340,804,873
4341,799,866
4342,796,858
4343,791,859
4344,788,855
4345,787,852
4346,786,852
4347,783,849
4348,786,847
4349,785,845
4350,782,845
4351,779,844
4352,777,844
4353,780,846
4354,774,845
4355,773,841
4356,773,833
4357,772,829
4358,770,827
4359,766,828
4360,763,827
4361,761,829
4362,761,828
4363,766,827
4364,766,820
4365,762,816
4366,764,810
4367,759,809
4368,752,812
4369,757,809
4370,752,814
4371,755,815
4372,758,817
4373,762,817
4374,765,820
4375,771,818
4376,773,819
4377,778,819
4378,781,816
4379,776,815
4380,776,816
4381,778,815
4382,780,818
4383,784,820
4384,789,823
4385,797,824
4386,801,825
4387,807,828
4388,809,825
4389,808,835
4390,810,842
4391,811,851
4392,816,856
4393,819,859
4394,821,860
4395,824,858
4396,826,863
4397,826,862
4398,827,864
4399,831,868
4400,832,871
4401,835,874
4402,838,870
4403,838,872
4404,835,870
4405,832,870
4406,832,873
4407,827,880
4408,827,882
4409,832,888
4410,835,885
4411,844,887
4412,844,883
4413,842,884
4414,836,890
4415,833,896
4416,826,900
4417,828,898
4418,827,896
4419,828,893
4420,826,891
4421,831,891
4422,832,884
4423,835,888
4424,835,891
4425,837,895
4426,838,894
4427,838,892
4428,837,893
4429,831,889
4430,830,884
4431,830,887
4432,830,890
4433,827,887
4434,829,890
4435,831,892
4436,831,890
4437,831,888
4438,830,891
4439,830,889
4440,829,887
4441,831,888
4442,828,885
4443,834,883
4444,834,888
4445,837,890
4446,835,890
4447,839,888
4448,839,885
4449,839,883
4450,837,885
4451,837,878
4452,832,881
4453,832,882
4454,832,882
4455,828,880
4456,832,886
4457,833,887
4458,834,892
4459,838,894
4460,836,895
4461,833,893
4462,836,891
4463,837,889
4464,832,887
4465,835,887
4466,834,884
4467,839,887
4468,847,885
4469,850,888
4470,850,889
4471,854,892
4472,854,892
4473,856,893
4474,855,895
4475,853,890
4476,855,887
4477,853,885
4478,853,886
4479,858,886
4480,856,890
4481,859,890
4482,861,891
4483,866,893
4484,866,894
4485,867,895
4486,867,893
4487,869,890
4488,869,888
4489,864,888
4490,867,884
4491,870,889
4492,873,887
4493,878,891
4494,882,891
4495,881,892
4496,886,888
4497,886,882
4498,883,878
4499,885,871
4500,884,871
4501,884,873
4502,889,873
4503,893,874
4504,898,880
4505,903,881
4506,908,884
4507,912,888
4508,917,893
4509,915,894
4510,914,896
4511,903,895
4512,898,894
4513,892,895
4514,887,894
4515,885,892
4516,886,890
4517,890,893
4518,894,896
4519,903,904
4520,910,911
4521,916,916
4522,916,918
4523,910,919
4524,901,916
4525,893,917
4526,884,907
4527,882,905
4528,877,901
4529,879,898
4530,880,902
4531,882,901
4532,880,900
4533,880,896
4534,880,891
4535,871,885
4536,869,882
4537,863,885
4538,862,888
4539,862,894
4540,867,900
4541,868,896
4542,871,900
4543,874,892
4544,875,892
4545,876,886
4546,875,885
4547,876,882
4548,876,883
4549,874,884
4550,876,883
4551,874,884
4552,876,885
4553,878,886
4554,881,886
4555,880,886
4556,877,883
4557,876,882
4558,877,881
4559,876,881
4560,875,883
4561,872,879
4562,875,875
4563,874,874
4564,872,866
4565,871,859
4566,868,849
4567,872,831
4568,882,809
4569,899,783
4570,925,753
4571,951,722
4572,975,695
4573,995,684
4574,1001,688
4575,1004,711
4576,1005,739
4577,1017,773
4578,1039,806
4579,1072,840
4580,1107,881
4581,1132,929
4582,1137,987
4583,1113,1042
4584,1059,1081
4585,981,1091
4586,898,1074
4587,824,1040
4588,773,994
4589,748,955
4590,732,932
4591,723,910
4592,711,898
4593,696,891
4594,685,878
4595,676,867
4596,669,855
4597,667,855
4598,663,850
4599,664,852
4600,666,855
4601,669,854
4602,669,854
4603,677,854
4604,683,852
4605,697,849
4606,710,845
4607,725,845
4608,752,850
4609,773,857
4610,795,866
4611,815,873
4612,830,888
4613,843,895
4614,848,897
4615,851,903
4616,850,900
4617,850,898
4618,852,894
4619,851,890
4620,854,889
4621,857,892
4622,856,892
4623,858,894
4624,856,894
4625,860,893
4626,861,893
4627,862,895
4628,860,889
4629,860,887
4630,860,884
4631,856,883
4632,855,885
4633,851,883
4634,848,880
4635,851,878
4636,852,879
4637,854,872
4638,856,874
4639,852,872
4640,856,868
4641,850,864
4642,847,860
4643,843,858
4644,842,853
4645,838,850
4646,835,848
4647,835,847
4648,828,845
4649,829,843
4650,831,841
4651,827,839
4652,830,833
4653,827,829
4654,824,824
4655,821,824
4656,819,825
4657,819,817
4658,818,816
4659,817,816
4660,815,817
4661,816,816
4662,815,820
4663,812,820
4664,815,819
4665,816,820
4666,815,812
4667,812,808
4668,811,807
4669,810,804
4670,812,803
4671,809,804
4672,810,806
4673,813,807
4674,819,810
4675,826,813
4676,829,812
4677,834,815
4678,837,818
4679,839,818
4680,840,817
4681,843,818
4682,844,821
4683,850,826
4684,857,828
4685,859,832
4686,862,837
4687,869,845
4688,871,846
4689,873,849
4690,875,850
4691,875,853
4692,876,854
4693,878,856
4694,878,858
4695,879,859
4696,881,866
4697,885,873
4698,887,876
4699,889,880
4700,891,880
4701,890,878
4702,890,873
4703,890,872
4704,890,870
4705,886,869
4706,886,871
4707,888,874
4708,891,879
4709,892,878
4710,893,884
4711,895,885
4712,896,887
4713,896,888
4714,895,884
4715,894,884
4716,889,882
4717,886,883
4718,882,886
4719,886,884
4720,889,883
4721,892,883
4722,894,889
4723,895,888
4724,894,890
4725,892,884
4726,885,886
4727,886,884
4728,883,882
4729,882,879
4730,879,878
4731,875,879
4732,877,881
4733,880,884
4734,880,882
4735,879,885
4736,884,886
4737,883,887
4738,884,888
4739,881,888
4740,881,887
4741,877,884
4742,875,879
4743,878,882
4744,878,881
4745,882,884
4746,884,890
4747,886,888
4748,888,892
4749,890,895
4750,888,888
4751,886,887
4752,882,888
4753,876,887
4754,875,889
4755,877,886
4756,879,886
4757,883,888
4758,883,887
4759,887,884
4760,888,881
4761,889,880
4762,889,880
4763,886,883
4764,884,887
4765,882,888
4766,879,886
4767,883,888
4768,884,892
4769,885,891
4770,884,890
4771,885,891
4772,884,890
4773,883,885
4774,883,884
4775,882,883
4776,878,875
4777,880,877
4778,878,876
4779,879,881
4780,879,886
4781,883,890
4782,886,896
4783,889,897
4784,891,895
4785,888,891
4786,888,888
4787,886,881
4788,886,879
4789,885,883
4790,885,885
4791,886,887
4792,886,894
4793,892,892
4794,894,892
4795,898,893
4796,900,892
4797,900,886
4798,901,885
4799,901,881
4800,900,879
4801,898,881
4802,897,878
4803,897,881
4804,901,885
4805,907,883
4806,918,887
4807,924,887
4808,930,892
4809,927,896
4810,923,901
4811,917,902
4812,915,898
4813,907,894
4814,901,891
4815,897,892
4816,900,897
4817,909,904
4818,912,916
4819,919,928
4820,925,941
4821,923,952
4822,923,963
4823,921,965
4824,922,960
4825,919,943
4826,912,922
4827,906,898
4828,901,885
4829,893,876
4830,892,884
4831,888,902
4832,883,923
4833,883,929
4834,878,918
4835,875,901
4836,875,881
4837,869,875
4838,867,871
4839,864,872
4840,862,877
4841,868,882
4842,870,887
4843,871,891
4844,873,890
4845,871,889
4846,873,888
4847,874,889
4848,874,892
4849,876,890
4850,878,889
4851,874,894
4852,873,897
4853,874,897
4854,875,897
4855,876,898
4856,871,896
4857,870,888
4858,872,886
4859,869,886
4860,866,885
4861,864,886
4862,865,881
4863,868,883
4864,872,880
4865,874,877
4866,872,873
4867,872,866
4868,871,855
4869,878,840
4870,882,822
4871,896,799
4872,917,775
4873,941,753
4874,970,731
4875,997,713
4876,1015,711
4877,1022,724
4878,1016,743
4879,1014,773
4880,1019,799
4881,1035,820
4882,1057,848
4883,1086,876
4884,1110,919
4885,1122,977
4886,1108,1033
4887,1065,1077
4888,992,1099
4889,909,1084
4890,830,1046
4891,768,993
4892,732,944
4893,714,905
4894,702,885
4895,691,873
4896,684,862
4897,676,850
4898,672,843
4899,664,838
4900,659,835
4901,661,840
4902,659,840
4903,661,843
4904,662,844
4905,665,844
4906,670,843
4907,675,841
4908,687,834
4909,701,833
4910,726,830
4911,757,841
4912,786,856
4913,819,869
4914,842,884
4915,855,889
4916,860,893
4917,858,890
4918,853,890
4919,852,886
4920,851,888
4921,850,887
4922,852,887
4923,853,888
4924,858,895
4925,862,895
4926,863,894
4927,863,894
4928,864,896
4929,863,892
4930,865,883
4931,864,883
4932,862,877
4933,859,880
4934,855,873
4935,855,874
4936,859,878
4937,858,874
4938,856,873
4939,855,872
4940,851,867
4941,847,862
4942,846,856
4943,847,856
4944,845,849
4945,840,849
4946,839,845
4947,837,844
4948,833,843
4949,834,840
4950,835,838
4951,832,839
4952,832,834
4953,829,833
4954,827,829
4955,824,822
4956,818,823
4957,815,817
4958,815,812
4959,814,814
4960,808,813
4961,813,812
4962,812,811
4963,813,811
4964,815,815
4965,809,813
4966,812,816
4967,810,809
4968,808,803
4969,806,803
4970,808,801
4971,807,800
4972,808,804
4973,808,810
4974,811,812
4975,812,814
4976,817,808
4977,817,806
4978,821,804
4979,819,807
4980,819,808
4981,825,814
4982,830,810
4983,833,813
4984,834,814
4985,835,820
4986,843,828
4987,843,836
4988,850,842
4989,853,850
4990,857,855
4991,861,851
4992,862,846
4993,858,839
4994,861,834
4995,859,835
4996,863,844
4997,863,850
4998,865,854
4999,867,860
5000,869,862
5001,870,862
5002,872,862
5003,871,861
5004,874,862
5005,871,865
5006,872,869
5007,872,872
5008,877,879
5009,877,883
5010,877,886
5011,878,885
5012,879,883
5013,878,883
5014,879,881
5015,877,880
5016,874,880
5017,874,881
5018,868,880
5019,872,884
5020,874,890
5021,872,892
5022,876,892
5023,878,895
5024,883,889
5025,881,887
5026,880,887
5027,874,884
5028,870,886
5029,867,883
5030,867,878
5031,868,879
5032,869,883
5033,872,887
5034,875,889
5035,877,893
5036,878,892
5037,876,889
5038,875,889
5039,869,885
5040,866,885
5041,863,884
5042,860,881
5043,863,876
5044,867,876
5045,869,873
5046,871,875
5047,864,882
5048,865,884
5049,865,880
5050,865,881
5051,864,878
5052,865,877
5053,863,875
5054,863,877
5055,865,877
5056,864,879
5057,864,881
5058,867,883
5059,870,885
5060,872,879
5061,871,881
5062,871,879
5063,870,879
5064,866,880
5065,865,880
5066,866,879
5067,868,880
5068,874,884
5069,873,885
5070,877,888
5071,875,888
5072,878,885
5073,878,885
5074,877,883
5075,873,885
5076,875,880
5077,870,879
5078,868,878
5079,874,880
5080,874,885
5081,877,890
5082,877,890
5083,877,886
5084,879,877
5085,879,876
5086,877,878
5087,878,876
5088,880,875
5089,878,873
5090,881,874
5091,888,871
5092,889,872
5093,893,873
5094,898,873
5095,898,876
5096,899,872
5097,896,870
5098,901,870
5099,900,873
5100,903,876
5101,898,880
5102,902,888
5103,900,889
5104,899,889
5105,899,889
5106,898,888
5107,896,885
5108,898,885
5109,901,892
5110,908,896
5111,910,900
5112,910,902
5113,902,900
5114,896,897
5115,889,900
5116,885,901
5117,884,900
5118,882,899
5119,882,892
5120,883,888
5121,880,886
5122,877,883
5123,871,884
5124,863,886
5125,859,885
5126,856,889
5127,852,883
5128,851,884
5129,855,892
5130,858,899
5131,864,896
5132,867,882
5133,865,868
5134,865,864
5135,862,859
5136,856,866
5137,850,875
5138,849,880
5139,843,880
5140,842,883
5141,843,883
5142,848,890
5143,856,901
5144,859,905
5145,865,898
5146,866,887
5147,863,877
5148,860,864
5149,857,852
5150,857,843
5151,856,844
5152,860,854
5153,862,861
5154,861,866
5155,855,860
5156,847,847
5157,843,827
5158,844,802
5159,858,769
5160,882,733
5161,906,697
5162,934,670
5163,960,657
5164,970,667
5165,970,691
5166,966,733
5167,966,773
5168,977,791
5169,1008,802
5170,1044,822
5171,1088,863
5172,1115,923
5173,1116,994
5174,1083,1048
5175,1020,1080
5176,938,1073
5177,857,1040
5178,790,993
5179,751,957
5180,726,927
5181,710,914
5182,698,899
5183,683,886
5184,669,877
5185,658,867
5186,648,855
5187,644,845
5188,645,842
5189,652,847
5190,658,851
5191,663,857
5192,666,856
5193,669,852
5194,676,845
5195,686,839
5196,701,833
5197,716,835
5198,737,843
5199,756,864
5200,789,891
5201,814,910
5202,832,911
5203,839,896
5204,842,880
5205,844,870
5206,845,868
5207,847,874
5208,849,881
5209,850,884
5210,853,885
5211,848,884
5212,848,887
5213,846,888
5214,850,892
5215,850,897
5216,851,895
5217,852,891
5218,850,883
5219,841,873
5220,840,875
5221,842,878
5222,840,881
5223,846,887
5224,848,886
5225,848,882
5226,850,879
5227,849,875
5228,848,872
5229,846,870
5230,841,868
5231,834,871
5232,829,868
5233,826,860
5234,825,846
5235,823,838
5236,824,835
5237,821,836
5238,818,842
5239,818,844
5240,821,847
5241,822,843
5242,822,839
5243,819,831
5244,812,830
5245,809,826
5246,805,824
5247,802,825
5248,802,825
5249,803,824
5250,808,818
5251,811,817
5252,815,811
5253,811,810
5254,809,816
5255,803,812
5256,799,816
5257,792,819
5258,793,824
5259,794,820
5260,800,809
5261,802,800
5262,803,795
5263,803,803
5264,804,811
5265,805,821
5266,812,821
5267,814,816
5268,820,812
5269,821,807
5270,824,807
5271,819,814
5272,818,823
5273,817,828
5274,826,834
5275,834,843
5276,843,847
5277,849,850
5278,851,845
5279,850,838
5280,850,833
5281,850,832
5282,848,837
5283,845,847
5284,846,859
5285,847,868
5286,853,876
5287,855,874
5288,862,870
5289,865,867
5290,872,867
5291,871,868
5292,868,868
5293,869,871
5294,866,871
5295,866,875
5296,862,875
5297,865,879
5298,867,881
5299,873,885
5300,877,888
5301,875,888
5302,875,881
5303,869,875
5304,865,874
5305,863,872
5306,859,873
5307,860,872
5308,860,874
5309,862,877
5310,865,881
5311,866,886
5312,862,885
5313,867,885
5314,870,881
5315,872,875
5316,868,866
5317,861,866
5318,860,870
5319,856,879
5320,856,887
5321,852,886
5322,854,891
5323,855,886
5324,856,885
5325,856,886
5326,853,889
5327,852,881
5328,851,879
5329,850,883
5330,848,885
5331,848,884
5332,847,876
5333,851,870
5334,854,867
5335,859,868
5336,859,864
5337,862,860
5338,860,862
5339,858,861
5340,856,865
5341,853,865
5342,848,868
5343,851,868
5344,851,876
5345,850,883
5346,859,884
5347,861,883
5348,863,877
5349,862,875
5350,857,874
5351,854,874
5352,851,880
5353,850,882
5354,851,880
5355,855,879
5356,856,875
5357,858,870
5358,860,873
5359,863,877
5360,868,877
5361,869,879
5362,870,876
5363,866,872
5364,860,871
5365,858,874
5366,852,876
5367,852,880
5368,855,886
5369,856,888
5370,862,886
5371,863,879
5372,864,870
5373,866,867
5374,864,865
5375,865,870
5376,866,870
5377,869,869
5378,869,870
5379,873,867
5380,874,869
5381,879,869
5382,884,864
5383,891,863
5384,890,865
5385,889,866
5386,891,867
5387,890,874
5388,892,878
5389,893,880
5390,895,884
5391,897,889
5392,900,887
5393,898,885
5394,896,887
5395,893,884
5396,885,881
5397,877,882
5398,877,888
5399,876,892
5400,880,895
5401,884,902
5402,886,911
5403,888,920
5404,887,924
5405,889,918
5406,886,901
5407,883,885
5408,881,875
5409,874,875
5410,869,878
5411,866,883
5412,865,888
5413,860,884
5414,856,883
5415,848,883
5416,847,883
5417,844,878
5418,846,874
5419,843,876
5420,844,881
5421,843,883
5422,845,881
5423,848,874
5424,845,866
5425,846,863
5426,845,863
5427,844,865
5428,844,868
5429,843,867
5430,841,867
5431,838,878
5432,838,885
5433,837,882
5434,839,874
5435,841,869
5436,843,864
5437,843,863
5438,839,865
5439,838,866
5440,837,868
5441,840,868
5442,844,873
5443,851,874
5444,850,868
5445,844,866
5446,839,861
5447,829,856
5448,823,847
5449,821,831
5450,826,814
5451,833,795
5452,851,774
5453,872,746
5454,899,713
5455,924,689
5456,942,666
5457,951,658
5458,950,665
5459,943,691
5460,941,731
5461,957,775
5462,985,814
5463,1024,846
5464,1067,881
5465,1099,930
5466,1108,982
5467,1085,1030
5468,1025,1062
5469,937,1072
5470,845,1049
5471,766,1012
5472,714,964
5473,686,921
5474,665,894
5475,653,877
5476,646,867
5477,638,861
5478,629,851
5479,625,845
5480,626,842
5481,625,833
5482,628,836
5483,631,836
5484,633,836
5485,630,838
5486,630,834
5487,633,833
5488,643,833
5489,659,835
5490,686,837
5491,715,848
5492,748,857
5493,770,866
5494,792,877
5495,806,882
5496,813,886
5497,817,882
5498,819,881
5499,819,875
5500,819,878
5501,823,883
5502,825,887
5503,828,892
5504,831,894
5505,836,893
5506,834,892
5507,829,890
5508,829,887
5509,828,888
5510,826,884
5511,822,884
5512,821,882
5513,828,882
5514,830,883
5515,831,883
5516,831,882
5517,832,879
5518,831,877
5519,825,867
5520,821,864
5521,818,863
5522,813,862
5523,811,858
5524,814,858
5525,811,858
5526,810,858
5527,814,853
5528,812,853
5529,811,851
5530,808,843
5531,805,840
5532,802,836
5533,798,832
5534,795,829
5535,792,828
5536,792,829
5537,787,828
5538,788,828
5539,787,829
5540,786,829
5541,790,825
5542,790,823
5543,786,818
5544,783,819
5545,780,819
5546,777,814
5547,777,812
5548,774,813
5549,774,813
5550,779,813
5551,781,816
5552,785,817
5553,785,815
5554,785,816
5555,785,812
5556,786,810
5557,786,811
5558,789,816
5559,788,817
5560,790,820
5561,792,820
5562,799,824
5563,802,825
5564,803,825
5565,810,828
5566,811,829
5567,811,831
5568,814,834
5569,816,835
5570,822,838
5571,827,842
5572,827,843
5573,831,849
5574,833,854
5575,835,857
5576,837,857
5577,837,862
5578,841,860
5579,843,861
5580,840,860
5581,841,869
5582,842,867
5583,839,869
5584,841,873
5585,844,874
5586,845,879
5587,846,880
5588,852,876
5589,853,879
5590,849,877
5591,847,878
5592,843,879
5593,840,881
5594,839,881
5595,839,879
5596,841,881
5597,844,879
5598,845,883
5599,847,882
5600,841,883
5601,841,878
5602,841,881
5603,842,878
5604,843,876
5605,840,882
5606,838,880
5607,833,884
5608,835,888
5609,837,890
5610,838,889
5611,840,893
5612,839,889
5613,840,886
5614,842,883
5615,842,879
5616,836,881
5617,835,879
5618,836,881
5619,834,884
5620,835,888
5621,837,882
5622,836,887
5623,837,885
5624,842,888
5625,840,886
5626,841,886
5627,837,886
5628,838,884
5629,832,878
5630,831,878
5631,830,879
5632,829,881
5633,832,879
5634,838,885
5635,838,885
5636,837,885
5637,841,882
5638,837,884
5639,841,876
5640,836,870
5641,840,873
5642,840,872
5643,839,876
5644,837,881
5645,839,886
5646,842,890
5647,843,891
5648,848,888
5649,855,883
5650,858,883
5651,859,880
5652,857,878
5653,854,874
5654,848,873
5655,843,874
5656,844,876
5657,843,876
5658,847,879
5659,849,884
5660,849,883
5661,848,886
5662,846,886
5663,841,888
5664,834,885
5665,830,887
5666,829,886
5667,828,888
5668,831,893
5669,832,893
5670,834,893
5671,835,898
5672,838,898
5673,838,898
5674,836,897
5675,835,899
5676,834,895
5677,836,894
5678,834,886
5679,836,891
5680,836,891
5681,841,891
5682,845,893
5683,847,896
5684,853,896
5685,860,896
5686,867,899
5687,872,900
5688,872,901
5689,874,908
5690,873,910
5691,869,914
5692,865,913
5693,864,911
5694,860,909
5695,858,903
5696,859,905
5697,861,906
5698,863,909
5699,864,912
5700,868,917
5701,867,924
5702,868,927
5703,864,930
5704,863,933
5705,857,929
5706,856,923
5707,850,917
5708,842,910
5709,837,903
5710,832,908
5711,833,901
5712,830,903
5713,828,902
5714,824,901
5715,822,903
5716,821,899
5717,820,901
5718,821,898
5719,824,899
5720,823,898
5721,824,897
5722,822,898
5723,824,898
5724,820,895
5725,818,895
5726,816,895
5727,817,896
5728,817,896
5729,820,897
5730,820,899
5731,821,901
5732,821,900
5733,819,902
5734,813,901
5735,816,897
5736,814,894
5737,816,893
5738,816,893
5739,816,896
5740,817,900
5741,820,900
5742,821,904
5743,821,904
5744,820,901
5745,819,892
5746,814,881
5747,810,867
5748,809,856
5749,809,841
5750,821,819
5751,839,797
5752,865,776
5753,894,753
5754,925,730
5755,950,718
5756,968,718
5757,965,734
5758,960,758
5759,959,784
5760,965,810
5761,987,840
5762,1018,880
5763,1045,936
5764,1055,998
5765,1035,1054
5766,974,1088
5767,887,1088
5768,793,1051
5769,712,997
5770,652,944
5771,620,906
5772,604,877
5773,597,868
5774,595,862
5775,588,857
5776,586,855
5777,581,850
5778,581,846
5779,585,845
5780,586,848
5781,587,850
5782,588,851
5783,590,850
5784,595,850
5785,599,845
5786,614,845
5787,630,845
5788,652,849
5789,682,862
5790,712,875
5791,738,890
5792,761,902
5793,774,906
5794,785,911
5795,789,910
5796,788,911
5797,790,910
5798,789,909
5799,789,915
5800,794,917
5801,797,916
5802,802,916
5803,806,917
5804,808,916
5805,807,913
5806,806,912
5807,802,908
5808,800,906
5809,798,897
5810,798,897
5811,797,902
5812,796,900
5813,797,903
5814,799,904
5815,801,904
5816,802,901
5817,799,898
5818,798,895
5819,793,893
5820,792,883
5821,788,879
5822,783,874
5823,782,876
5824,776,878
5825,776,876
5826,782,875
5827,781,869
5828,782,867
5829,781,866
5830,778,860
5831,772,855
5832,768,852
5833,765,850
5834,759,852
5835,757,851
5836,758,854
5837,756,852
5838,755,845
5839,754,848
5840,761,844
5841,759,843
5842,757,839
5843,758,841
5844,758,838
5845,759,839
5846,756,835
5847,756,837
5848,755,838
5849,755,842
5850,755,840
5851,756,838
5852,762,842
5853,765,840
5854,766,838
5855,770,838
5856,767,837
5857,769,837
5858,766,836
5859,771,839
5860,775,843
5861,783,844
5862,789,847
5863,793,855
5864,797,858
5865,800,858
5866,802,862
5867,803,868
5868,805,869
5869,806,872
5870,805,873
5871,807,878
5872,806,878
5873,811,881
5874,814,885
5875,821,892
5876,821,894
5877,822,899
5878,822,899
5879,820,898
5880,820,897
5881,817,900
5882,820,897
5883,820,898
5884,822,900
5885,821,900
5886,822,905
5887,823,905
5888,826,907
5889,827,906
5890,824,908
5891,824,907
5892,826,908
5893,823,904
5894,823,905
5895,820,910
5896,819,910
5897,819,910
5898,821,916
5899,821,914
5900,824,915
5901,824,916
5902,821,912
5903,818,913
5904,814,907
5905,809,906
5906,812,906
5907,813,904
5908,816,905
5909,820,909
5910,820,909
5911,822,911
5912,819,911
5913,817,915
5914,815,912
5915,815,908
5916,812,906
5917,815,902
5918,816,899
5919,815,896
5920,816,897
5921,818,901
5922,818,906
5923,817,905
5924,819,911
5925,816,909
5926,818,906
5927,815,908
5928,814,903
5929,812,904
5930,808,903
5931,808,903
5932,811,903
5933,815,902
5934,816,905
5935,819,905
5936,821,905
5937,818,904
5938,817,900
5939,813,898
5940,812,898
5941,814,899
5942,815,902
5943,814,906
5944,812,903
5945,812,906
5946,813,905
5947,815,907
5948,819,908
5949,819,908
5950,819,905
5951,821,903
5952,822,904
5953,818,905
5954,815,905
5955,813,907
5956,812,905
5957,811,912
5958,813,911
5959,820,914
5960,819,912
5961,819,914
5962,821,914
5963,818,910
5964,817,908
5965,814,902
5966,815,900
5967,814,902
5968,814,903
5969,816,903
5970,821,906
5971,823,909
5972,829,909
5973,828,905
5974,828,902
5975,830,895
5976,828,889
5977,828,884
5978,829,883
5979,830,880
5980,830,886
5981,832,890
5982,841,899
5983,847,908
5984,852,916
5985,858,916
5986,859,920
5987,858,915
5988,849,914
5989,842,910
5990,836,905
5991,829,907
5992,825,914
5993,826,920
5994,836,923
5995,842,924
5996,848,927
5997,854,923
5998,857,926
5999,858,923
6000,851,923
6001,839,919
6002,833,914
6003,822,915
6004,816,918
6005,814,917
6006,814,919
6007,816,918
6008,817,916
6009,817,913
6010,815,912
6011,813,912
6012,809,911
6013,806,909
6014,805,912
6015,804,910
6016,801,908
6017,803,908
6018,802,909
6019,802,908
6020,803,907
6021,803,904
6022,803,905
6023,799,901
6024,802,903
6025,799,898
6026,803,899
6027,802,897
6028,802,904
6029,801,902
6030,802,909
6031,801,907
6032,806,906
6033,807,904
6034,805,901
6035,804,897
6036,804,897
6037,801,896
6038,800,893
6039,800,893
6040,797,891
6041,798,887
6042,799,878
6043,798,870
6044,802,850
6045,804,828
6046,816,807
6047,835,780
6048,862,758
6049,890,737
6050,921,721
6051,938,723
6052,941,734
6053,945,763
6054,943,791
6055,956,820
6056,982,853
6057,1008,890
6058,1033,944
6059,1047,1005
6060,1032,1068
6061,986,1106
6062,908,1109
6063,814,1083
6064,728,1035
6065,680,984
6066,648,942
6067,639,912
6068,638,897
6069,634,888
6070,625,880
6071,616,877
6072,610,877
6073,608,872
6074,600,869
6075,584,874
6076,566,874
6077,562,874
6078,569,870
6079,585,861
6080,609,848
6081,628,838
6082,652,839
6083,678,843
6084,697,850
6085,713,864
6086,722,879
6087,738,894
6088,761,907
6089,776,910
6090,788,920
6091,790,910
6092,791,906
6093,785,903
6094,777,898
6095,775,894
6096,776,895
6097,779,897
6098,785,901
6099,786,911
6100,783,916
6101,770,917
6102,766,919
6103,770,915
6104,784,906
6105,792,900
6106,797,893
6107,795,889
6108,795,888
6109,790,890
6110,787,894
6111,786,893
6112,775,888
6113,771,888
6114,773,880
6115,781,878
6116,789,874
6117,791,871
6118,788,870
6119,772,872
6120,755,870
6121,743,865
6122,743,868
6123,746,858
6124,751,855
6125,757,850
6126,763,846
6127,766,844
6128,772,842
6129,771,839
6130,761,837
6131,748,836
6132,733,834
6133,724,835
6134,732,830
6135,739,832
6136,748,830
6137,750,826
6138,746,830
6139,731,830
6140,716,832
6141,706,829
6142,710,822
6143,724,822
6144,744,819
6145,756,819
6146,758,822
6147,749,825
6148,740,828
6149,740,831
6150,746,828
6151,758,829
6152,774,828
6153,786,833
6154,784,836
6155,778,837
6156,760,839
6157,750,841
6158,753,843
6159,758,848
6160,771,848
6161,781,855
6162,784,857
6163,784,863
6164,785,867
6165,793,864
6166,793,870
6167,791,875
6168,785,875
6169,774,880
6170,770,870
6171,763,868
6172,770,864
6173,779,867
6174,796,872
6175,808,874
6176,826,886
6177,837,895
6178,842,903
6179,842,905
6180,828,903
6181,805,899
6182,784,894
6183,780,890
6184,786,891
6185,800,892
6186,816,896
6187,825,901
6188,832,899
6189,825,902
6190,811,899
6191,796,895
6192,785,893
6193,782,895
6194,790,890
6195,803,890
6196,814,892
6197,819,896
6198,822,897
6199,817,900
6200,813,896
6201,804,895
6202,790,895
6203,779,894
6204,769,896
6205,776,902
6206,786,904
6207,794,904
6208,795,906
6209,786,910
6210,783,910
6211,786,906
6212,797,894
6213,802,884
6214,799,870
6215,798,874
6216,794,881
6217,786,889
6218,783,901
6219,780,908
6220,786,910
6221,795,911
6222,797,909
6223,793,911
6224,787,908
6225,780,907
6226,778,907
6227,782,906
6228,785,904
6229,789,898
6230,790,892
6231,793,888
6232,794,892
6233,791,896
6234,789,900
6235,783,902
6236,785,905
6237,788,899
6238,793,891
6239,794,887
6240,794,889
6241,792,897
6242,790,901
6243,793,908
6244,795,911
6245,801,909
6246,805,906
6247,806,905
6248,802,902
6249,790,899
6250,786,898
6251,788,895
6252,790,891
6253,797,891
6254,803,889
6255,806,893
6256,807,902
6257,800,909
6258,798,909
6259,797,907
6260,799,904
6261,803,896
6262,812,888
6263,815,888
6264,812,888
6265,809,888
6266,800,886
6267,798,879
6268,802,880
6269,806,879
6270,809,881
6271,812,884
6272,815,893
6273,820,899
6274,826,899
6275,829,906
6276,823,909
6277,820,909
6278,812,906
6279,805,904
6280,807,901
6281,807,897
6282,806,898
6283,807,901
6284,809,908
6285,813,913
6286,816,917
6287,819,921
6288,819,922
6289,820,919
6290,821,920
6291,813,918
6292,809,915
6293,800,915
6294,795,911
6295,792,909
6296,789,912
6297,788,913
6298,789,909
6299,787,909
6300,781,902
6301,773,894
6302,767,889
6303,765,888
6304,766,890
6305,769,895
6306,774,894
6307,775,898
6308,771,898
6309,766,899
6310,759,902
6311,756,897
6312,756,894
6313,764,892
6314,768,888
6315,770,892
6316,772,895
6317,768,897
6318,762,896
6319,755,899
6320,755,898
6321,758,899
6322,761,899
6323,763,892
6324,765,888
6325,764,886
6326,762,887
6327,757,888
6328,761,895
6329,762,894
6330,762,889
6331,763,891
6332,767,888
6333,767,883
6334,762,882
6335,759,873
6336,754,861
6337,751,844
6338,765,826
6339,778,806
6340,801,778
6341,829,747
6342,862,726
6343,888,715
6344,908,720
6345,913,743
6346,914,771
6347,912,800
6348,917,825
6349,933,846
6350,962,874
6351,990,928
6352,1006,995
6353,1003,1061
6354,972,1107
6355,920,1131
6356,849,1113
6357,773,1071
6358,707,1018
6359,653,965
6360,620,926
6361,603,908
6362,595,897
6363,587,890
6364,581,889
6365,572,877
6366,566,874
6367,559,870
6368,553,864
6369,550,862
6370,553,855
6371,553,848
6372,557,844
6373,553,842
6374,554,839
6375,556,839
6376,570,837
6377,590,836
6378,617,840
6379,647,851
6380,681,860
6381,702,875
6382,717,883
6383,721,888
6384,721,889
6385,715,888
6386,712,881
6387,711,882
6388,716,881
6389,719,885
6390,727,897
6391,728,905
6392,731,907
6393,732,903
6394,728,895
6395,727,893
6396,725,889
6397,723,887
6398,721,886
6399,722,885
6400,722,884
6401,729,884
6402,730,878
6403,731,878
6404,732,876
6405,734,874
6406,735,872
6407,738,868
6408,737,862
6409,732,857
6410,722,854
6411,709,855
6412,700,854
6413,699,853
6414,704,852
6415,712,853
6416,718,848
6417,718,840
6418,710,836
6419,706,831
6420,697,829
6421,692,820
6422,694,822
6423,692,823
6424,691,819
6425,693,816
6426,689,816
6427,689,819
6428,687,822
6429,684,820
6430,685,820
6431,684,816
6432,686,811
6433,686,804
6434,683,801
6435,679,800
6436,679,803
6437,683,807
6438,687,810
6439,694,807
6440,692,805
6441,689,802
6442,688,801
6443,689,801
6444,687,802
6445,688,803
6446,686,806
6447,687,808
6448,685,811
6449,685,814
6450,694,820
6451,704,824
6452,716,826
6453,720,827
6454,719,828
6455,711,823
6456,704,822
6457,700,825
6458,703,834
6459,710,842
6460,719,850
6461,728,853
6462,730,853
6463,733,856
6464,728,855
6465,729,856
6466,727,859
6467,727,857
6468,728,860
6469,733,858
6470,739,859
6471,746,862
6472,749,867
6473,749,871
6474,748,871
6475,744,877
6476,744,879
6477,741,874
6478,743,876
6479,750,875
6480,743,875
6481,743,874
6482,740,877
6483,739,879
6484,740,879
6485,743,877
6486,750,877
6487,755,881
6488,758,884
6489,755,880
6490,749,883
6491,743,886
6492,746,881
6493,745,882
6494,743,882
6495,744,879
6496,742,883
6497,736,883
6498,732,886
6499,731,887
6500,735,888
6501,747,886
6502,749,883
6503,752,881
6504,751,879
6505,751,875
6506,747,878
6507,741,882
6508,736,880
6509,735,882
6510,737,885
6511,742,883
6512,747,889
6513,745,886
6514,745,884
6515,742,878
6516,741,879
6517,740,876
6518,736,873
6519,738,875
6520,739,875
6521,746,878
6522,750,879
6523,751,885
6524,747,888
6525,747,891
6526,742,891
6527,741,888
6528,743,884
6529,745,880
6530,748,876
6531,746,877
6532,746,877
6533,747,883
6534,748,882
6535,748,887
6536,746,888
6537,743,879
6538,741,876
6539,739,874
6540,739,875
6541,737,878
6542,737,888
6543,740,890
6544,746,890
6545,751,888
6546,753,888
6547,752,885
6548,756,883
6549,756,880
6550,754,879
6551,753,881
6552,749,887
6553,745,887
6554,746,889
6555,741,887
6556,746,891
6557,751,885
6558,760,883
6559,766,886
6560,770,886
6561,774,882
6562,771,879
6563,765,876
6564,761,867
6565,764,869
6566,765,873
6567,764,875
6568,771,883
6569,778,887
6570,784,890
6571,785,894
6572,784,894
6573,787,894
6574,786,889
6575,783,893
6576,777,892
6577,776,888
6578,775,888
6579,777,886
6580,780,886
6581,781,890
6582,787,897
6583,792,905
6584,799,912
6585,800,919
6586,800,920
6587,793,916
6588,783,907
6589,772,901
6590,762,893
6591,757,886
6592,760,884
6593,767,888
6594,769,888
6595,769,890
6596,771,892
6597,763,893
6598,754,890
6599,747,888
6600,740,879
6601,737,875
6602,736,876
6603,744,879
6604,751,882
6605,756,882
6606,755,884
6607,753,886
6608,752,886
6609,749,887
6610,755,886
6611,761,883
6612,763,883
6613,760,882
6614,758,882
6615,756,878
6616,755,878
6617,753,882
6618,752,879
6619,756,883
6620,758,879
6621,759,881
6622,762,873
6623,765,869
6624,761,870
6625,756,873
6626,750,869
6627,745,871
6628,740,863
6629,740,852
6630,746,833
6631,762,810
6632,789,783
6633,822,757
6634,851,734
6635,874,716
6636,903,702
6637,917,708
6638,922,720
6639,916,745
6640,911,770
6641,914,799
6642,932,837
6643,960,883
6644,991,937
6645,1020,1000
6646,1020,1061
6647,991,1101
6648,936,1115
6649,856,1098
6650,770,1052
6651,697,1002
6652,649,954
6653,626,924
6654,618,905
6655,614,896
6656,604,889
6657,590,876
6658,577,863
6659,564,847
6660,560,835
6661,561,830
6662,558,832
6663,557,839
6664,552,843
6665,553,844
6666,555,845
6667,560,842
6668,574,839
6669,590,835
6670,616,839
6671,634,838
6672,660,841
6673,686,851
6674,707,863
6675,721,875
6676,735,884
6677,740,887
6678,741,893
6679,739,892
6680,741,893
6681,748,891
6682,757,887
6683,767,878
6684,769,876
6685,766,875
6686,762,875
6687,759,882
6688,753,888
6689,756,894
6690,757,894
6691,758,891
6692,759,884
6693,755,878
6694,757,871
6695,760,860
6696,761,857
6697,762,855
6698,763,855
6699,761,854
6700,764,855
6701,757,860
6702,752,860
6703,746,858
6704,745,854
6705,748,852
6706,746,847
6707,741,838
6708,739,833
6709,737,833
6710,734,828
6711,733,823
6712,731,820
6713,730,819
6714,733,817
6715,732,820
6716,732,823
6717,727,821
6718,722,817
6719,721,815
6720,718,812
6721,720,804
6722,728,802
6723,732,801
6724,731,805
6725,734,803
6726,730,805
6727,725,806
6728,722,808
6729,720,804
6730,720,804
6731,724,802
6732,726,800
6733,726,797
6734,725,795
6735,728,796
6736,725,798
6737,732,798
6738,736,803
6739,738,805
6740,739,810
6741,747,814
6742,750,816
6743,751,818
6744,747,821
6745,748,823
6746,753,824
6747,757,826
6748,762,822
6749,773,833
6750,779,836
6751,776,839
6752,779,845
6753,779,846
6754,781,850
6755,784,851
6756,786,850
6757,789,851
6758,788,853
6759,789,856
6760,789,851
6761,791,859
6762,792,863
6763,796,869
6764,797,873
6765,792,876
6766,796,879
6767,798,877
6768,802,872
6769,803,868
6770,800,871
6771,798,866
6772,794,873
6773,794,876
6774,796,880
6775,799,882
6776,801,886
6777,800,886
6778,802,884
6779,801,882
6780,801,882
6781,802,883
6782,799,880
6783,797,883
6784,794,883
6785,795,887
6786,800,884
6787,798,886
6788,806,887
6789,809,885
6790,808,881
6791,804,881
6792,801,880
6793,793,879
6794,790,879
6795,789,877
6796,793,881
6797,793,882
6798,798,884
6799,795,883
6800,796,883
6801,799,880
6802,797,877
6803,794,875
6804,794,875
6805,794,871
6806,792,876
6807,793,876
6808,793,879
6809,793,881
6810,796,878
6811,796,880
6812,798,880
6813,802,882
6814,800,880
6815,800,879
6816,799,878
6817,798,878
6818,799,874
6819,795,876
6820,795,873
6821,797,881
6822,800,880
6823,803,880
6824,805,881
6825,808,883
6826,810,878
6827,807,878
6828,805,877
6829,802,879
6830,800,882
6831,801,881
6832,799,884
6833,802,885
6834,802,888
6835,805,887
6836,805,888
6837,805,884
6838,803,884
6839,800,882
6840,801,878
6841,801,879
6842,805,880
6843,807,878
6844,808,877
6845,811,880
6846,816,882
6847,818,882
6848,823,883
6849,828,882
6850,827,876
6851,826,876
6852,823,877
6853,828,878
6854,830,884
6855,833,887
6856,837,894
6857,840,896
6858,844,902
6859,843,904
6860,839,907
6861,837,905
6862,834,904
6863,830,903
6864,824,900
6865,821,899
6866,821,902
6867,827,907
6868,833,916
6869,839,923
6870,842,928
6871,845,930
6872,842,928
6873,836,923
6874,832,913
6875,824,906
6876,818,900
6877,812,894
6878,804,890
6879,803,890
6880,799,895
6881,796,896
6882,799,898
6883,795,896
6884,799,900
6885,798,898
6886,795,897
6887,793,895
6888,792,889
6889,789,888
6890,792,888
6891,792,884
6892,790,884
6893,793,888
6894,792,890
6895,793,892
6896,796,894
6897,795,895
6898,795,891
6899,794,892
6900,791,889
6901,791,886
6902,790,887
6903,790,884
6904,791,887
6905,790,887
6906,795,887
6907,796,884
6908,799,893
6909,801,893
6910,798,892
6911,794,884
6912,788,875
6913,783,863
6914,782,851
6915,783,837
6916,793,818
6917,808,797
6918,832,779
6919,858,753
6920,894,733
6921,921,714
6922,942,712
6923,947,722
6924,943,743
6925,941,772
6926,947,801
6927,966,831
6928,995,877
6929,1031,933
6930,1053,1004
6931,1053,1073
6932,1027,1119
6933,956,1128
6934,869,1106
6935,780,1054
6936,712,996
6937,664,948
6938,642,918
6939,626,902
6940,614,891
6941,608,884
6942,604,878
6943,598,872
6944,596,869
6945,593,870
6946,590,868
6947,591,865
6948,585,865
6949,588,863
6950,588,862
6951,591,858
6952,601,851
6953,618,852
6954,639,857
6955,666,865
6956,697,876
6957,727,890
6958,747,898
6959,765,906
6960,773,907
6961,771,907
6962,771,904
6963,772,903
6964,773,904
6965,775,906
6966,780,910
6967,786,912
6968,791,912
6969,792,906
6970,789,905
6971,785,900
6972,783,901
6973,778,898
6974,775,897
6975,775,899
6976,776,898
6977,778,892
6978,783,895
6979,782,890
6980,785,893
6981,786,892
6982,784,888
6983,779,882
6984,777,875
6985,773,868
6986,766,868
6987,768,864
6988,768,865
6989,765,865
6990,766,863
6991,767,864
6992,769,864
6993,766,861
6994,765,855
6995,763,856
6996,760,851
6997,758,847
6998,752,840
6999,747,839
7000,748,836
7001,745,836
7002,747,837
7003,746,837
7004,746,840
7005,745,833
7006,747,828
7007,744,825
7008,744,822
7009,740,820
7010,738,818
7011,734,818
7012,738,817
7013,740,820
7014,744,822
7015,744,820
7016,746,824
7017,744,821
7018,747,820
7019,749,819
7020,746,822
7021,747,820
7022,752,822
7023,752,824
7024,753,829
7025,756,832
7026,761,837
7027,765,839
7028,771,846
7029,778,846
7030,777,848
7031,778,855
7032,777,852
7033,780,854
7034,784,856
7035,787,860
7036,788,863
7037,794,870
7038,798,876
7039,801,879
7040,805,883
7041,808,885
7042,812,885
7043,813,885
7044,810,886
7045,810,888
7046,808,891
7047,808,891
7048,807,893
7049,809,898
7050,812,896
7051,812,899
7052,812,902
7053,816,901
7054,816,902
7055,814,900
7056,813,898
7057,811,901
7058,809,898
7059,807,900
7060,812,903
7061,812,904
7062,811,907
7063,813,907
7064,816,907
7065,817,908
7066,819,905
7067,820,906
7068,812,903
7069,811,902
7070,807,901
7071,808,902
7072,805,900
7073,809,903
7074,813,904
7075,813,905
7076,817,909
7077,815,908
7078,814,909
7079,816,906
7080,814,900
7081,809,898
7082,809,900
7083,807,896
7084,805,898
7085,808,900
7086,807,906
7087,812,905
7088,814,907
7089,813,906
7090,813,902
7091,813,901
7092,813,902
7093,812,897
7094,810,897
7095,806,899
7096,803,898
7097,807,901
7098,810,902
7099,810,906
7100,816,908
7101,813,906
7102,814,901
7103,815,903
7104,812,899
7105,816,901
7106,811,899
7107,811,898
7108,812,899
7109,814,901
7110,813,908
7111,814,902
7112,819,906
7113,818,904
7114,819,903
7115,819,905
7116,817,900
7117,815,899
7118,814,902
7119,812,899
7120,812,901
7121,815,904
7122,820,904
7123,822,906
7124,824,904
7125,827,900
7126,825,901
7127,827,898
7128,831,895
7129,830,890
7130,831,884
7131,832,886
7132,830,886
7133,833,889
7134,831,892
7135,838,899
7136,843,897
7137,847,900
7138,851,898
7139,855,903
7140,855,905
7141,852,907
7142,847,909
7143,844,909
7144,841,907
7145,838,906
7146,839,906
7147,839,907
7148,843,910
7149,846,917
7150,851,920
7151,856,927
7152,857,932
7153,854,934
7154,850,933
7155,842,931
7156,835,922
7157,828,918
7158,827,911
7159,822,908
7160,822,910
7161,823,912
7162,821,912
7163,816,910
7164,814,906
7165,811,904
7166,806,901
7167,801,898
7168,802,898
7169,798,903
7170,805,904
7171,807,907
7172,806,908
7173,810,905
7174,809,905
7175,805,898
7176,804,898
7177,802,897
7178,800,898
7179,800,896
7180,802,897
7181,802,900
7182,803,898
7183,807,903
7184,810,905
7185,810,901
7186,808,900
7187,810,897
7188,808,894
7189,810,895
7190,807,892
7191,805,892
7192,807,889
7193,807,891
7194,807,890
7195,808,886
7196,807,883
7197,804,873
7198,802,862
7199,803,841
7200,805,822
7201,811,798
7202,826,775
7203,850,750
7204,883,727
7205,909,710
7206,936,705
7207,955,716
7208,957,736
7209,954,758
7210,952,784
7211,961,806
7212,978,833
7213,1004,863
7214,1041,910
7215,1071,976
7216,1085,1049
7217,1074,1107
7218,1033,1144
7219,968,1145
7220,892,1119
7221,817,1070
7222,760,1017
7223,720,977
7224,696,947
7225,679,934
7226,667,922
7227,653,914
7228,641,903
7229,631,893
7230,624,885
7231,617,883
7232,618,883
7233,615,880
7234,612,881
7235,608,878
7236,609,877
7237,608,871
7238,611,866
7239,617,859
7240,623,857
7241,640,858
7242,664,864
7243,690,872
7244,715,884
7245,743,896
7246,760,899
7247,773,907
7248,781,909
7249,782,910
7250,781,910
7251,780,907
7252,778,907
7253,781,907
7254,787,911
7255,790,913
7256,796,912
7257,798,913
7258,796,911
7259,793,908
7260,791,906
7261,787,903
7262,787,900
7263,785,896
7264,785,893
7265,788,896
7266,789,895
7267,789,896
7268,790,897
7269,792,898
7270,789,894
7271,786,887
7272,789,881
7273,786,876
7274,785,873
7275,781,873
7276,781,870
7277,779,872
7278,775,869
7279,772,866
7280,773,868
7281,772,862
7282,772,859
7283,770,853
7284,765,848
7285,763,843
7286,757,842
7287,759,837
7288,757,837
7289,754,837
7290,756,833
7291,755,834
7292,756,834
7293,754,830
7294,751,831
7295,751,827
7296,751,827
7297,751,823
7298,747,820
7299,744,818
7300,744,818
7301,745,821
7302,745,823
7303,746,820
7304,747,821
7305,749,819
7306,750,818
7307,746,818
7308,748,815
7309,748,815
7310,748,815
7311,749,816
7312,754,819
7313,759,821
7314,762,824
7315,767,828
7316,771,829
7317,774,833
7318,773,834
7319,776,839
7320,780,836
7321,780,837
7322,782,837
7323,784,841
7324,785,845
7325,787,854
7326,794,858
7327,800,864
7328,803,866
7329,808,869
7330,812,873
7331,814,871
7332,812,875
7333,812,875
7334,813,874
7335,814,877
7336,815,879
7337,817,881
7338,818,887
7339,817,889
7340,817,893
7341,822,892
7342,820,892
7343,822,892
7344,823,887
7345,818,888
7346,820,887
7347,819,887
7348,820,890
7349,820,890
7350,821,894
7351,821,897
7352,821,896
7353,824,897
7354,825,893
7355,821,893
7356,820,891
7357,819,891
7358,818,893
7359,816,892
7360,815,892
7361,818,894
7362,819,896
7363,822,893
7364,822,899
7365,823,897
7366,821,897
7367,818,897
7368,817,897
7369,815,891
7370,813,891
7371,808,892
7372,807,892
7373,808,893
7374,810,897
7375,811,896
7376,816,898
7377,811,900
7378,812,897
7379,809,895
7380,812,891
7381,812,890
7382,809,892
7383,807,891
7384,810,892
7385,810,893
7386,813,896
7387,808,897
7388,813,898
7389,815,897
7390,814,897
7391,813,893
7392,814,890
7393,813,887
7394,814,889
7395,812,887
7396,812,888
7397,810,888
7398,811,893
7399,813,891
7400,817,895
7401,820,893
7402,818,890
7403,814,887
7404,814,887
7405,814,885
7406,814,887
7407,814,889
7408,813,887
7409,816,888
7410,817,892
7411,817,890
7412,820,892
7413,822,892
7414,825,891
7415,827,888
7416,828,889
7417,827,884
7418,828,882
7419,829,880
7420,829,880
7421,834,879
7422,837,880
7423,837,882
7424,840,882
7425,843,881
7426,842,881
7427,844,880
7428,847,879
7429,850,878
7430,852,882
7431,853,884
7432,857,892
7433,856,898
7434,857,905
7435,858,903
7436,855,906
7437,852,902
7438,849,900
7439,845,897
7440,843,896
7441,844,897
7442,847,899
7443,850,904
7444,856,912
7445,856,920
7446,860,921
7447,857,923
7448,851,922
7449,847,911
7450,837,904
7451,831,898
7452,828,890
7453,824,890
7454,821,889
7455,819,886
7456,817,893
7457,812,894
7458,812,894
7459,812,894
7460,811,897
7461,812,891
7462,810,888
7463,811,889
7464,810,885
7465,807,881
7466,804,881
7467,805,881
7468,805,881
7469,807,883
7470,810,884
7471,811,887
7472,813,891
7473,813,888
7474,812,884
7475,811,884
7476,810,881
7477,807,883
7478,806,878
7479,808,878
7480,807,878
7481,810,881
7482,810,884
7483,812,887
7484,814,883
7485,818,881
7486,814,880
7487,812,872
7488,804,862
7489,800,852
7490,801,835
7491,799,819
7492,803,794
7493,817,769
7494,842,743
7495,865,717
7496,893,690
7497,920,672
7498,939,666
7499,945,675
7500,947,690
7501,949,713
7502,954,736
7503,972,764
7504,1007,799
7505,1046,846
7506,1088,910
7507,1114,982
7508,1115,1048
7509,1081,1092
7510,1012,1102
7511,928,1085
7512,849,1044
7513,781,1000
7514,736,958
7515,711,931
7516,696,915
7517,685,908
7518,672,899
7519,662,888
7520,648,885
7521,640,875
7522,635,862
7523,629,860
7524,626,863
7525,626,863
7526,624,865
7527,622,863
7528,627,857
7529,633,855
7530,643,852
7531,661,855
7532,683,855
7533,709,860
7534,735,871
7535,759,876
7536,777,886
7537,791,892
7538,801,896
7539,805,900
7540,806,901
7541,808,902
7542,811,904
7543,815,904
7544,817,907
7545,823,906
7546,822,907
7547,822,907
7548,824,901
7549,827,900
7550,825,901
7551,822,897
7552,824,895
7553,824,893
7554,823,893
7555,820,893
7556,824,893
7557,824,892
7558,823,887
7559,816,883
7560,819,874
7561,814,872
7562,813,871
7563,808,863
7564,805,865
7565,808,863
7566,806,866
7567,806,862
7568,803,864
7569,805,857
7570,800,856
7571,798,850
7572,792,849
7573,790,845
7574,789,842
7575,786,840
7576,785,836
7577,782,837
7578,786,836
7579,786,835
7580,787,836
7581,785,832
7582,785,828
7583,782,830
7584,782,825
7585,779,822
7586,778,820
7587,777,819
7588,774,817
7589,773,819
7590,776,824
7591,777,826
7592,781,830
7593,785,826
7594,784,827
7595,783,823
7596,782,821
7597,781,820
7598,781,820
7599,784,823
7600,787,824
7601,791,827
7602,794,833
7603,800,836
7604,804,839
7605,809,837
7606,812,837
7607,815,840
7608,820,842
7609,818,844
7610,821,847
7611,819,847
7612,821,853
7613,824,856
7614,831,861
7615,835,864
7616,837,868
7617,841,870
7618,842,873
7619,845,876
7620,846,875
7621,845,875
7622,843,873
7623,843,876
7624,845,877
7625,848,881
7626,849,885
7627,852,888
7628,855,890
7629,854,894
7630,855,895
7631,855,893
7632,852,889
7633,852,889
7634,850,891
7635,848,890
7636,849,891
7637,851,894
7638,852,896
7639,851,899
7640,853,901
7641,856,899
7642,856,898
7643,854,897
7644,853,899
7645,848,896
7646,849,896
7647,847,894
7648,845,892
7649,848,895
7650,846,897
7651,847,896
7652,848,900
7653,848,899
7654,848,898
7655,849,898
7656,846,897
7657,847,894
7658,843,891
7659,843,890
7660,843,894
7661,843,892
7662,842,897
7663,845,898
7664,847,902
7665,851,898
7666,847,903
7667,849,897
7668,845,895
7669,846,896
7670,843,896
7671,843,893
7672,843,892
7673,845,896
7674,844,898
7675,850,901
7676,851,902
7677,853,902
7678,854,900
7679,853,898
7680,851,897
7681,848,894
7682,847,893
7683,845,893
7684,845,893
7685,843,893
7686,844,893
7687,845,897
7688,847,901
7689,848,901
7690,849,901
7691,848,899
7692,847,899
7693,849,898
7694,846,895
7695,850,896
7696,852,897
7697,849,902
7698,850,903
7699,849,905
7700,856,905
7701,857,903
7702,857,903
7703,864,903
7704,864,902
7705,863,898
7706,866,894
7707,865,890
7708,865,890
7709,869,889
7710,871,888
7711,872,894
7712,875,895
7713,879,898
7714,872,901
7715,877,902
7716,881,899
7717,882,904
7718,884,910
7719,886,908
7720,884,911
7721,881,909
7722,880,911
7723,877,910
7724,879,914
7725,878,911
7726,876,910
7727,880,915
7728,882,918
7729,885,926
7730,890,926
7731,891,931
7732,887,934
7733,883,933
7734,877,927
7735,872,922
7736,866,913
7737,862,908
7738,861,905
7739,858,908
7740,853,909
7741,852,908
7742,843,911
7743,840,911
7744,840,911
7745,843,910
7746,843,911
7747,842,907
7748,843,907
7749,840,902
7750,839,903
7751,840,903
7752,842,902
7753,838,901
7754,842,900
7755,838,898
7756,837,903
7757,838,903
7758,838,905
7759,839,908
7760,837,907
7761,838,903
7762,837,905
7763,837,903
7764,834,901
7765,836,901
7766,835,899
7767,838,901
7768,834,903
7769,829,903
7770,831,906
7771,833,904
7772,837,907
7773,838,905
7774,838,898
7775,836,889
7776,836,876
7777,833,861
7778,834,844
7779,838,825
7780,854,805
7781,871,783
7782,903,758
7783,935,737
7784,963,722
7785,984,718
7786,993,727
7787,990,742
7788,984,765
7789,981,786
7790,988,806
7791,1005,834
7792,1037,873
7793,1073,932
7794,1100,1008
7795,1105,1079
7796,1082,1129
7797,1019,1140
7798,932,1121
7799,845,1071
7800,768,1009
7801,719,962
7802,689,927
7803,673,911
7804,662,906
7805,653,904
7806,646,902
7807,638,896
7808,634,890
7809,633,883
7810,628,878
7811,626,873
7812,622,876
7813,618,873
7814,618,875
7815,618,872
7816,623,870
7817,632,865
7818,648,863
7819,669,864
7820,695,867
7821,723,879
7822,750,891
7823,773,903
7824,790,911
7825,805,923
7826,812,930
7827,814,926
7828,812,923
7829,812,923
7830,814,920
7831,816,923
7832,821,923
7833,824,923
7834,824,922
7835,824,924
7836,825,923
7837,824,920
7838,823,919
7839,822,912
7840,819,912
7841,818,908
7842,820,906
7843,824,909
7844,824,908
7845,824,905
7846,823,906
7847,821,902
7848,818,899
7849,811,890
7850,811,887
7851,809,881
7852,804,885
7853,804,884
7854,802,884
7855,798,880
7856,801,879
7857,802,876
7858,799,870
7859,796,867
7860,794,860
7861,790,855
7862,787,853
7863,787,851
7864,787,850
7865,784,848
7866,783,851
7867,783,850
7868,779,851
7869,782,849
7870,781,846
7871,777,847
7872,778,844
7873,774,839
7874,774,840
7875,769,839
7876,770,836
7877,772,835
7878,773,839
7879,775,842
7880,776,843
7881,782,845
7882,779,844
7883,782,846
7884,780,846
7885,782,844
7886,780,841
7887,784,845
7888,783,843
7889,785,847
7890,789,851
7891,795,855
7892,797,860
7893,809,863
7894,811,865
7895,812,862
7896,813,865
7897,816,865
7898,814,868
7899,817,872
7900,819,871
7901,819,880
7902,824,885
7903,830,891
7904,832,893
7905,839,898
7906,840,897
7907,840,901
7908,840,900
7909,840,902
7910,840,902
7911,839,902
7912,841,908
7913,838,911
7914,840,916
7915,843,917
7916,848,920
7917,852,923
7918,850,922
7919,850,923
7920,849,919
7921,850,923
7922,850,922
7923,847,921
7924,846,926
7925,846,928
7926,849,930
7927,853,931
7928,856,937
7929,857,935
7930,853,933
7931,853,929
7932,847,923
7933,847,925
7934,845,924
7935,847,926
7936,847,926
7937,848,929
7938,850,933
7939,850,934
7940,851,934
7941,854,932
7942,849,935
7943,849,931
7944,846,927
7945,847,927
7946,842,924
7947,841,922
7948,841,921
7949,839,921
7950,845,924
7951,849,925
7952,849,929
7953,851,928
7954,851,930
7955,849,929
7956,846,928
7957,847,926
7958,843,923
7959,845,922
7960,842,922
7961,842,926
7962,844,925
7963,846,926
7964,849,930
7965,851,929
7966,851,925
7967,851,926
7968,850,926
7969,848,924
7970,849,923
7971,846,923
7972,843,925
7973,845,926
7974,848,926
7975,851,931
7976,852,934
7977,853,931
7978,852,931
7979,850,927
7980,847,923
7981,847,925
7982,846,921
7983,850,928
7984,848,929
7985,851,929
7986,853,934
7987,856,933
7988,855,934
7989,855,938
7990,855,936
7991,854,935
7992,857,932
7993,856,927
7994,857,925
7995,857,922
7996,859,923
7997,859,925
7998,865,926
7999,869,928
8000,872,927
8001,876,923
8002,874,926
8003,875,921
8004,875,919
8005,874,922
8006,875,923
8007,880,923
8008,884,927
8009,889,933
8010,891,940
8011,889,942
8012,889,945
8013,888,946
8014,881,937
8015,875,932
8016,870,931
8017,869,931
8018,875,930
8019,878,938
8020,880,946
8021,888,953
8022,892,963
8023,893,969
8024,891,971
8025,887,965
8026,879,957
8027,873,947
8028,866,938
8029,860,935
8030,860,929
8031,857,934
8032,852,933
8033,850,934
8034,850,940
8035,847,940
8036,844,943
8037,844,939
8038,848,938
8039,847,935
8040,849,939
8041,847,934
8042,846,931
8043,841,932
8044,836,933
8045,836,935
8046,838,933
8047,839,934
8048,840,935
8049,843,934
8050,842,934
8051,844,932
8052,846,929
8053,844,927
8054,839,925
8055,837,925
8056,837,923
8057,838,925
8058,838,930
8059,841,930
8060,840,930
8061,843,929
8062,844,923
8063,841,918
8064,838,908
8065,834,898
8066,832,880
8067,830,861
8068,835,836
8069,849,807
8070,872,781
8071,900,758
8072,935,738
8073,966,729
8074,981,731
8075,987,747
8076,986,763
8077,977,789
8078,981,807
8079,994,834
8080,1021,866
8081,1060,918
8082,1095,982
8083,1121,1057
8084,1121,1121
8085,1092,1163
8086,1027,1168
8087,942,1145
8088,860,1100
8089,797,1048
8090,752,1007
8091,727,978
8092,710,966
8093,700,959
8094,687,949
8095,675,943
8096,664,931
8097,654,924
8098,647,915
8099,641,912
8100,637,906
8101,632,907
8102,633,910
8103,629,908
8104,630,905
8105,636,900
8106,649,897
8107,665,895
8108,684,898
8109,716,901
8110,741,913
8111,771,923
8112,793,932
8113,806,939
8114,813,942
8115,820,943
8116,816,943
8117,818,941
8118,821,944
8119,824,943
8120,829,947
8121,831,950
8122,832,949
8123,829,947
8124,829,941
8125,829,938
8126,829,933
8127,829,931
8128,827,932
8129,825,931
8130,827,931
8131,830,929
8132,829,931
8133,832,930
8134,829,926
8135,828,922
8136,826,921
8137,824,913
8138,818,909
8139,815,904
8140,816,904
8141,812,905
8142,814,903
8143,816,902
8144,813,901
8145,814,899
8146,810,896
8147,803,892
8148,799,884
8149,794,881
8150,793,877
8151,792,874
8152,792,873
8153,789,873
8154,790,873
8155,792,871
8156,792,870
8157,793,870
8158,793,868
8159,785,865
8160,787,859
8161,782,855
8162,780,851
8163,778,850
8164,774,851
8165,779,851
8166,780,854
8167,781,852
8168,782,854
8169,787,856
8170,784,852
8171,781,853
8172,784,850
8173,783,849
8174,782,848
8175,786,849
8176,785,850
8177,788,851
8178,794,860
8179,798,861
8180,801,865
8181,805,863
8182,805,871
8183,805,870
8184,812,873
8185,816,872
8186,817,872
8187,820,875
8188,821,880
8189,822,883
8190,831,889
8191,833,894
8192,839,893
8193,842,899
8194,843,903
8195,844,902
8196,844,903
8197,844,903
8198,844,906
8199,845,908
8200,846,915
8201,849,917
8202,852,921
8203,855,925
8204,858,931
8205,860,930
8206,858,932
8207,859,929
8208,857,929
8209,856,925
8210,855,921
8211,854,922
8212,853,924
8213,855,928
8214,856,932
8215,853,935
8216,855,936
8217,856,932
8218,856,936
8219,858,932
8220,861,928
8221,857,928
8222,856,925
8223,858,927
8224,854,927
8225,851,929
8226,854,931
8227,855,933
8228,857,934
8229,857,936
8230,857,935
8231,860,932
8232,857,930
8233,852,930
8234,851,925
8235,846,929
8236,845,923
8237,847,926
8238,848,930
8239,851,929
8240,853,931
8241,855,934
8242,855,930
8243,851,931
8244,848,928
8245,844,923
8246,846,922
8247,844,925
8248,842,924
8249,843,928
8250,847,927
8251,846,929
8252,848,932
8253,852,929
8254,856,934
8255,856,931
8256,852,929
8257,852,929
8258,845,927
8259,845,924
8260,843,924
8261,846,928
8262,847,929
8263,850,934
8264,851,935
8265,850,935
8266,853,932
8267,853,933
8268,854,928
8269,852,926
8270,853,921
8271,854,927
8272,850,925
8273,850,929
8274,848,927
8275,851,930
8276,851,932
8277,855,932
8278,851,933
8279,854,928
8280,855,928
8281,856,921
8282,851,919
8283,856,918
8284,862,920
8285,862,924
8286,865,923
8287,867,927
8288,871,920
8289,873,924
8290,874,919
8291,875,917
8292,876,916
8293,876,916
8294,875,914
8295,879,917
8296,881,917
8297,884,927
8298,890,930
8299,896,940
8300,895,943
8301,897,944
8302,898,947
8303,891,945
8304,886,936
8305,881,933
8306,875,931
8307,875,930
8308,875,929
8309,876,937
8310,881,945
8311,888,953
8312,893,961
8313,896,965
8314,897,963
8315,892,964
8316,887,955
8317,875,945
8318,868,937
8319,857,929
8320,856,931
8321,855,931
8322,857,936
8323,855,934
8324,857,938
8325,855,941
8326,854,940
8327,852,936
8328,847,934
8329,845,930
8330,843,928
8331,842,927
8332,841,924
8333,841,926
8334,842,927
8335,845,927
8336,846,930
8337,848,932
8338,846,930
8339,847,927
8340,845,924
8341,841,925
8342,839,923
8343,839,923
8344,838,924
8345,837,923
8346,841,926
8347,842,929
8348,844,932
8349,843,927
8350,844,929
8351,845,926
8352,843,925
8353,842,925
8354,839,920
8355,841,920
8356,840,920
8357,839,916
8358,838,913
8359,836,908
8360,833,900
8361,832,890
8362,827,869
8363,833,845
8364,843,814
8365,860,783
8366,883,751
8367,910,721
8368,931,706
8369,953,700
8370,965,709
8371,970,729
8372,965,751
8373,967,776
8374,980,797
8375,1007,820
8376,1046,855
8377,1088,907
8378,1116,974
8379,1128,1045
8380,1111,1104
8381,1054,1130
8382,971,1129
8383,886,1098
8384,811,1055
8385,758,1011
8386,727,981
8387,705,959
8388,688,945
8389,675,934
8390,657,925
8391,644,914
8392,633,910
8393,624,906
8394,625,905
8395,623,907
8396,625,909
8397,626,908
8398,626,909
8399,628,904
8400,630,898
8401,642,891
8402,655,888
8403,675,889
8404,704,897
8405,735,910
8406,763,921
8407,785,934
8408,799,941
8409,812,946
8410,818,948
8411,819,947
8412,817,943
8413,822,942
8414,823,942
8415,826,941
8416,826,944
8417,823,942
8418,828,947
8419,829,948
8420,834,950
8421,836,945
8422,835,946
8423,833,942
8424,833,938
8425,830,934
8426,832,934
8427,826,928
8428,824,927
8429,825,928
8430,824,927
8431,822,925
8432,823,924
8433,822,924
8434,820,919
8435,821,918
8436,819,910
8437,814,908
8438,811,904
8439,807,903
8440,802,899
8441,802,895
8442,800,895
8443,801,894
8444,803,890
8445,802,890
8446,800,889
8447,799,885
8448,798,877
8449,790,875
8450,786,872
8451,784,872
8452,783,873
8453,787,870
8454,789,872
8455,789,873
8456,786,873
8457,788,873
8458,785,870
8459,786,867
8460,782,865
8461,783,862
8462,782,861
8463,781,862
8464,785,864
8465,788,865
8466,791,868
8467,792,866
8468,793,872
8469,795,869
8470,798,871
8471,801,869
8472,802,868
8473,800,868
8474,798,870
8475,805,869
8476,807,872
8477,810,877
8478,817,882
8479,824,891
8480,828,893
8481,832,893
8482,836,899
8483,835,897
8484,834,897
8485,838,901
8486,840,901
8487,840,901
8488,842,904
8489,843,912
8490,844,912
8491,849,917
8492,854,922
8493,856,925
8494,859,923
8495,861,925
8496,860,921
8497,857,924
8498,856,922
8499,857,925
8500,859,927
8501,859,928
8502,859,931
8503,862,931
8504,863,937
8505,864,937
8506,864,935
8507,865,936
8508,860,934
8509,860,933
8510,858,930
8511,858,931
8512,857,931
8513,857,933
8514,856,937
8515,858,936
8516,858,937
8517,858,938
8518,859,938
8519,859,937
8520,855,936
8521,853,933
8522,853,930
8523,852,929
8524,852,931
8525,852,932
8526,850,934
8527,852,935
8528,852,934
8529,852,934
8530,853,937
8531,855,936
8532,853,931
8533,854,932
8534,852,930
8535,848,929
8536,849,931
8537,849,934
8538,852,933
8539,855,934
8540,853,939
8541,859,935
8542,858,937
8543,856,936
8544,853,934
8545,851,933
8546,849,930
8547,847,928
8548,845,927
8549,846,931
8550,845,933
8551,850,936
8552,855,938
8553,858,934
8554,856,936
8555,855,935
8556,856,931
8557,853,928
8558,854,930
8559,852,926
8560,854,928
8561,851,928
8562,854,933
8563,856,932
8564,857,931
8565,853,932
8566,851,935
8567,855,936
8568,858,930
8569,856,932
8570,856,929
8571,857,929
8572,857,930
8573,858,930
8574,859,935
8575,860,933
8576,863,937
8577,863,933
8578,866,933
8579,871,930
8580,872,928
8581,877,924
8582,876,921
8583,873,920
8584,875,921
8585,878,922
8586,881,929
8587,883,930
8588,891,936
8589,898,941
8590,900,942
8591,900,946
8592,897,949
8593,893,946
8594,889,943
8595,881,942
8596,877,938
8597,877,936
8598,876,939
8599,879,943
8600,887,952
8601,893,957
8602,899,961
8603,903,964
8604,902,967
8605,892,962
8606,888,958
8607,877,952
8608,872,942
8609,868,939
8610,863,937
8611,863,937
8612,863,943
8613,865,945
8614,860,945
8615,856,947
8616,852,944
8617,849,936
8618,845,935
8619,845,933
8620,845,931
8621,844,931
8622,845,940
8623,847,938
8624,848,938
8625,850,938
8626,847,938
8627,848,933
8628,846,931
8629,845,929
8630,841,926
8631,842,926
8632,844,927
8633,843,928
8634,845,934
8635,844,936
8636,847,939
8637,851,938
8638,850,941
8639,847,939
8640,844,932
8641,846,926
8642,841,926
8643,842,927
8644,842,926
8645,838,924
8646,842,921
8647,840,921
8648,841,910
8649,842,893
8650,846,871
8651,855,842
8652,873,810
8653,894,779
8654,928,745
8655,955,721
8656,977,714
8657,988,722
8658,994,743
8659,987,770
8660,990,795
8661,1002,821
8662,1025,848
8663,1059,884
8664,1096,935
8665,1126,1002
8666,1134,1071
8667,1117,1122
8668,1062,1150
8669,980,1142
8670,890,1108
8671,809,1059
8672,749,1011
8673,704,980
8674,680,955
8675,667,939
8676,652,929
8677,642,920
8678,631,910
8679,620,902
8680,612,897
8681,609,897
8682,609,897
8683,609,898
8684,610,901
8685,610,902
8686,613,898
8687,619,893
8688,630,885
8689,641,886
8690,658,884
8691,684,891
8692,713,907
8693,744,924
8694,770,939
8695,789,949
8696,805,956
8697,816,959
8698,819,963
8699,822,957
8700,822,958
8701,824,955
8702,824,954
8703,823,954
8704,824,955
8705,824,956
8706,825,958
8707,829,961
8708,832,955
8709,836,956
8710,838,959
8711,834,952
8712,834,948
8713,833,944
8714,829,941
8715,827,937
8716,823,935
8717,825,936
8718,824,937
8719,825,939
8720,824,942
8721,828,942
8722,825,934
8723,819,927
8724,817,923
8725,812,912
8726,809,909
8727,806,904
8728,804,902
8729,801,901
8730,802,901
8731,800,902
8732,803,903
8733,803,901
8734,806,896
8735,802,892
8736,799,887
8737,791,883
8738,788,884
8739,785,878
8740,783,879
8741,780,879
8742,783,877
8743,784,881
8744,786,880
8745,788,883
8746,789,875
8747,789,875
8748,785,873
8749,780,870
8750,782,870
8751,779,869
8752,778,872
8753,778,872
8754,779,876
8755,784,876
8756,789,878
8757,794,880
8758,795,880
8759,794,881
8760,793,881
8761,793,883
8762,797,885
8763,797,881
8764,803,887
8765,808,887
8766,813,894
8767,823,897
8768,827,902
8769,832,907
8770,833,909
8771,837,906
8772,837,910
8773,837,912
8774,842,913
8775,843,915
8776,842,919
8777,844,921
8778,846,926
8779,850,928
8780,853,937
8781,853,941
8782,852,941
8783,858,942
8784,860,945
8785,858,942
8786,859,944
8787,861,939
8788,861,944
8789,856,946
8790,858,949
8791,859,951
8792,861,953
8793,864,956
8794,867,957
8795,865,957
8796,863,953
8797,863,952
8798,858,954
8799,859,953
8800,857,955
8801,856,958
8802,858,960
8803,859,961
8804,860,963
8805,863,965
8806,862,962
8807,860,958
8808,859,953
8809,858,951
8810,859,950
8811,856,951
8812,854,954
8813,852,955
8814,853,960
8815,856,958
8816,856,960
8817,854,964
8818,855,960
8819,855,958
8820,854,953
8821,851,951
8822,851,949
8823,849,948
8824,850,947
8825,850,951
8826,848,953
8827,851,953
8828,851,957
8829,854,957
8830,856,954
8831,853,955
8832,854,948
8833,853,948
8834,850,947
8835,849,946
8836,850,945
8837,851,947
8838,853,952
8839,854,952
8840,855,954
8841,857,956
8842,857,954
8843,856,952
8844,852,950
8845,854,951
8846,853,949
8847,853,950
8848,852,949
8849,856,953
8850,855,954
8851,855,958
8852,856,959
8853,860,957
8854,861,956
8855,861,954
8856,860,951
8857,858,951
8858,855,950
8859,857,949
8860,856,951
8861,857,954
8862,857,957
8863,856,957
8864,858,957
8865,860,959
8866,863,956
8867,862,959
8868,860,956
8869,859,955
8870,859,952
8871,857,953
8872,856,952
8873,861,953
8874,863,956
8875,869,954
8876,869,957
8877,872,955
8878,875,950
8879,876,947
8880,878,941
8881,879,938
8882,875,935
8883,875,938
8884,877,943
8885,881,943
8886,882,948
8887,889,951
8888,894,957
8889,900,964
8890,900,967
8891,902,969
8892,898,965
8893,893,962
8894,886,957
8895,879,955
8896,873,953
8897,873,957
8898,873,962
8899,879,963
8900,887,975
8901,897,981
8902,903,989
8903,906,991
8904,903,989
8905,899,984
8906,889,977
8907,882,969
8908,872,962
8909,869,960
8910,868,958
8911,866,961
8912,864,964
8913,865,964
8914,862,965
8915,857,963
8916,855,960
8917,849,954
8918,849,951
8919,850,951
8920,850,951
8921,847,953
8922,849,955
8923,849,959
8924,854,960
8925,854,959
8926,852,956
8927,851,956
8928,851,953
8929,849,953
8930,844,946
8931,841,948
8932,840,946
8933,842,948
8934,846,950
8935,848,949
8936,847,957
8937,850,954
8938,851,955
8939,851,952
8940,849,947
8941,851,943
8942,846,942
8943,849,944
8944,847,941
8945,846,943
8946,847,942
8947,847,941
8948,841,934
8949,840,925
8950,841,911
8951,840,894
8952,843,869
8953,849,848
8954,865,820
8955,890,793
8956,916,765
8957,946,746
8958,976,737
8959,999,745
8960,1006,765
8961,1006,786
8962,1002,810
8963,1006,831
8964,1023,857
8965,1055,898
8966,1093,954
8967,1124,1023
8968,1137,1091
8969,1119,1152
8970,1064,1179
8971,988,1172
8972,897,1135
8973,817,1085
8974,758,1035
8975,719,997
8976,691,973
8977,673,957
8978,655,946
8979,644,935
8980,634,924
8981,629,920
8982,621,920
8983,623,919
8984,617,925
8985,620,924
8986,620,924
8987,622,920
8988,626,915
8989,638,905
8990,654,900
8991,673,903
8992,700,912
8993,732,924
8994,762,936
8995,786,948
8996,803,961
8997,813,967
8998,824,968
8999,824,969
9000,827,963
9001,825,960
9002,825,959
9003,827,960
9004,830,958
9005,833,962
9006,838,963
9007,841,966
9008,841,967
9009,841,967
9010,841,962
9011,839,957
9012,833,956
9013,834,950
9014,833,948
9015,829,948
9016,828,944
9017,826,944
9018,828,942
9019,828,940
9020,824,941
9021,827,941
9022,824,936
9023,827,932
9024,825,927
9025,820,923
9026,818,918
9027,813,914
9028,812,911
9029,807,913
9030,810,908
9031,807,912
9032,806,910
9033,806,907
9034,807,904
9035,801,898
9036,799,894
9037,796,889
9038,793,891
9039,791,884
9040,788,881
9041,790,879
9042,789,880
9043,787,880
9044,783,877
9045,791,879
9046,789,881
9047,787,875
9048,783,875
9049,784,872
9050,784,868
9051,783,865
9052,780,866
9053,782,866
9054,785,866
9055,788,869
9056,788,872
9057,790,873
9058,795,872
9059,791,869
9060,795,872
9061,794,869
9062,799,870
9063,798,873
9064,795,871
9065,801,875
9066,809,879
9067,816,880
9068,822,888
9069,823,894
9070,828,892
9071,830,895
9072,834,898
9073,836,898
9074,838,900
9075,837,905
9076,841,906
9077,841,911
9078,846,915
9079,848,919
9080,854,925
9081,859,929
9082,859,931
9083,860,932
9084,863,931
9085,863,932
9086,859,931
9087,859,934
9088,856,935
9089,859,938
9090,859,939
9091,861,946
9092,868,945
9093,869,947
9094,869,947
9095,870,944
9096,870,944
9097,866,941
9098,866,941
9099,864,941
9100,862,938
9101,863,941
9102,864,942
9103,863,944
9104,867,945
9105,868,947
9106,868,943
9107,865,943
9108,864,944
9109,865,943
9110,860,939
9111,861,941
9112,861,938
9113,862,940
9114,860,940
9115,862,940
9116,859,944
9117,857,948
9118,862,944
9119,858,943
9120,858,939
9121,853,939
9122,852,938
9123,852,935
9124,853,933
9125,852,936
9126,857,939
9127,855,940
9128,861,941
9129,860,943
9130,862,942
9131,858,939
9132,858,938
9133,859,938
9134,857,940
9135,855,938
9136,854,938
9137,854,936
9138,855,938
9139,860,942
9140,863,945
9141,864,946
9142,864,941
9143,864,938
9144,862,939
9145,861,937
9146,855,936
9147,857,935
9148,855,938
9149,857,936
9150,856,940
9151,859,939
9152,862,942
9153,863,940
9154,859,939
9155,860,935
9156,861,934
9157,859,933
9158,861,936
9159,860,936
9160,854,933
9161,855,934
9162,857,936
9163,858,937
9164,863,938
9165,863,941
9166,864,938
9167,866,939
9168,866,935
9169,863,934
9170,864,933
9171,864,931
9172,868,930
9173,868,931
9174,870,932
9175,878,934
9176,880,928
9177,883,930
9178,885,927
9179,886,926
9180,886,924
9181,887,925
9182,884,927
9183,885,926
9184,893,927
9185,896,933
9186,900,939
9187,905,947
9188,908,952
9189,902,958
9190,904,956
9191,898,951
9192,893,948
9193,887,941
9194,884,941
9195,879,939
9196,878,943
9197,880,950
9198,889,959
9199,897,962
9200,905,971
9201,911,976
9202,906,976
9203,900,970
9204,893,964
9205,880,952
9206,876,942
9207,870,938
9208,862,934
9209,862,937
9210,863,938
9211,864,945
9212,860,946
9213,860,946
9214,860,937
9215,855,936
9216,853,935
9217,853,929
9218,852,930
9219,851,929
9220,846,929
9221,846,933
9222,847,934
9223,848,935
9224,850,934
9225,851,937
9226,848,936
9227,851,934
9228,848,934
9229,846,930
9230,842,929
9231,844,927
9232,842,929
9233,845,931
9234,845,934
9235,847,932
9236,848,936
9237,849,936
9238,850,935
9239,851,933
9240,849,932
9241,847,928
9242,846,927
9243,844,922
9244,843,922
9245,843,922
9246,841,924
9247,844,922
9248,845,920
9249,843,910
9250,839,894
9251,839,877
9252,839,849
9253,848,823
9254,862,792
9255,890,755
9256,918,724
9257,948,703
9258,973,698
9259,988,707
9260,988,727
9261,991,755
9262,994,780
9263,1011,808
9264,1040,838
9265,1083,891
9266,1120,955
9267,1143,1032
9268,1136,1094
9269,1093,1135
9270,1018,1138
9271,928,1115
9272,841,1073
9273,773,1029
9274,735,991
9275,708,965
9276,692,948
9277,673,936
9278,658,926
9279,646,915
9280,629,905
9281,619,901
9282,615,899
