'sample #','MLII','V1'
0,849,894
1,849,894
2,849,894
3,849,894
4,849,894
5,849,894
6,849,894
7,852,894
8,854,894
9,856,891
10,856,891
11,859,892
12,858,889
13,857,888
14,855,887
15,853,888
16,854,888
17,853,889
18,854,890
19,857,892
20,859,894
21,859,894
22,856,894
23,856,890
24,859,889
25,859,888
26,858,883
27,859,885
28,857,885
29,858,889
30,857,891
31,858,893
32,860,894
33,863,892
34,863,890
35,863,890
36,862,887
37,861,887
38,860,885
39,858,884
40,858,887
41,859,887
42,856,890
43,859,891
44,864,893
45,865,892
46,865,891
47,864,889
48,863,889
49,863,888
50,863,888
51,862,886
52,862,889
53,861,889
54,861,890
55,863,891
56,864,892
57,866,892
58,864,891
59,864,888
60,863,887
61,860,888
62,859,886
63,859,885
64,860,887
65,861,888
66,863,891
67,864,892
68,865,889
69,864,891
70,867,888
71,864,890
72,865,887
73,864,886
74,862,885
75,862,885
76,862,887
77,861,887
78,861,891
79,864,890
80,867,893
81,866,891
82,868,890
83,865,890
84,865,888
85,865,886
86,864,884
87,863,885
88,861,885
89,863,886
90,864,890
91,866,889
92,865,890
93,866,892
94,867,890
95,868,891
96,870,890
97,869,889
98,867,891
99,865,890
100,865,892
101,869,891
102,869,893
103,873,891
104,874,892
105,876,888
106,876,884
107,876,881
108,875,873
109,874,869
110,876,866
111,875,865
112,874,869
113,875,872
114,875,875
115,877,878
116,878,879
117,880,879
118,878,876
119,880,876
120,878,876
121,881,875
122,880,876
123,876,879
124,873,882
125,877,886
126,877,889
127,877,890
128,877,893
129,878,892
130,877,890
131,874,890
132,873,886
133,870,888
134,868,887
135,865,884
136,864,885
137,864,887
138,866,887
139,870,890
140,869,891
141,870,890
142,871,891
143,873,892
144,871,892
145,871,894
146,869,896
147,874,893
148,875,890
149,880,879
150,883,862
151,893,837
152,906,803
153,923,767
154,944,724
155,966,688
156,991,662
157,1014,649
158,1033,653
159,1047,675
160,1055,705
161,1063,739
162,1066,773
163,1077,794
164,1081,817
165,1083,834
166,1073,847
167,1060,860
168,1045,872
169,1027,881
170,1008,885
171,988,889
172,968,890
173,950,892
174,935,896
175,921,898
176,915,899
177,906,899
178,894,900
179,891,903
180,887,900
181,881,898
182,879,898
183,881,896
184,880,899
185,880,901
186,882,902
187,881,904
188,885,906
189,886,906
190,886,903
191,886,903
192,888,903
193,887,902
194,885,900
195,883,900
196,884,901
197,884,904
198,885,902
199,887,905
200,888,906
201,891,907
202,891,907
203,892,904
204,891,903
205,891,903
206,890,899
207,890,900
208,890,901
209,888,903
210,893,905
211,893,903
212,893,908
213,896,908
214,895,905
215,896,903
216,896,902
217,893,900
218,893,901
219,890,899
220,888,900
221,890,900
222,889,903
223,893,903
224,891,905
225,894,905
226,896,904
227,897,904
228,896,903
229,894,900
230,893,901
231,896,899
232,894,899
233,893,901
234,896,902
235,897,904
236,899,904
237,901,903
238,900,902
239,900,904
240,901,901
241,899,900
242,899,898
243,899,899
244,898,900
245,898,898
246,902,902
247,905,902
248,907,905
249,909,905
250,908,905
251,910,904
252,908,900
253,910,899
254,908,896
255,908,897
256,907,896
257,906,900
258,908,900
259,908,900
260,910,899
261,911,900
262,909,900
263,909,899
264,909,897
265,906,897
266,904,894
267,901,892
268,901,894
269,903,893
270,899,895
271,903,898
272,901,898
273,901,900
274,900,897
275,898,895
276,896,895
277,895,893
278,890,892
279,887,889
280,886,892
281,885,891
282,882,894
283,881,895
284,879,896
285,877,896
286,879,896
287,875,896
288,873,892
289,873,892
290,872,889
291,869,889
292,867,889
293,868,889
294,868,891
295,871,892
296,871,894
297,873,895
298,872,895
299,873,894
300,870,892
301,869,890
302,866,889
303,866,889
304,866,890
305,866,892
306,868,894
307,869,894
308,868,895
309,871,896
310,871,895
311,871,893
312,870,890
313,865,892
314,866,891
315,865,890
316,864,890
317,864,893
318,865,895
319,866,895
320,865,896
321,866,899
322,864,896
323,864,894
324,863,892
325,863,891
326,860,892
327,859,889
328,856,890
329,857,891
330,858,892
331,859,894
332,859,897
333,860,898
334,859,895
335,858,893
336,858,891
337,857,893
338,856,890
339,854,888
340,853,890
341,853,889
342,855,892
343,855,893
344,854,892
345,858,894
346,858,893
347,856,891
348,857,890
349,854,889
350,852,885
351,853,887
352,851,886
353,850,889
354,853,888
355,853,891
356,855,892
357,854,892
358,853,890
359,854,889
360,852,889
361,856,888
362,852,886
363,851,884
364,851,885
365,850,887
366,853,889
367,856,891
368,856,890
369,857,892
370,856,891
371,856,888
372,856,886
373,857,887
374,853,886
375,852,885
376,854,884
377,853,886
378,856,887
379,857,890
380,858,890
381,860,891
382,859,890
383,858,889
384,857,887
385,857,884
386,858,884
387,854,885
388,851,883
389,854,884
390,856,887
391,857,885
392,860,889
393,861,888
394,861,886
395,863,887
396,860,885
397,859,883
398,859,882
399,858,882
400,858,883
401,859,883
402,859,887
403,860,889
404,860,888
405,861,890
406,863,889
407,863,888
408,861,885
409,859,883
410,857,883
411,856,883
412,856,881
413,857,884
414,857,887
415,858,888
416,859,888
417,861,888
418,862,889
419,863,886
420,860,886
421,859,885
422,858,881
423,859,883
424,858,881
425,859,883
426,859,886
427,861,886
428,861,888
429,866,889
430,864,888
431,862,888
432,861,887
433,863,885
434,860,883
435,861,882
436,859,883
437,859,884
438,859,884
439,861,889
440,864,889
441,864,889
442,862,887
443,863,885
444,862,886
445,860,885
446,861,885
447,862,884
448,864,887
449,865,888
450,866,890
451,870,890
452,872,887
453,875,887
454,875,884
455,874,880
456,873,874
457,870,870
458,868,869
459,867,864
460,869,864
461,872,867
462,872,870
463,873,874
464,876,876
465,877,875
466,875,875
467,874,873
468,874,872
469,873,872
470,872,872
471,873,871
472,874,875
473,871,878
474,871,883
475,872,886
476,872,889
477,872,891
478,869,888
479,868,888
480,867,883
481,864,880
482,863,881
483,861,881
484,862,879
485,860,881
486,862,885
487,864,885
488,863,886
489,867,885
490,866,884
491,867,886
492,864,887
493,864,885
494,864,887
495,864,890
496,863,889
497,866,891
498,868,888
499,872,882
500,878,870
501,884,846
502,893,813
503,903,774
504,925,730
505,948,685
506,972,653
507,993,633
508,1012,638
509,1027,661
510,1035,695
511,1043,734
512,1052,770
513,1060,799
514,1064,820
515,1060,837
516,1051,851
517,1038,862
518,1022,874
519,1003,879
520,979,883
521,961,886
522,943,891
523,924,892
524,912,893
525,901,897
526,896,899
527,887,897
528,880,899
529,875,896
530,872,896
531,870,896
532,868,895
533,868,897
534,870,902
535,872,901
536,874,904
537,877,903
538,879,903
539,877,902
540,875,900
541,874,900
542,874,899
543,873,900
544,874,899
545,874,901
546,872,902
547,876,903
548,876,906
549,880,907
550,882,904
551,882,904
552,879,903
553,879,901
554,878,900
555,879,899
556,875,899
557,879,899
558,875,903
559,880,904
560,881,906
561,884,908
562,885,908
563,885,906
564,883,903
565,881,904
566,881,900
567,882,899
568,880,900
569,880,899
570,881,902
571,881,904
572,884,905
573,888,906
574,886,904
575,885,903
576,888,904
577,887,901
578,884,902
579,883,899
580,885,900
581,886,901
582,887,904
583,888,906
584,889,908
585,894,907
586,893,905
587,893,906
588,889,905
589,892,901
590,892,900
591,892,899
592,893,898
593,891,902
594,892,904
595,895,905
596,897,906
597,897,906
598,897,907
599,900,905
600,899,901
601,899,900
602,897,901
603,897,896
604,895,898
605,894,898
606,895,901
607,898,901
608,900,902
609,901,902
610,897,902
611,896,899
612,896,898
613,895,894
614,892,894
615,888,892
616,889,894
617,889,892
618,887,895
619,886,894
620,886,896
621,887,893
622,886,894
623,888,894
624,882,890
625,880,891
626,881,890
627,874,886
628,871,886
629,872,889
630,871,888
631,869,888
632,868,892
633,867,893
634,867,892
635,868,891
636,867,888
637,865,887
638,860,887
639,859,885
640,859,886
641,857,889
642,857,889
643,859,889
644,859,891
645,861,892
646,861,890
647,861,892
648,862,889
649,856,888
650,854,887
651,855,887
652,854,888
653,853,888
654,854,891
655,855,891
656,855,894
657,859,894
658,859,894
659,860,893
660,860,892
661,855,892
662,854,892
663,854,891
664,850,893
665,850,895
666,851,899
667,852,900
668,852,902
669,856,899
670,855,897
671,855,892
672,854,892
673,853,888
674,851,893
675,850,892
676,849,893
677,849,893
678,848,892
679,849,896
680,850,896
681,852,897
682,852,897
683,850,900
684,852,896
685,849,898
686,847,898
687,846,895
688,845,894
689,844,894
690,846,895
691,845,897
692,847,900
693,849,903
694,847,903
695,849,900
696,847,895
697,845,891
698,845,887
699,844,884
700,843,884
701,844,884
702,845,890
703,845,893
704,849,895
705,849,898
706,849,899
707,851,900
708,850,901
709,850,902
710,848,899
711,846,896
712,845,889
713,846,886
714,846,880
715,846,880
716,847,882
717,850,884
718,851,887
719,851,888
720,848,888
721,848,888
722,847,883
723,845,885
724,843,886
725,842,889
726,843,891
727,847,893
728,845,893
729,851,894
730,851,892
731,852,892
732,849,892
733,847,891
734,844,888
735,843,887
736,844,886
737,846,889
738,845,887
739,844,890
740,845,892
741,845,892
742,845,892
743,845,893
744,845,896
745,846,893
746,841,890
747,843,891
748,842,890
749,841,889
750,840,892
751,840,891
752,841,894
753,840,894
754,842,894
755,842,893
756,840,892
757,840,894
758,835,897
759,833,897
760,832,899
761,830,902
762,830,902
763,828,900
764,829,899
765,828,895
766,830,893
767,833,890
768,832,888
769,829,891
770,828,899
771,826,904
772,826,904
773,824,898
774,825,889
775,825,878
776,827,876
777,826,880
778,825,886
779,823,892
780,823,899
781,823,902
782,820,895
783,820,888
784,820,878
785,819,875
786,820,876
787,819,880
788,822,886
789,822,892
790,822,894
791,825,894
792,824,893
793,824,890
794,821,888
795,820,887
796,816,886
797,817,889
798,818,889
799,818,892
800,820,895
801,823,897
802,823,899
803,822,901
804,819,903
805,818,905
806,820,903
807,819,901
808,821,892
809,822,889
810,824,888
811,825,894
812,825,901
813,828,898
814,831,886
815,831,871
816,828,858
817,826,850
818,825,854
819,823,861
820,822,869
821,825,876
822,825,882
823,825,881
824,825,882
825,826,881
826,825,880
827,826,879
828,825,879
829,824,880
830,826,882
831,824,883
832,823,884
833,823,888
834,821,890
835,819,887
836,821,888
837,817,885
838,817,888
839,817,886
840,813,886
841,810,883
842,808,886
843,808,888
844,809,885
845,811,883
846,811,885
847,812,884
848,812,884
849,812,887
850,812,887
851,814,888
852,813,890
853,813,893
854,814,892
855,812,896
856,814,897
857,814,891
858,818,882
859,822,872
860,826,853
861,837,831
862,851,801
863,864,763
864,884,725
865,899,689
866,917,656
867,935,642
868,952,641
869,967,660
870,977,692
871,986,728
872,993,761
873,1003,787
874,1008,807
875,1010,824
876,1000,841
877,989,856
878,974,870
879,953,880
880,927,884
881,904,890
882,883,891
883,864,895
884,850,897
885,840,898
886,830,897
887,827,898
888,822,897
889,815,899
890,813,896
891,812,898
892,809,891
893,810,895
894,816,897
895,817,901
896,820,902
897,820,904
898,823,903
899,821,903
900,821,904
901,822,906
902,821,905
903,818,901
904,820,896
905,820,891
906,821,892
907,823,895
908,826,898
909,828,902
910,827,906
911,828,906
912,829,906
913,825,899
914,825,893
915,827,890
916,826,893
917,827,895
918,828,901
919,829,900
920,830,903
921,833,904
922,835,904
923,836,901
924,835,898
925,834,898
926,834,896
927,830,897
928,827,897
929,826,899
930,831,899
931,832,903
932,835,903
933,836,901
934,837,901
935,836,900
936,836,897
937,838,895
938,838,894
939,838,895
940,835,897
941,838,903
942,838,905
943,840,903
944,841,906
945,842,909
946,843,906
947,845,904
948,844,901
949,844,897
950,843,893
951,842,893
952,842,896
953,844,898
954,845,899
955,849,897
956,849,898
957,853,898
958,854,900
959,854,899
960,853,900
961,854,899
962,853,898
963,852,896
964,852,891
965,853,892
966,853,895
967,854,895
968,854,898
969,855,898
970,858,895
971,856,895
972,856,895
973,855,892
974,853,888
975,851,891
976,849,889
977,848,894
978,850,893
979,851,894
980,852,896
981,852,896
982,851,891
983,847,891
984,847,890
985,847,892
986,843,892
987,839,891
988,841,888
989,841,888
990,838,889
991,835,891
992,834,893
993,835,896
994,834,892
995,833,889
996,833,887
997,831,882
998,827,883
999,824,884
1000,826,886
1001,824,893
1002,826,893
1003,827,893
1004,829,894
1005,830,891
1006,828,886
1007,830,883
1008,829,886
1009,827,888
1010,822,889
1011,822,887
1012,824,887
1013,827,887
1014,828,886
1015,830,888
1016,831,892
1017,833,892
1018,831,891
1019,830,888
1020,828,887
1021,826,891
1022,826,888
1023,825,886
1024,823,888
1025,824,889
1026,825,893
1027,826,896
1028,828,898
1029,830,897
1030,829,893
1031,827,894
1032,824,892
1033,822,888
1034,821,890
1035,821,889
1036,821,889
1037,821,892
1038,821,893
1039,822,893
1040,823,896
1041,824,897
1042,824,896
1043,823,894
1044,823,893
1045,822,892
1046,820,890
1047,819,890
1048,818,891
1049,819,890
1050,820,891
1051,822,889
1052,822,891
1053,824,890
1054,825,890
1055,825,889
1056,822,890
1057,822,889
1058,821,888
1059,821,889
1060,821,886
1061,821,890
1062,822,893
1063,824,893
1064,825,894
1065,824,892
1066,824,892
1067,825,891
1068,824,890
1069,823,887
1070,823,887
1071,817,885
1072,819,885
1073,821,888
1074,822,889
1075,825,890
1076,827,891
1077,831,890
1078,829,885
1079,829,886
1080,827,882
1081,827,881
1082,824,883
1083,824,885
1084,827,886
1085,829,887
1086,831,889
1087,829,891
1088,834,891
1089,833,888
1090,834,888
1091,834,888
1092,833,887
1093,833,886
1094,831,883
1095,831,884
1096,829,882
1097,831,887
1098,833,889
1099,835,890
1100,837,889
1101,839,887
1102,834,885
1103,835,888
1104,838,888
1105,837,885
1106,835,885
1107,830,882
1108,832,883
1109,834,883
1110,833,886
1111,834,887
1112,838,886
1113,839,884
1114,839,885
1115,841,885
1116,841,883
1117,838,884
1118,836,886
1119,836,887
1120,835,888
1121,837,886
1122,838,885
1123,839,885
1124,839,886
1125,841,886
1126,841,886
1127,842,886
1128,841,886
1129,839,884
1130,833,883
1131,835,882
1132,835,883
1133,835,884
1134,838,885
1135,841,884
1136,845,884
1137,845,885
1138,845,884
1139,842,885
1140,844,886
1141,841,882
1142,841,882
1143,839,882
1144,840,881
1145,841,884
1146,841,885
1147,845,888
1148,846,889
1149,848,889
1150,847,890
1151,848,892
1152,850,888
1153,849,886
1154,851,884
1155,853,883
1156,854,881
1157,855,880
1158,856,881
1159,855,882
1160,857,881
1161,856,878
1162,859,871
1163,859,868
1164,858,865
1165,860,865
1166,859,866
1167,857,868
1168,857,870
1169,858,874
1170,858,876
1171,861,878
1172,860,880
1173,863,881
1174,862,878
1175,863,878
1176,863,878
1177,860,880
1178,858,879
1179,855,880
1180,853,881
1181,853,881
1182,852,884
1183,852,885
1184,854,887
1185,852,887
1186,852,886
1187,854,887
1188,854,884
1189,853,879
1190,852,879
1191,851,880
1192,845,884
1193,848,886
1194,849,888
1195,851,890
1196,852,891
1197,857,893
1198,860,893
1199,862,893
1200,861,889
1201,860,881
1202,860,870
1203,864,848
1204,874,826
1205,885,795
1206,900,762
1207,917,732
1208,941,701
1209,964,677
1210,986,661
1211,1006,656
1212,1019,668
1213,1032,693
1214,1038,719
1215,1043,751
1216,1050,778
1217,1056,802
1218,1059,817
1219,1059,836
1220,1052,849
1221,1042,861
1222,1028,876
1223,1013,882
1224,996,886
1225,976,887
1226,958,886
1227,938,890
1228,920,887
1229,906,892
1230,894,896
1231,884,898
1232,878,900
1233,872,901
1234,868,901
1235,864,900
1236,864,900
1237,864,899
1238,863,896
1239,863,896
1240,864,898
1241,866,903
1242,866,904
1243,866,906
1244,866,906
1245,869,907
1246,870,905
1247,870,902
1248,869,899
1249,868,897
1250,866,897
1251,868,897
1252,869,901
1253,871,900
1254,870,901
1255,871,905
1256,871,905
1257,872,907
1258,873,906
1259,871,905
1260,871,902
1261,873,900
1262,871,900
1263,873,897
1264,873,899
1265,874,900
1266,874,903
1267,875,902
1268,876,905
1269,878,906
1270,879,905
1271,879,905
1272,878,902
1273,877,902
1274,875,902
1275,876,900
1276,876,900
1277,878,901
1278,879,903
1279,878,905
1280,881,907
1281,882,906
1282,881,906
1283,882,904
1284,879,903
1285,881,904
1286,881,902
1287,880,901
1288,879,899
1289,881,903
1290,881,900
1291,883,903
1292,884,904
1293,887,905
1294,888,903
1295,888,904
1296,888,903
1297,886,904
1298,887,902
1299,886,902
1300,885,901
1301,885,903
1302,888,906
1303,889,903
1304,891,905
1305,894,905
1306,892,902
1307,894,899
1308,892,900
1309,891,901
1310,892,899
1311,890,898
1312,890,898
1313,890,900
1314,889,901
1315,891,901
1316,891,901
1317,891,901
1318,891,898
1319,891,899
1320,888,895
1321,887,895
1322,884,896
1323,882,895
1324,881,896
1325,880,895
1326,880,894
1327,881,895
1328,880,894
1329,880,893
1330,875,894
1331,874,893
1332,870,892
1333,869,889
1334,864,891
1335,860,888
1336,860,890
1337,862,894
1338,860,896
1339,860,898
1340,860,899
1341,860,899
1342,858,897
1343,859,894
1344,857,893
1345,854,894
1346,854,895
1347,852,892
1348,855,894
1349,857,894
1350,857,896
1351,857,896
1352,858,897
1353,857,896
1354,856,895
1355,857,896
1356,857,894
1357,855,893
1358,857,893
1359,853,894
1360,856,897
1361,857,898
1362,855,899
1363,858,897
1364,853,898
1365,853,895
1366,857,893
1367,855,895
1368,856,891
1369,855,894
1370,854,895
1371,852,895
1372,852,896
1373,850,897
1374,851,900
1375,853,903
1376,855,906
1377,855,903
1378,854,902
1379,854,900
1380,853,899
1381,850,896
1382,846,894
1383,847,897
1384,847,900
1385,846,902
1386,848,900
1387,848,901
1388,853,903
1389,853,901
1390,853,899
1391,850,899
1392,851,897
1393,849,898
1394,849,895
1395,850,897
1396,847,898
1397,847,898
1398,847,900
1399,848,901
1400,850,901
1401,852,903
1402,853,902
1403,854,902
1404,851,901
1405,849,899
1406,847,897
1407,846,897
1408,847,896
1409,850,896
1410,850,900
1411,853,902
1412,851,903
1413,854,903
1414,854,902
1415,855,898
1416,855,895
1417,853,892
1418,853,892
1419,850,892
1420,851,896
1421,851,896
1422,855,897
1423,855,901
1424,857,902
1425,860,903
1426,861,902
1427,860,900
1428,856,897
1429,857,897
1430,856,894
1431,857,894
1432,857,896
1433,858,899
1434,859,905
1435,860,907
1436,864,906
1437,864,903
1438,862,898
1439,862,895
1440,862,893
1441,861,890
1442,861,891
1443,858,895
1444,860,897
1445,858,899
1446,861,899
1447,862,901
1448,866,904
1449,868,905
1450,868,903
1451,866,900
1452,866,899
1453,863,898
1454,863,896
1455,862,895
1456,863,895
1457,861,898
1458,865,901
1459,867,903
1460,869,905
1461,870,904
1462,868,902
1463,869,900
1464,866,897
1465,866,896
1466,867,897
1467,864,897
1468,863,898
1469,862,900
1470,865,901
1471,867,901
1472,871,903
1473,870,903
1474,871,902
1475,868,900
1476,869,900
1477,867,898
1478,864,896
1479,864,896
1480,863,895
1481,867,896
1482,869,898
1483,871,903
1484,874,905
1485,875,904
1486,874,905
1487,874,903
1488,874,897
1489,873,894
1490,871,893
1491,869,892
1492,868,895
1493,870,898
1494,871,899
1495,872,902
1496,873,904
1497,877,906
1498,876,903
1499,876,905
1500,875,904
1501,875,904
1502,875,899
1503,872,898
1504,874,896
1505,873,900
1506,877,902
1507,880,904
1508,882,906
1509,885,905
1510,885,903
1511,883,899
1512,883,896
1513,880,896
1514,883,892
1515,883,888
1516,884,887
1517,885,887
1518,887,887
1519,889,888
1520,889,889
1521,890,888
1522,891,888
1523,887,889
1524,885,889
1525,885,889
1526,885,891
1527,887,894
1528,886,895
1529,888,899
1530,890,901
1531,889,902
1532,887,904
1533,888,904
1534,885,905
1535,881,904
1536,881,901
1537,878,900
1538,877,899
1539,876,899
1540,874,900
1541,875,903
1542,877,904
1543,878,904
1544,880,906
1545,881,907
1546,884,907
1547,881,907
1548,879,905
1549,881,905
1550,879,905
1551,878,902
1552,879,903
1553,880,904
1554,885,900
1555,888,888
1556,894,867
1557,907,842
1558,921,813
1559,941,779
1560,964,744
1561,990,716
1562,1017,698
1563,1044,695
1564,1065,706
1565,1081,726
1566,1092,751
1567,1099,779
1568,1104,805
1569,1111,829
1570,1110,849
1571,1105,860
1572,1092,874
1573,1078,885
1574,1064,892
1575,1050,895
1576,1034,899
1577,1017,900
1578,998,902
1579,980,910
1580,964,915
1581,947,920
1582,928,921
1583,913,917
1584,898,907
1585,890,903
1586,883,900
1587,882,902
1588,882,908
1589,885,912
1590,885,916
1591,889,918
1592,893,918
1593,894,917
1594,896,916
1595,893,913
1596,892,913
1597,890,912
1598,888,910
1599,888,911
1600,889,916
1601,888,917
1602,890,918
1603,891,921
1604,893,919
1605,895,918
1606,894,914
1607,892,913
1608,891,910
1609,891,912
1610,890,909
1611,891,913
1612,891,915
1613,891,916
1614,891,916
1615,893,916
1616,892,914
1617,892,917
1618,892,912
1619,894,912
1620,896,912
1621,895,915
1622,895,917
1623,895,918
1624,893,916
1625,894,912
1626,894,907
1627,894,902
1628,896,906
1629,896,908
1630,901,910
1631,901,915
1632,901,913
1633,898,912
1634,896,910
1635,894,911
1636,893,911
1637,894,912
1638,897,915
1639,898,917
1640,897,920
1641,900,920
1642,899,915
1643,900,910
1644,899,908
1645,898,906
1646,899,906
1647,897,909
1648,896,911
1649,896,914
1650,897,915
1651,901,915
1652,899,916
1653,902,912
1654,903,912
1655,902,912
1656,900,906
1657,898,906
1658,895,905
1659,897,906
1660,896,907
1661,896,911
1662,896,915
1663,898,914
1664,897,915
1665,901,914
1666,901,914
1667,900,914
1668,897,911
1669,896,912
1670,894,911
1671,891,911
1672,888,913
1673,887,905
1674,887,899
1675,888,895
1676,887,898
1677,887,901
1678,885,903
1679,883,909
1680,878,909
1681,872,911
1682,869,908
1683,866,902
1684,865,901
1685,861,898
1686,862,898
1687,864,902
1688,866,904
1689,868,908
1690,865,911
1691,863,910
1692,862,905
1693,858,903
1694,858,902
1695,857,900
1696,853,904
1697,854,907
1698,856,908
1699,857,909
1700,856,908
1701,854,907
1702,853,904
1703,854,904
1704,855,899
1705,855,898
1706,855,898
1707,851,898
1708,852,901
1709,852,905
1710,850,907
1711,853,907
1712,853,910
1713,857,909
1714,854,913
1715,854,915
1716,855,916
1717,850,913
1718,849,912
1719,847,903
1720,845,898
1721,848,895
1722,851,896
1723,851,903
1724,852,908
1725,855,909
1726,852,906
1727,850,906
1728,848,904
1729,848,901
1730,847,901
1731,844,903
1732,845,901
1733,847,911
1734,845,915
1735,845,915
1736,849,913
1737,848,909
1738,847,908
1739,845,907
1740,844,908
1741,843,908
1742,843,905
1743,842,897
1744,839,896
1745,838,896
1746,843,898
1747,842,901
1748,845,908
1749,844,914
1750,842,913
1751,841,912
1752,844,909
1753,842,905
1754,840,899
1755,834,896
1756,833,898
1757,836,898
1758,837,902
1759,839,903
1760,837,906
1761,841,910
1762,840,908
1763,841,904
1764,838,903
1765,837,902
1766,836,903
1767,835,901
1768,837,901
1769,836,901
1770,837,901
1771,837,902
1772,839,904
1773,842,909
1774,841,908
1775,837,905
1776,839,903
1777,841,901
1778,839,900
1779,839,899
1780,839,901
1781,838,902
1782,842,903
1783,840,904
1784,840,904
1785,842,903
1786,843,901
1787,842,901
1788,840,899
1789,840,896
1790,840,899
1791,838,898
1792,839,898
1793,839,903
1794,841,903
1795,842,902
1796,843,902
1797,845,904
1798,845,906
1799,842,905
1800,841,905
1801,838,903
1802,837,899
1803,837,896
1804,836,895
1805,838,898
1806,839,901
1807,842,901
1808,842,908
1809,846,907
1810,846,906
1811,843,905
1812,842,900
1813,843,896
1814,841,895
1815,840,894
1816,837,896
1817,836,899
1818,839,903
1819,842,905
1820,843,905
1821,845,903
1822,846,898
1823,845,899
1824,844,898
1825,845,899
1826,845,900
1827,844,896
1828,843,895
1829,843,894
1830,845,899
1831,846,901
1832,847,904
1833,846,904
1834,848,902
1835,845,905
1836,841,901
1837,843,900
1838,840,899
1839,840,901
1840,841,898
1841,841,899
1842,843,902
1843,844,902
1844,845,904
1845,847,906
1846,850,904
1847,848,907
1848,846,906
1849,847,905
1850,847,902
1851,845,896
1852,845,895
1853,844,896
1854,844,898
1855,845,899
1856,844,904
1857,848,905
1858,854,908
1859,855,906
1860,855,905
1861,855,901
1862,856,902
1863,855,901
1864,854,898
1865,854,894
1866,854,889
1867,857,884
1868,859,887
1869,863,886
1870,863,891
1871,862,893
1872,862,891
1873,859,888
1874,858,888
1875,856,885
1876,853,888
1877,853,892
1878,857,895
1879,857,894
1880,859,895
1881,864,897
1882,862,897
1883,861,901
1884,861,900
1885,858,902
1886,856,903
1887,857,903
1888,853,899
1889,849,902
1890,852,898
1891,847,896
1892,847,899
1893,849,902
1894,850,904
1895,852,904
1896,852,905
1897,851,905
1898,849,906
1899,850,904
1900,847,905
1901,847,904
1902,848,903
1903,851,903
1904,853,906
1905,857,909
1906,857,909
1907,858,909
1908,858,905
1909,860,893
1910,864,872
1911,870,847
1912,883,814
1913,900,781
1914,922,750
1915,951,722
1916,977,707
1917,1003,703
1918,1027,708
1919,1044,726
1920,1055,746
1921,1065,768
1922,1067,792
1923,1072,809
1924,1073,825
1925,1073,840
1926,1068,855
1927,1059,870
1928,1049,882
1929,1039,895
1930,1028,901
1931,1015,905
1932,998,905
1933,980,906
1934,964,904
1935,946,906
1936,927,906
1937,909,906
1938,895,908
1939,882,908
1940,873,914
1941,868,914
1942,863,917
1943,863,917
1944,861,917
1945,863,915
1946,860,911
1947,859,911
1948,859,910
1949,859,911
1950,860,914
1951,861,916
1952,863,919
1953,864,921
1954,863,922
1955,863,922
1956,863,920
1957,865,920
1958,862,915
1959,861,912
1960,863,911
1961,861,909
1962,865,911
1963,866,914
1964,867,913
1965,867,915
1966,869,916
1967,871,915
1968,871,916
1969,869,915
1970,868,914
1971,867,913
1972,867,911
1973,868,914
1974,867,916
1975,869,918
1976,869,923
1977,875,924
1978,876,918
1979,876,913
1980,875,910
1981,873,909
1982,870,907
1983,872,912
1984,873,916
1985,873,918
1986,874,919
1987,875,916
1988,876,914
1989,880,913
1990,880,914
1991,879,914
1992,876,915
1993,876,915
1994,877,913
1995,876,910
1996,877,909
1997,874,908
1998,877,910
1999,879,915
2000,882,918
2001,885,920
2002,887,919
2003,887,918
2004,883,917
2005,881,916
2006,880,911
2007,881,910
2008,882,911
2009,882,914
2010,884,916
2011,886,919
2012,888,921
2013,890,922
2014,890,919
2015,891,918
2016,888,912
2017,888,910
2018,887,909
2019,887,907
2020,887,909
2021,885,910
2022,886,907
2023,886,907
2024,885,907
2025,887,911
2026,888,907
2027,886,909
2028,885,911
2029,884,912
2030,880,910
2031,880,908
2032,876,905
2033,872,906
2034,873,908
2035,874,909
2036,873,910
2037,874,911
2038,871,909
2039,868,906
2040,866,902
2041,865,902
2042,863,901
2043,860,902
2044,859,902
2045,857,906
2046,857,907
2047,854,908
2048,855,910
2049,857,910
2050,856,911
2051,853,909
2052,851,908
2053,850,906
2054,849,906
2055,848,906
2056,845,905
2057,844,908
2058,845,911
2059,846,911
2060,847,911
2061,851,910
2062,852,907
2063,855,906
2064,854,903
2065,855,904
2066,849,903
2067,848,905
2068,849,907
2069,850,908
2070,851,908
2071,852,909
2072,854,912
2073,856,908
2074,855,909
2075,855,906
2076,854,906
2077,853,903
2078,852,907
2079,851,905
2080,849,907
2081,850,909
2082,849,908
2083,848,910
2084,850,912
2085,851,912
2086,852,912
2087,852,914
2088,852,913
2089,848,910
2090,848,908
2091,846,904
2092,845,903
2093,844,903
2094,846,907
2095,845,911
2096,847,914
2097,849,914
2098,847,914
2099,847,912
2100,845,908
2101,845,904
2102,844,903
2103,841,904
2104,841,907
2105,840,910
2106,840,909
2107,842,910
2108,844,910
2109,845,913
2110,849,910
2111,848,909
2112,848,908
2113,848,909
2114,848,906
2115,844,904
2116,841,906
2117,843,906
2118,844,908
2119,846,908
2120,846,910
2121,849,910
2122,849,910
2123,850,910
2124,850,907
2125,845,906
2126,846,904
2127,848,902
2128,845,905
2129,846,907
2130,847,907
2131,848,910
2132,848,910
2133,848,911
2134,850,909
2135,850,908
2136,851,907
2137,850,906
2138,851,904
2139,850,904
2140,849,905
2141,848,904
2142,851,907
2143,850,909
2144,854,909
2145,854,912
2146,854,909
2147,854,908
2148,854,907
2149,850,904
2150,849,905
2151,852,904
2152,849,906
2153,851,906
2154,853,906
2155,853,909
2156,855,910
2157,857,907
2158,858,906
2159,857,908
2160,855,907
2161,856,907
2162,854,905
2163,850,905
2164,851,905
2165,851,905
2166,855,906
2167,856,910
2168,856,911
2169,858,910
2170,860,908
2171,859,909
2172,858,907
2173,857,904
2174,852,904
2175,852,903
2176,853,903
2177,854,906
2178,857,908
2179,860,908
2180,861,909
2181,862,908
2182,860,908
2183,859,909
2184,860,907
2185,859,906
2186,860,906
2187,859,903
2188,856,906
2189,855,907
2190,855,907
2191,858,910
2192,857,912
2193,860,913
2194,860,914
2195,864,913
2196,862,908
2197,862,907
2198,860,907
2199,856,904
2200,857,908
2201,854,910
2202,858,910
2203,860,911
2204,862,913
2205,863,915
2206,859,912
2207,861,910
2208,859,905
2209,858,908
2210,859,908
2211,857,910
2212,856,910
2213,861,911
2214,862,912
2215,861,911
2216,863,913
2217,868,915
2218,871,914
2219,875,915
2220,877,912
2221,876,909
2222,873,905
2223,870,901
2224,869,897
2225,868,894
2226,870,894
2227,874,894
2228,877,898
2229,879,900
2230,880,899
2231,878,900
2232,879,899
2233,876,899
2234,875,896
2235,874,896
2236,872,899
2237,874,904
2238,876,906
2239,882,908
2240,884,909
2241,884,908
2242,884,905
2243,885,905
2244,885,906
2245,885,906
2246,879,908
2247,877,907
2248,877,907
2249,873,908
2250,875,911
2251,875,909
2252,875,914
2253,877,913
2254,878,914
2255,878,911
2256,879,910
2257,878,909
2258,877,910
2259,878,909
2260,876,910
2261,876,908
2262,878,911
2263,878,915
2264,880,919
2265,882,920
2266,886,920
2267,887,917
2268,890,911
2269,892,894
2270,896,868
2271,904,835
2272,921,794
2273,944,756
2274,975,721
2275,1008,701
2276,1037,696
2277,1064,708
2278,1084,733
2279,1095,764
2280,1102,793
2281,1106,818
2282,1106,839
2283,1106,852
2284,1103,868
2285,1099,881
2286,1088,896
2287,1076,906
2288,1066,914
2289,1053,920
2290,1035,921
2291,1012,921
2292,990,921
2293,965,919
2294,943,916
2295,924,918
2296,907,920
2297,901,924
2298,893,929
2299,893,929
2300,895,929
2301,897,929
2302,895,926
2303,895,923
2304,896,921
2305,896,921
2306,892,923
2307,891,923
2308,891,922
2309,893,924
2310,892,927
2311,892,929
2312,897,932
2313,900,933
2314,900,933
2315,900,931
2316,898,929
2317,898,927
2318,896,927
2319,892,926
2320,895,925
2321,895,927
2322,897,928
2323,897,929
2324,901,932
2325,904,933
2326,905,932
2327,903,931
2328,904,930
2329,904,930
2330,902,929
2331,900,928
2332,899,930
2333,899,929
2334,899,931
2335,902,930
2336,903,931
2337,907,930
2338,910,929
2339,912,930
2340,912,927
2341,913,928
2342,912,929
2343,909,926
2344,907,928
2345,910,928
2346,910,929
2347,912,929
2348,912,929
2349,913,934
2350,915,933
2351,914,932
2352,918,931
2353,917,929
2354,916,929
2355,917,932
2356,915,931
2357,915,928
2358,915,929
2359,916,929
2360,916,930
2361,918,930
2362,921,931
2363,920,930
2364,923,931
2365,923,931
2366,922,930
2367,921,926
2368,920,927
2369,920,926
2370,920,927
2371,922,931
2372,922,929
2373,924,932
2374,926,931
2375,927,931
2376,929,932
2377,926,929
2378,927,927
2379,924,924
2380,921,920
2381,919,918
2382,918,916
2383,920,917
2384,923,921
2385,925,924
2386,927,923
2387,925,926
2388,921,926
2389,917,923
2390,915,921
2391,914,922
2392,913,923
2393,914,921
2394,913,917
2395,913,913
2396,914,911
2397,914,912
2398,912,914
2399,912,917
2400,907,922
2401,903,924
2402,902,922
2403,900,918
2404,897,920
2405,896,918
2406,893,921
2407,895,918
2408,892,914
2409,892,914
2410,893,908
2411,894,908
2412,893,910
2413,892,910
2414,891,912
2415,887,917
2416,885,918
2417,886,918
2418,886,924
2419,889,926
2420,891,924
2421,892,923
2422,896,915
2423,894,914
2424,896,914
2425,894,914
2426,892,920
2427,890,923
2428,888,926
2429,890,930
2430,888,927
2431,890,925
2432,891,920
2433,892,922
2434,893,918
2435,893,918
2436,891,911
2437,891,911
2438,888,907
2439,886,909
2440,886,909
2441,887,914
2442,888,919
2443,892,923
2444,892,924
2445,891,926
2446,892,919
2447,891,916
2448,889,915
2449,889,914
2450,889,915
2451,886,917
2452,885,916
2453,884,918
2454,883,920
2455,879,922
2456,881,924
2457,883,925
2458,883,922
2459,884,920
2460,883,920
2461,880,917
2462,879,916
2463,879,916
2464,878,916
2465,880,915
2466,882,918
2467,880,919
2468,881,921
2469,883,922
2470,883,922
2471,883,922
2472,882,920
2473,881,917
2474,880,918
2475,881,916
2476,879,915
2477,877,915
2478,880,919
2479,880,917
2480,884,920
2481,885,921
2482,885,919
2483,885,918
2484,884,919
2485,882,916
2486,883,914
2487,880,912
2488,881,913
2489,881,912
2490,883,914
2491,886,916
2492,886,918
2493,887,921
2494,888,916
2495,885,915
2496,887,914
2497,887,912
2498,885,912
2499,885,913
2500,884,913
2501,886,914
2502,885,916
2503,885,915
2504,886,916
2505,888,917
2506,889,915
2507,889,913
2508,889,912
2509,888,909
2510,889,910
2511,888,909
2512,887,910
2513,887,910
2514,887,914
2515,888,913
2516,888,913
2517,890,916
2518,891,915
2519,890,915
2520,892,914
2521,891,913
2522,889,912
2523,888,911
2524,886,910
2525,886,911
2526,888,914
2527,891,913
2528,892,914
2529,891,915
2530,893,915
2531,891,913
2532,890,913
2533,889,910
2534,889,909
2535,883,910
2536,882,911
2537,885,909
2538,885,910
2539,885,911
2540,887,914
2541,891,916
2542,892,916
2543,891,914
2544,890,914
2545,885,913
2546,886,910
2547,886,909
2548,884,909
2549,886,908
2550,886,911
2551,888,913
2552,889,913
2553,888,915
2554,889,914
2555,890,911
2556,891,911
2557,890,911
2558,890,910
2559,885,909
2560,883,908
2561,884,908
2562,885,910
2563,886,911
2564,888,912
2565,889,914
2566,889,915
2567,890,913
2568,887,911
2569,888,907
2570,889,909
2571,887,909
2572,886,910
2573,887,911
2574,888,914
2575,888,914
2576,887,916
2577,892,918
2578,895,916
2579,895,914
2580,899,915
2581,900,912
2582,900,911
2583,898,906
2584,898,905
2585,897,903
2586,897,899
2587,897,895
2588,899,897
2589,901,896
2590,903,896
2591,902,898
2592,902,898
2593,900,899
2594,898,898
2595,898,898
2596,895,897
2597,896,898
2598,897,901
2599,900,903
2600,899,906
2601,904,907
2602,902,909
2603,903,909
2604,901,910
2605,898,910
2606,894,909
2607,892,909
2608,890,909
2609,890,907
2610,888,909
2611,887,910
2612,888,912
2613,889,915
2614,889,913
2615,889,913
2616,887,912
2617,883,910
2618,882,910
2619,881,907
2620,880,907
2621,883,909
2622,886,912
2623,888,916
2624,889,919
2625,894,922
2626,894,924
2627,893,919
2628,894,910
2629,895,892
2630,897,867
2631,905,833
2632,918,795
2633,937,749
2634,961,709
2635,990,675
2636,1020,660
2637,1047,671
2638,1068,702
2639,1079,743
2640,1093,784
2641,1103,819
2642,1109,844
2643,1104,866
2644,1096,882
2645,1082,896
2646,1066,907
2647,1048,914
2648,1032,917
2649,1013,919
2650,993,917
2651,972,919
2652,954,920
2653,934,918
2654,920,921
2655,910,921
2656,898,919
2657,891,920
2658,889,924
2659,890,925
2660,891,927
2661,890,930
2662,893,929
2663,894,927
2664,894,930
2665,896,926
2666,894,925
2667,892,927
2668,891,925
2669,893,926
2670,892,928
2671,895,928
2672,896,932
2673,898,934
2674,899,933
2675,900,930
2676,898,931
2677,895,929
2678,894,928
2679,893,927
2680,893,926
2681,894,927
2682,895,930
2683,896,932
2684,899,933
2685,899,934
2686,901,933
2687,901,930
2688,901,931
2689,900,929
2690,898,928
2691,899,928
2692,899,929
2693,897,931
2694,898,931
2695,899,931
2696,900,933
2697,900,933
2698,903,930
2699,902,932
2700,904,930
2701,900,931
2702,902,929
2703,902,929
2704,898,929
2705,899,929
2706,899,928
2707,901,931
2708,902,933
2709,905,934
2710,906,933
2711,908,932
2712,907,930
2713,906,929
2714,904,929
2715,904,927
2716,903,928
2717,906,927
2718,905,928
2719,907,932
2720,911,929
2721,911,934
2722,911,933
2723,912,932
2724,907,930
2725,907,931
2726,911,927
2727,910,929
2728,906,927
2729,908,927
2730,908,931
2731,909,929
2732,909,929
2733,910,929
2734,910,930
2735,913,927
2736,913,925
2737,914,922
2738,911,921
2739,909,921
2740,907,922
2741,905,919
2742,905,922
2743,906,924
2744,906,924
2745,907,923
2746,906,921
2747,904,920
2748,904,917
2749,901,915
2750,899,913
2751,896,914
2752,894,913
2753,890,914
2754,889,916
2755,890,915
2756,890,913
2757,891,917
2758,889,917
2759,889,915
2760,887,915
2761,883,915
2762,880,909
2763,877,911
2764,875,910
2765,875,910
2766,875,912
2767,875,915
2768,875,915
2769,877,916
2770,876,913
2771,874,915
2772,873,912
2773,872,912
2774,872,912
2775,869,911
2776,866,911
2777,869,914
2778,867,914
2779,868,913
2780,871,918
2781,870,918
2782,870,919
2783,871,918
2784,870,916
2785,869,917
2786,867,915
2787,866,916
2788,865,912
2789,863,914
2790,863,916
2791,865,917
2792,866,922
2793,867,919
2794,865,920
2795,865,918
2796,865,918
2797,865,918
2798,862,917
2799,859,914
2800,860,916
2801,857,918
2802,857,920
2803,858,919
2804,859,921
2805,861,922
2806,860,921
2807,859,921
2808,858,918
2809,858,918
2810,855,916
2811,855,914
2812,853,917
2813,853,916
2814,852,917
2815,854,918
2816,853,920
2817,854,920
2818,856,917
2819,854,920
2820,854,916
2821,854,913
2822,850,914
2823,848,916
2824,848,912
2825,846,913
2826,848,913
2827,850,916
2828,850,915
2829,852,917
2830,852,917
2831,851,915
2832,850,912
2833,851,912
2834,850,909
2835,849,909
2836,848,910
2837,849,912
2838,849,912
2839,846,915
2840,850,916
2841,851,917
2842,851,917
2843,853,915
2844,854,912
2845,850,911
2846,849,910
2847,849,911
2848,848,910
2849,848,912
2850,848,914
2851,849,913
2852,851,916
2853,852,913
2854,853,912
2855,853,914
2856,853,911
2857,855,908
2858,852,911
2859,850,909
2860,852,908
2861,850,910
2862,847,910
2863,851,912
2864,851,914
2865,854,914
2866,856,914
2867,857,913
2868,857,912
2869,854,909
2870,855,911
2871,852,908
2872,851,909
2873,851,908
2874,850,909
2875,851,911
2876,851,910
2877,855,914
2878,856,915
2879,857,914
2880,859,914
2881,856,911
2882,852,908
2883,850,907
2884,850,909
2885,850,908
2886,852,909
2887,853,911
2888,857,913
2889,859,915
2890,860,914
2891,859,912
2892,858,912
2893,858,912
2894,854,909
2895,852,909
2896,852,908
2897,852,909
2898,853,910
2899,855,913
2900,856,912
2901,856,913
2902,856,914
2903,857,913
2904,855,911
2905,856,908
2906,858,907
2907,853,906
2908,855,908
2909,858,908
2910,854,911
2911,857,914
2912,857,912
2913,858,913
2914,858,912
2915,857,912
2916,857,910
2917,856,907
2918,854,906
2919,854,906
2920,856,906
2921,854,909
2922,856,908
2923,857,910
2924,859,912
2925,859,911
2926,860,911
2927,860,912
2928,862,909
2929,860,909
2930,861,906
2931,859,904
2932,858,905
2933,858,907
2934,858,908
2935,859,911
2936,859,911
2937,861,911
2938,864,912
2939,864,911
2940,863,909
2941,862,910
2942,860,907
2943,860,906
2944,862,909
2945,860,909
2946,863,911
2947,864,912
2948,867,913
2949,871,910
2950,876,908
2951,874,903
2952,873,899
2953,871,894
2954,870,890
2955,869,887
2956,868,885
2957,867,890
2958,867,891
2959,868,894
2960,866,895
2961,869,898
2962,868,899
2963,871,898
2964,870,898
2965,872,895
2966,871,897
2967,869,896
2968,869,896
2969,869,899
2970,870,901
2971,870,906
2972,870,909
2973,870,910
2974,869,912
2975,866,907
2976,867,907
2977,862,907
2978,859,904
2979,858,905
2980,855,903
2981,856,905
2982,856,907
2983,858,909
2984,859,909
2985,861,909
2986,862,908
2987,861,910
2988,862,909
2989,857,906
2990,856,908
2991,855,908
2992,857,906
2993,857,911
2994,858,912
2995,859,916
2996,861,916
2997,864,912
2998,869,899
2999,871,876
3000,878,843
3001,888,800
3002,906,751
3003,927,701
3004,953,658
3005,977,638
3006,1003,648
3007,1023,676
3008,1037,717
3009,1047,758
3010,1056,795
3011,1062,823
3012,1066,841
3013,1065,856
3014,1054,869
3015,1044,882
3016,1027,892
3017,1014,902
3018,998,909
3019,979,912
3020,960,914
3021,941,916
3022,924,917
3023,910,918
3024,897,919
3025,885,919
3026,876,917
3027,868,918
3028,862,917
3029,861,920
3030,860,923
3031,860,925
3032,862,926
3033,863,928
3034,866,925
3035,865,926
3036,865,924
3037,865,925
3038,862,921
3039,859,921
3040,861,922
3041,861,920
3042,863,925
3043,863,927
3044,862,928
3045,863,928
3046,866,928
3047,867,926
3048,865,927
3049,866,926
3050,864,925
3051,865,925
3052,864,925
3053,864,924
3054,866,928
3055,867,928
3056,869,931
3057,870,931
3058,872,929
3059,872,928
3060,873,929
3061,870,927
3062,870,925
3063,867,924
3064,868,925
3065,869,924
3066,868,925
3067,870,926
3068,871,928
3069,872,930
3070,875,931
3071,874,927
3072,873,924
3073,873,925
3074,872,924
3075,870,922
3076,870,923
3077,872,923
3078,869,926
3079,872,927
3080,871,927
3081,874,931
3082,874,927
3083,876,927
3084,875,926
3085,875,925
3086,873,923
3087,874,921
3088,874,923
3089,874,923
3090,875,922
3091,875,925
3092,877,925
3093,880,927
3094,880,927
3095,881,927
3096,883,926
3097,882,924
3098,883,921
3099,878,921
3100,877,919
3101,876,921
3102,878,925
3103,878,925
3104,877,925
3105,882,928
3106,885,926
3107,886,922
3108,885,921
3109,884,920
3110,882,916
3111,878,915
3112,876,914
3113,875,914
3114,877,918
3115,881,917
3116,879,917
3117,880,917
3118,880,918
3119,877,912
3120,875,913
3121,873,912
3122,872,909
3123,867,908
3124,869,909
3125,865,909
3126,864,910
3127,863,912
3128,861,914
3129,860,915
3130,863,915
3131,862,911
3132,860,913
3133,858,910
3134,856,907
3135,850,909
3136,849,905
3137,847,908
3138,848,909
3139,851,912
3140,849,913
3141,848,915
3142,850,912
3143,848,911
3144,846,913
3145,847,912
3146,844,911
3147,842,911
3148,838,909
3149,838,911
3150,839,913
3151,839,912
3152,841,914
3153,840,915
3154,841,916
3155,842,917
3156,838,915
3157,835,915
3158,836,914
3159,833,911
3160,832,913
3161,831,913
3162,832,915
3163,835,917
3164,835,918
3165,836,920
3166,837,921
3167,840,919
3168,838,921
3169,835,916
3170,834,914
3171,831,915
3172,832,915
3173,831,916
3174,831,919
3175,830,919
3176,832,921
3177,832,921
3178,833,921
3179,832,918
3180,830,917
3181,830,918
3182,827,917
3183,827,915
3184,825,916
3185,824,917
3186,823,918
3187,824,917
3188,826,920
3189,826,921
3190,828,920
3191,825,919
3192,824,918
3193,823,918
3194,823,914
3195,824,912
3196,823,912
3197,823,913
3198,823,913
3199,822,915
3200,822,918
3201,823,919
3202,826,920
3203,825,916
3204,826,919
3205,824,916
3206,824,915
3207,823,912
3208,821,910
3209,820,911
3210,819,915
3211,822,915
3212,820,917
3213,825,917
3214,825,917
3215,826,915
3216,824,916
3217,823,915
3218,823,913
3219,821,912
3220,822,911
3221,822,912
3222,822,913
3223,823,914
3224,824,914
3225,827,917
3226,829,916
3227,826,916
3228,827,914
3229,829,912
3230,825,912
3231,824,909
3232,823,912
3233,822,910
3234,822,911
3235,824,914
3236,823,915
3237,826,916
3238,827,916
3239,827,916
3240,828,915
3241,828,913
3242,825,911
3243,823,911
3244,822,908
3245,822,910
3246,820,913
3247,824,913
3248,825,914
3249,827,917
3250,829,915
3251,829,915
3252,827,913
3253,828,914
3254,825,911
3255,823,909
3256,820,908
3257,821,911
3258,822,911
3259,824,911
3260,827,913
3261,828,914
3262,830,914
3263,828,914
3264,831,913
3265,828,911
3266,828,911
3267,826,909
3268,826,910
3269,825,909
3270,825,911
3271,828,912
3272,827,914
3273,830,914
3274,831,917
3275,830,915
3276,829,912
3277,829,912
3278,824,911
3279,825,908
3280,824,910
3281,826,911
3282,826,911
3283,828,913
3284,827,916
3285,830,915
3286,830,916
3287,831,915
3288,831,909
3289,830,910
3290,827,908
3291,829,908
3292,827,910
3293,827,910
3294,827,911
3295,827,914
3296,830,911
3297,831,916
3298,833,917
3299,834,915
3300,833,913
3301,832,909
3302,828,909
3303,829,909
3304,830,909
3305,830,911
3306,829,914
3307,831,913
3308,831,916
3309,833,912
3310,833,915
3311,834,914
3312,835,915
3313,830,913
3314,833,913
3315,835,913
3316,835,913
3317,839,913
3318,839,913
3319,844,913
3320,843,913
3321,846,913
3322,846,909
3323,843,899
3324,842,898
3325,844,893
3326,845,892
3327,846,895
3328,844,896
3329,845,898
3330,843,900
3331,844,902
3332,845,904
3333,846,904
3334,846,904
3335,845,905
3336,845,903
3337,846,906
3338,843,906
3339,843,908
3340,840,910
3341,839,914
3342,838,913
3343,838,915
3344,838,916
3345,840,916
3346,841,916
3347,839,914
3348,839,916
3349,838,914
3350,835,914
3351,832,914
3352,832,911
3353,833,911
3354,832,914
3355,832,915
3356,831,915
3357,836,916
3358,839,918
3359,839,919
3360,840,920
3361,841,919
3362,840,921
3363,840,919
3364,840,916
3365,844,906
3366,846,887
3367,856,862
3368,868,825
3369,884,783
3370,906,742
3371,927,704
3372,952,678
3373,978,666
3374,994,675
3375,1008,693
3376,1016,722
3377,1023,754
3378,1028,784
3379,1035,812
3380,1040,831
3381,1043,848
3382,1038,867
3383,1026,879
3384,1012,893
3385,997,902
3386,980,908
3387,964,911
3388,946,914
3389,927,914
3390,910,919
3391,897,925
3392,886,926
3393,874,930
3394,863,930
3395,855,930
3396,848,929
3397,846,927
3398,845,929
3399,843,923
3400,845,928
3401,845,928
3402,844,930
3403,846,931
3404,847,934
3405,850,933
3406,851,934
3407,851,931
3408,851,932
3409,852,931
3410,849,931
3411,847,929
3412,847,927
3413,847,928
3414,846,931
3415,849,932
3416,852,932
3417,854,934
3418,856,931
3419,857,935
3420,858,934
3421,857,933
3422,856,931
3423,857,929
3424,855,928
3425,855,927
3426,856,928
3427,857,930
3428,859,931
3429,861,933
3430,864,935
3431,864,931
3432,862,932
3433,862,928
3434,861,927
3435,859,926
3436,860,924
3437,859,925
3438,861,928
3439,863,931
3440,863,930
3441,864,934
3442,867,932
3443,866,933
3444,866,929
3445,864,927
3446,864,926
3447,863,928
3448,863,926
3449,863,929
3450,862,929
3451,864,931
3452,864,931
3453,866,931
3454,869,934
3455,868,930
3456,868,932
3457,867,927
3458,867,928
3459,868,926
3460,867,927
3461,868,927
3462,868,929
3463,870,930
3464,869,930
3465,873,931
3466,875,933
3467,877,933
3468,877,929
3469,876,926
3470,875,926
3471,873,925
3472,874,923
3473,873,923
3474,872,926
3475,873,926
3476,874,925
3477,877,927
3478,878,926
3479,878,925
3480,877,925
3481,877,923
3482,873,921
3483,871,918
3484,868,920
3485,868,920
3486,868,920
3487,867,923
3488,868,922
3489,868,925
3490,869,923
3491,866,923
3492,864,921
3493,863,921
3494,859,921
3495,857,919
3496,853,918
3497,852,920
3498,851,922
3499,853,922
3500,850,921
3501,851,924
3502,850,923
3503,848,922
3504,844,924
3505,841,918
3506,841,918
3507,839,918
3508,837,918
3509,835,917
3510,834,917
3511,835,919
3512,836,923
3513,837,922
3514,837,924
3515,836,922
3516,836,921
3517,833,920
3518,832,919
3519,831,916
3520,827,916
3521,827,920
3522,827,918
3523,832,920
3524,833,921
3525,833,925
3526,833,925
3527,832,925
3528,831,924
3529,829,921
3530,828,922
3531,829,919
3532,826,919
3533,822,923
3534,822,923
3535,822,926
3536,823,924
3537,826,926
3538,827,926
3539,825,925
3540,827,922
3541,826,922
3542,823,921
3543,822,921
3544,821,918
3545,817,920
3546,819,921
3547,820,924
3548,818,925
3549,820,927
3550,822,926
3551,821,925
3552,822,925
3553,820,924
3554,817,922
3555,816,920
3556,815,920
3557,815,920
3558,811,921
3559,813,924
3560,815,924
3561,818,925
3562,819,926
3563,819,922
3564,820,923
3565,819,921
3566,818,918
3567,814,917
3568,814,918
3569,815,918
3570,815,919
3571,816,921
3572,816,922
3573,818,925
3574,820,924
3575,821,922
3576,820,920
3577,819,919
3578,818,917
3579,816,914
3580,814,916
3581,815,914
3582,814,917
3583,817,919
3584,820,919
3585,819,922
3586,822,922
3587,823,919
3588,823,920
3589,822,917
3590,821,916
3591,822,915
3592,819,913
3593,819,915
3594,819,917
3595,821,917
3596,820,921
3597,823,919
3598,824,920
3599,824,919
3600,826,920
3601,825,916
3602,824,916
3603,824,914
3604,822,914
3605,819,912
3606,821,915
3607,821,917
3608,821,919
3609,823,920
3610,824,921
3611,824,920
3612,826,917
3613,825,918
3614,824,916
3615,823,916
3616,822,915
3617,820,914
3618,822,915
3619,821,917
3620,824,919
3621,826,919
3622,828,920
3623,828,919
3624,829,918
3625,827,915
3626,823,914
3627,825,915
3628,823,915
3629,820,914
3630,819,912
3631,824,919
3632,825,918
3633,827,919
3634,829,919
3635,829,918
3636,828,918
3637,829,917
3638,823,916
3639,824,911
3640,825,913
3641,824,913
3642,825,915
3643,825,915
3644,827,916
3645,826,920
3646,828,919
3647,828,918
3648,827,915
3649,828,914
3650,827,914
3651,825,910
3652,827,911
3653,821,913
3654,826,914
3655,826,917
3656,827,918
3657,829,918
3658,829,918
3659,831,917
3660,829,917
3661,830,912
3662,830,914
3663,827,912
3664,828,912
3665,827,912
3666,827,915
3667,827,913
3668,828,914
3669,830,917
3670,832,918
3671,830,922
3672,832,918
3673,833,916
3674,834,915
3675,832,916
3676,833,915
3677,835,913
3678,833,914
3679,837,917
3680,839,914
3681,843,913
3682,841,908
3683,839,905
3684,843,899
3685,842,897
3686,842,895
3687,841,897
3688,840,895
3689,838,899
3690,838,901
3691,838,906
3692,836,903
3693,838,906
3694,842,905
3695,844,906
3696,843,903
3697,843,905
3698,841,905
3699,841,908
3700,839,910
3701,836,913
3702,836,914
3703,836,915
3704,837,914
3705,839,918
3706,835,916
3707,836,917
3708,834,915
3709,833,914
3710,832,911
3711,829,913
3712,829,912
3713,828,912
3714,829,913
3715,831,915
3716,831,915
3717,833,917
3718,835,916
3719,836,916
3720,836,917
3721,837,921
3722,836,921
3723,836,918
3724,835,916
3725,836,909
3726,836,895
3727,844,868
3728,858,835
3729,869,793
3730,890,751
3731,917,710
3732,944,679
3733,971,667
3734,990,669
3735,1007,693
3736,1019,722
3737,1024,760
3738,1028,793
3739,1036,823
3740,1040,846
3741,1040,859
3742,1036,876
3743,1021,888
3744,1010,899
3745,994,906
3746,978,911
3747,962,912
3748,943,911
3749,925,917
3750,908,917
3751,892,921
3752,879,924
3753,869,927
3754,862,928
3755,856,927
3756,847,925
3757,840,925
3758,839,926
3759,837,925
3760,837,926
3761,837,925
3762,837,927
3763,841,928
3764,840,929
3765,841,931
3766,843,929
3767,842,930
3768,842,928
3769,840,929
3770,844,928
3771,842,928
3772,843,924
3773,840,927
3774,843,930
3775,840,932
3776,842,930
3777,843,933
3778,847,933
3779,847,933
3780,845,932
3781,847,930
3782,846,928
3783,845,926
3784,845,928
3785,843,929
3786,845,929
3787,847,928
3788,849,931
3789,847,930
3790,851,931
3791,852,930
3792,853,928
3793,852,927
3794,850,927
3795,848,926
3796,847,924
3797,844,925
3798,844,926
3799,844,927
3800,847,929
3801,847,929
3802,850,932
3803,852,930
3804,855,930
3805,852,926
3806,851,925
3807,853,925
3808,851,923
3809,850,924
3810,850,926
3811,852,924
3812,853,925
3813,853,928
3814,857,930
3815,858,928
3816,856,929
3817,857,927
3818,858,925
3819,855,923
3820,857,921
3821,856,922
3822,856,922
3823,857,926
3824,860,924
3825,863,927
3826,863,926
3827,862,926
3828,866,925
3829,862,922
3830,863,923
3831,861,919
3832,860,921
3833,860,918
3834,862,920
3835,859,921
3836,861,920
3837,864,924
3838,866,921
3839,865,920
3840,864,918
3841,863,917
3842,860,915
3843,860,915
3844,856,916
3845,856,912
3846,855,913
3847,854,915
3848,852,914
3849,853,918
3850,853,919
3851,852,915
3852,848,917
3853,847,914
3854,843,913
3855,844,911
3856,842,912
3857,840,908
3858,839,909
3859,838,913
3860,837,912
3861,837,915
3862,838,916
3863,836,916
3864,833,914
3865,832,912
3866,828,912
3867,826,912
3868,824,909
3869,823,911
3870,823,911
3871,821,914
3872,821,916
3873,823,918
3874,824,917
3875,825,915
3876,824,914
3877,821,913
3878,820,911
3879,816,908
3880,814,910
3881,814,913
3882,815,914
3883,814,913
3884,816,913
3885,817,919
3886,818,917
3887,817,915
3888,815,916
3889,814,916
3890,812,915
3891,815,914
3892,811,914
3893,809,913
3894,810,917
3895,809,916
3896,809,918
3897,809,919
3898,811,918
3899,813,917
3900,811,918
3901,812,916
3902,810,916
3903,807,912
3904,804,912
3905,805,913
3906,804,911
3907,805,915
3908,808,917
3909,809,920
3910,809,920
3911,807,918
3912,806,916
3913,805,915
3914,804,914
3915,801,912
3916,798,910
3917,800,912
3918,800,914
3919,802,916
3920,802,917
3921,802,916
3922,803,916
3923,804,914
3924,803,914
3925,803,910
3926,802,910
3927,801,908
3928,799,905
3929,799,908
3930,801,909
3931,800,911
3932,801,913
3933,803,913
3934,803,913
3935,806,913
3936,805,912
3937,802,911
3938,803,910
3939,801,906
3940,801,908
3941,803,908
3942,803,907
3943,803,909
3944,806,909
3945,803,913
3946,806,912
3947,809,911
3948,808,910
3949,805,909
3950,805,909
3951,803,905
3952,802,906
3953,802,906
3954,803,906
3955,802,910
3956,801,912
3957,801,911
3958,805,911
3959,805,912
3960,808,912
3961,806,912
3962,804,911
3963,805,910
3964,803,907
3965,802,904
3966,804,904
3967,805,907
3968,808,908
3969,807,909
3970,812,912
3971,813,913
3972,812,911
3973,812,911
3974,809,910
3975,808,908
3976,808,910
3977,807,912
3978,808,910
3979,808,909
3980,807,909
3981,809,909
3982,810,908
3983,810,905
3984,813,898
3985,812,892
3986,811,890
3987,813,889
3988,811,891
3989,809,897
3990,809,900
3991,809,902
3992,812,904
3993,814,905
3994,812,905
3995,815,906
3996,815,901
3997,812,902
3998,811,898
3999,810,900
4000,807,901
4001,807,902
4002,807,901
4003,807,901
4004,809,902
4005,811,903
4006,813,902
4007,814,903
4008,815,904
4009,814,902
4010,812,903
4011,811,905
4012,811,903
4013,808,905
4014,809,908
4015,808,909
4016,812,912
4017,812,912
4018,814,907
4019,813,904
4020,813,901
4021,816,900
4022,815,899
4023,814,903
4024,814,898
4025,812,900
4026,815,896
4027,815,895
4028,815,895
4029,818,899
4030,820,904
4031,821,907
4032,822,910
4033,821,909
4034,818,908
4035,817,900
4036,815,896
4037,814,891
4038,816,889
4039,815,894
4040,818,894
4041,820,895
4042,823,899
4043,821,900
4044,822,900
4045,822,902
4046,823,901
4047,827,902
4048,824,898
4049,826,897
4050,830,896
4051,831,897
4052,831,896
4053,829,894
4054,830,894
4055,834,889
4056,834,886
4057,830,886
4058,832,887
4059,831,888
4060,830,889
4061,829,888
4062,829,887
4063,829,883
4064,830,884
4065,831,884
4066,831,887
4067,833,894
4068,831,899
4069,830,899
4070,827,894
4071,829,894
4072,826,890
4073,824,899
4074,820,905
4075,819,909
4076,820,905
4077,817,896
4078,817,893
4079,818,890
4080,816,891
4081,813,894
4082,812,895
4083,811,891
4084,809,889
4085,812,888
4086,813,888
4087,814,891
4088,816,894
4089,813,896
4090,815,899
4091,814,903
4092,814,906
4093,815,905
4094,812,907
4095,816,903
4096,815,896
4097,815,889
4098,815,881
4099,821,865
4100,831,839
4101,846,801
4102,864,752
4103,886,697
4104,914,656
4105,940,642
4106,960,650
4107,976,682
4108,987,717
4109,994,758
4110,1003,791
4111,1009,816
4112,1015,834
4113,1015,846
4114,1006,861
4115,996,874
4116,979,885
4117,961,891
4118,938,893
4119,914,895
4120,889,899
4121,871,902
4122,857,905
4123,845,911
4124,835,909
4125,826,912
4126,816,910
4127,808,906
4128,801,906
4129,797,905
4130,792,906
4131,793,906
4132,793,908
4133,794,909
4134,791,908
4135,790,910
4136,789,910
4137,788,912
4138,791,915
4139,793,914
4140,793,913
4141,792,914
4142,792,912
4143,790,912
4144,789,912
4145,791,910
4146,790,911
4147,785,912
4148,786,913
4149,787,914
4150,788,918
4151,793,917
4152,792,916
4153,791,914
4154,790,913
4155,789,909
4156,784,908
4157,783,907
4158,785,908
4159,791,912
4160,792,914
4161,795,914
4162,797,915
4163,797,915
4164,795,917
4165,795,913
4166,795,909
4167,793,908
4168,789,909
4169,791,908
4170,790,910
4171,792,913
4172,790,913
4173,793,914
4174,793,914
4175,794,912
4176,796,909
4177,799,910
4178,796,909
4179,795,907
4180,794,908
4181,793,910
4182,791,909
4183,794,911
4184,796,912
4185,798,916
4186,799,915
4187,801,916
4188,802,914
4189,802,909
4190,802,905
4191,800,906
4192,799,905
4193,797,909
4194,796,911
4195,796,914
4196,795,914
4197,798,914
4198,799,918
4199,799,914
4200,797,910
4201,798,909
4202,796,906
4203,794,907
4204,793,906
4205,791,904
4206,790,903
4207,789,903
4208,790,909
4209,789,913
4210,792,916
4211,791,914
4212,790,914
4213,785,911
4214,782,906
4215,780,900
4216,779,901
4217,779,902
4218,775,902
4219,774,901
4220,774,900
4221,771,901
4222,769,905
4223,770,903
4224,768,906
4225,766,904
4226,763,906
4227,759,903
4228,755,903
4229,752,902
4230,752,899
4231,748,899
4232,749,899
4233,748,896
4234,750,898
4235,747,899
4236,745,897
4237,745,899
4238,740,900
4239,739,900
4240,738,898
4241,732,894
4242,731,890
4243,729,890
4244,729,890
4245,728,895
4246,729,898
4247,730,900
4248,729,899
4249,727,899
4250,724,894
4251,720,893
4252,720,893
4253,713,893
4254,712,897
4255,714,901
4256,716,898
4257,717,896
4258,719,893
4259,720,891
4260,719,891
4261,715,892
4262,715,894
4263,713,895
4264,711,896
4265,708,897
4266,707,892
4267,707,893
4268,710,889
4269,711,888
4270,713,892
4271,712,890
4272,709,893
4273,706,894
4274,703,891
4275,700,891
4276,700,891
4277,699,894
4278,701,895
4279,699,898
4280,699,901
4281,699,901
4282,700,901
4283,699,894
4284,698,891
4285,698,887
4286,695,885
4287,693,883
4288,693,883
4289,691,880
4290,689,879
4291,691,885
4292,694,887
4293,697,891
4294,697,890
4295,700,888
4296,701,888
4297,700,890
4298,696,888
4299,696,884
4300,690,880
4301,687,880
4302,687,886
4303,686,888
4304,686,892
4305,687,892
4306,691,887
4307,690,881
4308,692,878
4309,691,876
4310,690,877
4311,692,877
4312,691,876
4313,688,876
4314,687,877
4315,684,876
4316,687,876
4317,687,880
4318,692,883
4319,691,879
4320,694,878
4321,690,874
4322,687,875
4323,686,875
4324,684,875
4325,686,881
4326,685,880
4327,685,881
4328,686,877
4329,685,877
4330,688,878
4331,689,877
4332,691,875
4333,691,872
4334,690,871
4335,688,869
4336,682,872
4337,682,868
4338,686,870
4339,688,870
4340,689,872
4341,688,873
4342,690,876
4343,692,877
4344,692,875
4345,692,875
4346,691,869
4347,689,868
4348,687,866
4349,687,866
4350,685,868
4351,685,871
4352,689,870
4353,690,873
4354,694,872
4355,695,873
4356,691,874
4357,692,870
4358,687,869
4359,687,866
4360,687,864
4361,689,866
4362,689,870
4363,693,874
4364,691,877
4365,689,878
4366,690,876
4367,691,871
4368,689,867
4369,688,868
4370,689,864
4371,690,864
4372,690,866
4373,691,867
4374,689,869
4375,690,867
4376,692,869
4377,691,869
4378,690,868
4379,693,870
4380,691,868
4381,691,868
4382,692,870
4383,692,866
4384,688,870
4385,689,869
4386,687,869
4387,687,867
4388,687,864
4389,685,867
4390,689,867
4391,689,870
4392,689,873
4393,686,874
4394,686,871
4395,687,869
4396,687,863
4397,687,866
4398,690,865
4399,691,868
4400,689,871
4401,690,871
4402,693,872
4403,693,871
4404,695,868
4405,693,862
4406,689,859
4407,691,853
4408,693,849
4409,694,847
4410,695,853
4411,695,855
4412,696,856
4413,695,862
4414,696,865
4415,699,863
4416,696,859
4417,693,859
4418,695,859
4419,692,856
4420,691,859
4421,693,861
4422,691,866
4423,690,868
4424,691,871
4425,690,872
4426,689,875
4427,691,874
4428,689,872
4429,686,869
4430,685,863
4431,679,863
4432,681,862
4433,680,861
4434,682,864
4435,685,868
4436,686,869
4437,684,875
4438,683,875
4439,682,875
4440,681,872
4441,678,869
4442,678,871
4443,680,869
4444,679,871
4445,679,875
4446,681,875
4447,684,876
4448,685,871
4449,685,864
4450,688,857
4451,697,839
4452,703,816
4453,716,783
4454,729,754
4455,749,719
4456,766,695
4457,789,682
4458,811,685
4459,828,700
4460,844,725
4461,852,756
4462,858,782
4463,860,803
4464,856,818
4465,846,833
4466,831,845
4467,818,855
4468,804,861
4469,789,865
4470,775,864
4471,761,868
4472,745,868
4473,731,871
4474,716,874
4475,704,877
4476,696,878
4477,687,878
4478,682,877
4479,678,877
4480,680,878
4481,679,880
4482,678,878
4483,678,874
4484,681,873
4485,683,874
4486,687,874
4487,688,877
4488,690,877
4489,687,876
4490,686,876
4491,683,875
4492,682,876
4493,682,878
4494,684,877
4495,684,879
4496,684,879
4497,686,882
4498,687,880
4499,690,882
4500,691,880
4501,690,879
4502,690,877
4503,687,879
4504,684,881
4505,687,884
4506,687,886
4507,690,890
4508,694,889
4509,694,888
4510,694,882
4511,692,877
4512,691,873
4513,692,871
4514,694,872
4515,694,873
4516,692,873
4517,690,874
4518,689,875
4519,694,877
4520,696,877
4521,697,879
4522,698,880
4523,699,879
4524,698,879
4525,699,877
4526,698,878
4527,696,878
4528,696,878
4529,694,875
4530,694,875
4531,697,877
4532,699,882
4533,703,883
4534,705,883
4535,707,885
4536,706,880
4537,705,878
4538,703,879
4539,703,876
4540,700,879
4541,701,878
4542,702,878
4543,705,881
4544,705,882
4545,708,882
4546,710,883
4547,712,884
4548,712,882
4549,711,881
4550,710,879
4551,708,879
4552,709,879
4553,709,880
4554,709,883
4555,709,883
4556,712,883
4557,714,882
4558,715,883
4559,717,878
4560,718,875
4561,714,873
4562,710,874
4563,709,875
4564,708,878
4565,709,879
4566,712,879
4567,711,879
4568,714,883
4569,711,885
4570,710,886
4571,708,882
4572,707,881
4573,709,881
4574,708,880
4575,706,880
4576,704,876
4577,701,877
4578,699,874
4579,699,875
4580,700,880
4581,698,887
4582,701,888
4583,701,885
4584,698,885
4585,696,881
4586,692,880
4587,689,878
4588,688,877
4589,687,874
4590,689,872
4591,689,875
4592,689,880
4593,693,880
4594,693,885
4595,694,885
4596,693,883
4597,691,881
4598,692,878
4599,690,875
4600,693,872
4601,693,869
4602,691,873
4603,691,879
4604,692,882
4605,691,883
4606,692,884
4607,695,885
4608,694,884
4609,691,884
4610,690,882
4611,689,881
4612,690,877
4613,687,878
4614,689,880
4615,692,883
4616,693,884
4617,697,887
4618,700,888
4619,698,885
4620,698,883
4621,701,882
4622,699,878
4623,697,880
4624,693,879
4625,694,882
4626,692,883
4627,690,886
4628,692,887
4629,695,887
4630,697,888
4631,700,887
4632,701,888
4633,702,889
4634,703,886
4635,701,882
4636,701,881
4637,697,880
4638,700,878
4639,700,882
4640,701,880
4641,701,882
4642,704,884
4643,708,886
4644,707,887
4645,709,886
4646,706,887
4647,704,887
4648,701,883
4649,698,880
4650,702,878
4651,702,881
4652,706,884
4653,707,885
4654,708,887
4655,708,888
4656,707,886
4657,706,888
4658,705,886
4659,706,883
4660,707,883
4661,709,881
4662,710,880
4663,711,884
4664,712,886
4665,711,886
4666,712,887
4667,713,889
4668,714,887
4669,713,884
4670,712,882
4671,711,883
4672,709,882
4673,712,881
4674,711,882
4675,712,883
4676,713,886
4677,714,885
4678,718,887
4679,719,888
4680,719,889
4681,719,888
4682,717,885
4683,717,885
4684,717,882
4685,712,882
4686,717,885
4687,717,885
4688,717,884
4689,719,888
4690,723,886
4691,725,887
4692,724,886
4693,722,886
4694,721,884
4695,716,886
4696,717,883
4697,717,883
4698,715,881
4699,715,885
4700,717,886
4701,719,890
4702,721,887
4703,723,887
4704,724,888
4705,725,887
4706,727,887
4707,726,883
4708,721,883
4709,722,883
4710,719,884
4711,719,888
4712,719,888
4713,724,892
4714,727,891
4715,725,892
4716,727,885
4717,728,882
4718,725,882
4719,723,883
4720,723,883
4721,721,883
4722,723,886
4723,725,885
4724,725,888
4725,727,889
4726,727,890
4727,728,891
4728,727,893
4729,727,890
4730,727,891
4731,726,885
4732,727,882
4733,724,881
4734,726,880
4735,727,885
4736,729,887
4737,731,889
4738,734,891
4739,736,889
4740,736,889
4741,733,893
4742,734,890
4743,732,889
4744,730,886
4745,729,884
4746,727,885
4747,728,887
4748,729,887
4749,732,887
4750,735,889
4751,739,890
4752,739,887
4753,737,889
4754,738,887
4755,738,888
4756,741,888
4757,741,889
4758,743,887
4759,747,888
4760,746,886
4761,747,886
4762,747,883
4763,749,879
4764,752,876
4765,753,875
4766,753,873
4767,751,874
4768,748,875
4769,748,879
4770,747,876
4771,745,878
4772,747,879
4773,748,883
4774,755,883
4775,758,884
4776,758,881
4777,756,882
4778,755,883
4779,752,883
4780,752,885
4781,748,889
4782,751,890
4783,749,892
4784,751,894
4785,750,894
4786,747,895
4787,750,893
4788,750,894
4789,748,893
4790,747,893
4791,746,891
4792,743,889
4793,743,888
4794,745,891
4795,748,891
4796,750,896
4797,752,897
4798,756,898
4799,756,901
4800,752,900
4801,754,899
4802,753,903
4803,754,900
4804,755,897
4805,758,889
4806,764,877
4807,771,858
4808,778,834
4809,787,813
4810,802,784
4811,821,759
4812,837,729
4813,855,707
4814,871,699
4815,887,702
4816,897,715
4817,904,740
4818,910,772
4819,913,799
4820,916,820
4821,921,837
4822,926,850
4823,920,861
4824,910,878
4825,899,886
4826,885,894
4827,868,896
4828,849,896
4829,832,895
4830,815,900
4831,801,903
4832,786,907
4833,779,910
4834,774,913
4835,772,913
4836,770,912
4837,768,911
4838,768,911
4839,768,911
4840,768,908
4841,767,906
4842,766,905
4843,766,908
4844,768,912
4845,771,914
4846,772,913
4847,775,911
4848,774,914
4849,773,912
4850,772,911
4851,772,911
4852,770,913
4853,769,911
4854,771,910
4855,773,910
4856,774,912
4857,775,913
4858,777,916
4859,777,917
4860,778,915
4861,779,918
4862,779,912
4863,778,914
4864,780,912
4865,779,910
4866,780,912
4867,780,914
4868,780,915
4869,783,913
4870,784,915
4871,785,913
4872,785,911
4873,786,912
4874,786,910
4875,785,908
4876,785,909
4877,787,910
4878,787,911
4879,788,914
4880,791,916
4881,790,917
4882,792,919
4883,793,917
4884,790,914
4885,791,914
4886,790,909
4887,792,908
4888,792,910
4889,791,910
4890,789,912
4891,792,912
4892,794,913
4893,796,914
4894,799,915
4895,802,914
4896,802,914
4897,801,916
4898,802,914
4899,802,914
4900,799,911
4901,798,909
4902,798,910
4903,799,913
4904,801,915
4905,803,916
4906,807,918
4907,810,916
4908,810,913
4909,807,913
4910,812,910
4911,810,910
4912,810,910
4913,808,910
4914,811,910
4915,810,911
4916,810,910
4917,810,911
4918,814,911
4919,815,914
4920,813,911
4921,815,912
4922,814,911
4923,810,908
4924,811,906
4925,807,905
4926,807,904
4927,808,905
4928,810,908
4929,812,911
4930,812,911
4931,813,913
4932,811,911
4933,810,910
4934,809,905
4935,805,908
4936,802,908
4937,803,908
4938,800,908
4939,798,907
4940,799,907
4941,798,907
4942,798,907
4943,799,907
4944,797,907
4945,799,906
4946,799,907
4947,798,905
4948,795,903
4949,791,903
4950,789,902
4951,787,907
4952,790,906
4953,790,907
4954,792,910
4955,793,909
4956,793,908
4957,793,908
4958,792,907
4959,793,906
4960,791,907
4961,790,904
4962,791,907
4963,789,907
4964,792,907
4965,793,908
4966,794,911
4967,796,910
4968,791,912
4969,795,912
4970,791,909
4971,793,909
4972,791,908
4973,790,908
4974,790,911
4975,792,910
4976,792,913
4977,792,916
4978,791,915
4979,792,919
4980,792,915
4981,790,917
4982,791,912
4983,788,909
4984,788,909
4985,789,909
4986,789,908
4987,788,910
4988,787,913
4989,787,916
4990,789,916
4991,792,918
4992,794,917
4993,792,917
4994,793,915
4995,789,914
4996,785,910
4997,784,909
4998,783,909
4999,783,912
5000,787,913
5001,788,914
5002,792,917
5003,792,917
5004,794,917
5005,794,917
5006,792,915
5007,792,913
5008,788,911
5009,784,910
5010,784,908
5011,787,909
5012,785,911
5013,794,915
5014,795,918
5015,797,917
5016,798,917
5017,797,915
5018,796,913
5019,792,909
5020,790,907
5021,787,905
5022,790,908
5023,791,911
5024,794,913
5025,795,915
5026,796,918
5027,796,917
5028,796,915
5029,795,913
5030,795,913
5031,795,913
5032,794,911
5033,795,911
5034,792,912
5035,794,914
5036,792,914
5037,792,914
5038,794,913
5039,796,911
5040,799,913
5041,799,911
5042,799,912
5043,798,911
5044,797,908
5045,795,907
5046,795,907
5047,795,910
5048,794,912
5049,794,912
5050,794,912
5051,798,912
5052,801,912
5053,801,913
5054,804,912
5055,802,910
5056,801,907
5057,802,909
5058,798,908
5059,799,910
5060,799,910
5061,800,915
5062,801,915
5063,804,916
5064,802,914
5065,800,911
5066,801,910
5067,802,910
5068,803,908
5069,802,908
5070,804,910
5071,803,909
5072,801,913
5073,802,914
5074,805,914
5075,806,912
5076,804,913
5077,805,914
5078,802,913
5079,801,912
5080,799,910
5081,799,910
5082,800,911
5083,802,910
5084,803,911
5085,805,911
5086,805,912
5087,807,914
5088,810,913
5089,810,913
5090,810,913
5091,808,911
5092,805,911
5093,804,909
5094,801,910
5095,802,912
5096,803,913
5097,806,914
5098,807,913
5099,810,914
5100,812,913
5101,811,913
5102,812,911
5103,809,912
5104,808,911
5105,808,911
5106,806,910
5107,808,908
5108,808,911
5109,812,913
5110,814,916
5111,816,914
5112,814,914
5113,810,912
5114,812,911
5115,810,910
5116,811,910
5117,814,907
5118,816,911
5119,814,912
5120,816,914
5121,817,914
5122,817,917
5123,817,917
5124,819,918
5125,823,916
5126,823,915
5127,827,913
5128,829,909
5129,828,905
5130,826,900
5131,827,897
5132,825,898
5133,828,896
5134,831,897
5135,834,902
5136,835,903
5137,832,903
5138,832,902
5139,831,902
5140,832,898
5141,830,898
5142,831,898
5143,828,901
5144,830,907
5145,834,909
5146,833,908
5147,831,911
5148,834,913
5149,833,914
5150,833,914
5151,831,913
5152,829,913
5153,829,910
5154,827,912
5155,826,915
5156,826,916
5157,826,918
5158,827,919
5159,828,920
5160,828,917
5161,831,917
5162,829,915
5163,828,912
5164,825,912
5165,826,912
5166,829,914
5167,830,919
5168,832,922
5169,834,927
5170,836,927
5171,839,928
5172,840,921
5173,842,911
5174,847,893
5175,854,872
5176,863,840
5177,878,808
5178,895,777
5179,910,745
5180,932,719
5181,953,708
5182,973,711
5183,992,723
5184,1002,747
5185,1005,775
5186,1010,798
5187,1014,818
5188,1015,836
5189,1016,850
5190,1006,863
5191,995,876
5192,984,892
5193,971,905
5194,954,916
5195,944,922
5196,924,924
5197,907,922
5198,891,924
5199,877,920
5200,861,919
5201,851,920
5202,844,921
5203,841,922
5204,840,927
5205,842,931
5206,846,931
5207,850,931
5208,851,931
5209,849,930
5210,852,927
5211,850,926
5212,848,927
5213,848,928
5214,847,926
5215,845,932
5216,848,931
5217,848,930
5218,850,930
5219,854,930
5220,856,930
5221,857,929
5222,857,927
5223,857,926
5224,856,924
5225,855,926
5226,853,927
5227,854,928
5228,856,930
5229,858,933
5230,857,932
5231,859,931
5232,861,932
5233,864,929
5234,864,928
5235,862,927
5236,860,925
5237,857,922
5238,856,922
5239,856,921
5240,859,926
5241,865,927
5242,869,930
5243,871,930
5244,871,929
5245,871,928
5246,867,926
5247,864,926
5248,861,927
5249,862,928
5250,865,927
5251,866,928
5252,869,929
5253,870,929
5254,872,929
5255,876,927
5256,876,928
5257,879,926
5258,878,926
5259,876,925
5260,876,926
5261,875,923
5262,873,924
5263,876,925
5264,876,929
5265,880,927
5266,879,929
5267,881,930
5268,880,928
5269,881,925
5270,881,926
5271,881,927
5272,884,927
5273,883,926
5274,883,927
5275,885,928
5276,885,927
5277,886,929
5278,884,930
5279,889,928
5280,889,929
5281,891,928
5282,887,927
5283,887,925
5284,886,922
5285,887,923
5286,883,925
5287,882,925
5288,880,929
5289,886,930
5290,883,930
5291,887,926
5292,888,926
5293,885,926
5294,882,928
5295,879,927
5296,881,924
5297,880,921
5298,877,922
5299,875,923
5300,875,925
5301,875,926
5302,873,928
5303,875,928
5304,875,927
5305,874,927
5306,873,921
5307,870,921
5308,867,921
5309,864,919
5310,863,919
5311,863,921
5312,863,923
5313,864,924
5314,865,925
5315,867,926
5316,867,925
5317,867,927
5318,867,924
5319,867,921
5320,867,919
5321,865,920
5322,862,921
5323,860,922
5324,861,921
5325,863,923
5326,865,927
5327,868,925
5328,869,925
5329,867,927
5330,865,925
5331,863,924
5332,862,922
5333,860,921
5334,863,921
5335,864,923
5336,866,923
5337,863,921
5338,862,928
5339,867,927
5340,866,925
5341,865,928
5342,865,923
5343,865,923
5344,864,921
5345,864,922
5346,862,922
5347,860,925
5348,861,927
5349,861,928
5350,862,928
5351,864,926
5352,861,928
5353,863,923
5354,861,925
5355,861,924
5356,862,923
5357,861,923
5358,856,925
5359,860,924
5360,862,923
5361,860,923
5362,861,921
5363,863,925
5364,862,923
5365,865,927
5366,864,923
5367,860,919
5368,861,916
5369,862,919
5370,862,918
5371,863,919
5372,861,920
5373,864,924
5374,864,923
5375,865,922
5376,866,923
5377,869,924
5378,868,922
5379,866,921
5380,864,917
5381,862,918
5382,861,917
5383,862,919
5384,863,919
5385,864,921
5386,865,924
5387,867,926
5388,869,924
5389,871,919
5390,868,917
5391,865,918
5392,864,918
5393,866,918
5394,864,916
5395,865,920
5396,865,921
5397,867,924
5398,867,923
5399,870,924
5400,870,925
5401,870,922
5402,869,915
5403,868,917
5404,867,916
5405,868,914
5406,868,916
5407,867,916
5408,868,919
5409,873,918
5410,872,924
5411,875,921
5412,873,921
5413,871,922
5414,871,920
5415,871,918
5416,871,916
5417,868,914
5418,871,913
5419,870,917
5420,873,918
5421,872,918
5422,871,922
5423,873,921
5424,875,919
5425,875,919
5426,874,916
5427,873,915
5428,872,914
5429,870,914
5430,871,915
5431,871,916
5432,873,918
5433,873,919
5434,874,922
5435,876,922
5436,878,922
5437,876,919
5438,878,919
5439,875,918
5440,875,915
5441,871,914
5442,870,915
5443,867,915
5444,870,916
5445,874,917
5446,874,920
5447,878,920
5448,880,920
5449,881,920
5450,880,917
5451,881,918
5452,882,916
5453,878,915
5454,877,914
5455,880,918
5456,881,919
5457,881,921
5458,883,920
5459,885,920
5460,884,919
5461,883,918
5462,882,913
5463,880,913
5464,880,917
5465,880,917
5466,885,919
5467,889,917
5468,892,918
5469,894,920
5470,891,920
5471,890,921
5472,891,920
5473,892,920
5474,892,920
5475,892,921
5476,895,919
5477,896,921
5478,896,920
5479,899,920
5480,901,922
5481,906,921
5482,908,920
5483,911,920
5484,910,916
5485,910,912
5486,908,908
5487,910,904
5488,909,902
5489,913,902
5490,911,902
5491,913,907
5492,914,908
5493,917,909
5494,916,911
5495,917,910
5496,919,909
5497,921,908
5498,926,910
5499,925,909
5500,925,911
5501,923,912
5502,922,916
5503,920,916
5504,921,917
5505,918,918
5506,917,918
5507,921,919
5508,921,919
5509,921,918
5510,924,918
5511,920,915
5512,918,914
5513,918,914
5514,918,914
5515,919,914
5516,920,916
5517,922,916
5518,924,917
5519,929,918
5520,932,920
5521,932,921
5522,932,921
5523,932,922
5524,931,920
5525,932,923
5526,933,921
5527,940,917
5528,944,905
5529,949,889
5530,957,866
5531,968,835
5532,983,801
5533,1002,767
5534,1021,732
5535,1043,704
5536,1063,692
5537,1081,696
5538,1097,714
5539,1108,741
5540,1115,774
5541,1121,803
5542,1128,828
5543,1135,847
5544,1142,861
5545,1140,877
5546,1136,889
5547,1125,901
5548,1116,910
5549,1101,919
5550,1085,921
5551,1069,924
5552,1051,924
5553,1036,927
5554,1020,927
5555,1003,930
5556,990,927
5557,980,932
5558,969,930
5559,963,931
5560,958,930
5561,960,930
5562,959,930
5563,961,934
5564,961,933
5565,965,936
5566,968,938
5567,969,937
5568,967,937
5569,969,936
5570,969,935
5571,969,935
5572,967,934
5573,966,933
5574,966,934
5575,967,937
5576,966,937
5577,971,937
5578,970,941
5579,975,943
5580,973,942
5581,977,938
5582,974,937
5583,972,936
5584,971,935
5585,974,933
5586,973,932
5587,976,936
5588,977,940
5589,979,938
5590,981,940
5591,982,940
5592,984,939
5593,982,940
5594,983,937
5595,981,937
5596,979,934
5597,980,932
5598,982,932
5599,983,934
5600,984,933
5601,988,933
5602,988,937
5603,990,939
5604,989,935
5605,989,938
5606,988,935
5607,989,933
5608,989,933
5609,986,932
5610,986,933
5611,987,933
5612,987,933
5613,991,935
5614,992,935
5615,994,936
5616,995,936
5617,994,936
5618,994,935
5619,994,932
5620,995,934
5621,996,932
5622,995,932
5623,995,933
5624,997,936
5625,1000,937
5626,1003,937
5627,1002,940
5628,1003,936
5629,1001,934
5630,1004,931
5631,1002,933
5632,1003,927
5633,1001,926
5634,1005,931
5635,1004,932
5636,1005,933
5637,1007,934
5638,1006,932
5639,1006,931
5640,1009,927
5641,1009,927
5642,1011,927
5643,1007,924
5644,1005,925
5645,1005,921
5646,1004,922
5647,1007,923
5648,1007,922
5649,1008,924
5650,1008,921
5651,1009,923
5652,1009,923
5653,1006,921
5654,1006,919
5655,1004,918
5656,1001,918
5657,999,919
5658,997,919
5659,995,919
5660,994,920
5661,996,921
5662,995,925
5663,994,926
5664,996,924
5665,994,923
5666,990,921
5667,990,920
5668,988,919
5669,988,920
5670,987,920
5671,986,922
5672,987,922
5673,987,923
5674,987,927
5675,989,926
5676,989,927
5677,988,924
5678,989,925
5679,987,924
5680,986,923
5681,984,923
5682,985,923
5683,986,925
5684,985,926
5685,986,928
5686,984,929
5687,988,931
5688,988,930
5689,987,931
5690,987,929
5691,987,930
5692,985,927
5693,982,924
5694,981,926
5695,982,925
5696,981,926
5697,985,928
5698,985,931
5699,988,933
5700,988,933
5701,989,934
5702,986,930
5703,983,929
5704,979,924
5705,977,928
5706,978,925
5707,978,931
5708,979,930
5709,980,930
5710,980,931
5711,980,931
5712,980,928
5713,980,928
5714,979,928
5715,977,928
5716,978,926
5717,976,924
5718,977,925
5719,978,925
5720,979,928
5721,980,928
5722,980,930
5723,981,929
5724,982,931
5725,980,927
5726,982,925
5727,981,927
5728,981,921
5729,980,923
5730,984,923
5731,983,924
5732,984,928
5733,982,927
5734,985,930
5735,988,929
5736,987,927
5737,991,927
5738,990,926
5739,990,924
5740,990,923
5741,986,921
5742,987,922
5743,988,922
5744,988,922
5745,990,924
5746,992,926
5747,994,929
5748,994,926
5749,995,927
5750,995,923
5751,992,923
5752,992,923
5753,989,922
5754,989,922
5755,989,924
5756,991,925
5757,993,925
5758,994,927
5759,995,929
5760,997,928
5761,996,925
5762,995,925
5763,993,924
5764,994,925
5765,992,924
5766,993,923
5767,992,925
5768,994,925
5769,994,922
5770,996,927
5771,998,928
5772,997,929
5773,997,928
5774,999,927
5775,998,925
5776,995,922
5777,996,922
5778,995,922
5779,994,924
5780,994,927
5781,993,926
5782,995,928
5783,999,928
5784,1000,926
5785,998,928
5786,999,924
5787,996,923
5788,995,923
5789,993,923
5790,993,920
5791,991,923
5792,991,924
5793,992,928
5794,994,927
5795,1000,930
5796,1000,929
5797,1002,924
5798,1001,925
5799,999,920
5800,999,922
5801,996,919
5802,995,919
5803,994,921
5804,996,923
5805,997,926
5806,998,924
5807,1001,926
5808,1002,926
5809,1002,925
5810,1000,925
5811,999,924
5812,994,921
5813,998,921
5814,997,920
5815,996,922
5816,999,923
5817,999,926
5818,999,927
5819,1000,929
5820,1002,927
5821,1003,925
5822,1003,926
5823,1000,922
5824,999,921
5825,998,922
5826,997,922
5827,997,924
5828,999,923
5829,1002,923
5830,1001,926
5831,1003,929
5832,1003,929
5833,1002,927
5834,1000,927
5835,1000,925
5836,1004,923
5837,1004,924
5838,1008,921
5839,1010,919
5840,1009,922
5841,1013,919
5842,1013,916
5843,1013,916
5844,1014,912
5845,1012,909
5846,1010,907
5847,1010,906
5848,1008,905
5849,1009,907
5850,1008,908
5851,1008,910
5852,1008,909
5853,1010,912
5854,1011,913
5855,1012,914
5856,1014,915
5857,1014,917
5858,1012,919
5859,1011,919
5860,1009,919
5861,1005,922
5862,1004,924
5863,1003,922
5864,1003,925
5865,1002,925
5866,1001,926
5867,999,927
5868,1002,925
5869,1001,925
5870,1002,926
5871,999,924
5872,997,922
5873,995,922
5874,996,921
5875,994,922
5876,992,923
5877,996,925
5878,998,928
5879,1000,929
5880,998,931
5881,1003,930
5882,1003,932
5883,1002,932
5884,1003,923
5885,1003,917
5886,1005,899
5887,1007,873
5888,1013,843
5889,1027,808
5890,1043,769
5891,1061,732
5892,1083,696
5893,1100,672
5894,1123,662
5895,1137,676
5896,1147,700
5897,1153,735
5898,1160,771
5899,1167,801
5900,1177,828
5901,1185,851
5902,1190,872
5903,1187,889
5904,1177,905
5905,1163,915
5906,1149,924
5907,1135,927
5908,1117,928
5909,1099,929
5910,1081,930
5911,1063,931
5912,1048,936
5913,1038,938
5914,1030,941
5915,1022,942
5916,1015,944
5917,1008,944
5918,1001,940
5919,1001,939
5920,1001,939
5921,1000,941
5922,1001,943
5923,1001,943
5924,1001,943
5925,1002,946
5926,1001,948
5927,1004,949
5928,1003,949
5929,1004,947
5930,1004,945
5931,1004,947
5932,1004,946
5933,1003,946
5934,1002,944
5935,1002,947
5936,1001,948
5937,1004,948
5938,1004,950
5939,1008,954
5940,1008,952
5941,1009,949
5942,1009,948
5943,1008,946
5944,1004,944
5945,1003,946
5946,1004,943
5947,1004,946
5948,1004,948
5949,1005,950
5950,1009,950
5951,1008,953
5952,1009,950
5953,1008,952
5954,1009,949
5955,1012,948
5956,1012,946
5957,1009,945
5958,1007,946
5959,1007,946
5960,1010,950
5961,1011,951
5962,1012,952
5963,1014,955
5964,1016,953
5965,1014,949
5966,1014,951
5967,1013,949
5968,1011,948
5969,1012,946
5970,1011,948
5971,1011,946
5972,1012,947
5973,1011,948
5974,1014,949
5975,1017,953
5976,1016,951
5977,1018,952
5978,1018,952
5979,1016,949
5980,1016,946
5981,1016,944
5982,1012,945
5983,1013,950
5984,1016,950
5985,1014,952
5986,1018,953
5987,1022,955
5988,1020,952
5989,1021,951
5990,1021,949
5991,1019,947
5992,1017,945
5993,1016,943
5994,1016,942
5995,1017,943
5996,1017,945
5997,1019,945
5998,1018,945
5999,1021,948
6000,1017,944
6001,1019,940
6002,1019,939
6003,1018,939
6004,1017,936
6005,1015,934
6006,1017,934
6007,1014,934
6008,1017,936
6009,1014,937
6010,1014,935
6011,1014,935
6012,1016,935
6013,1013,934
6014,1014,933
6015,1011,931
6016,1010,930
6017,1006,929
6018,1003,927
6019,1002,928
6020,1003,927
6021,1001,929
6022,1001,931
6023,1002,933
6024,1001,933
6025,1001,929
6026,999,930
6027,997,926
6028,996,926
6029,990,925
6030,988,924
6031,987,928
6032,986,928
6033,989,932
6034,989,931
6035,989,930
6036,990,933
6037,989,932
6038,985,930
6039,986,928
6040,983,928
6041,980,926
6042,977,929
6043,977,929
6044,976,930
6045,977,932
6046,976,933
6047,979,935
6048,975,936
6049,978,935
6050,976,937
6051,973,933
6052,974,934
6053,971,933
6054,967,933
6055,968,932
6056,965,937
6057,964,938
6058,971,939
6059,971,939
6060,972,941
6061,968,937
6062,967,937
6063,967,934
6064,962,936
6065,963,930
6066,961,932
6067,960,934
6068,961,935
6069,959,936
6070,960,936
6071,961,937
6072,959,937
6073,958,934
6074,959,934
6075,957,933
6076,955,933
6077,956,932
6078,953,931
6079,953,930
6080,953,930
6081,954,933
6082,955,934
6083,954,934
6084,954,935
6085,956,932
6086,956,932
6087,953,927
6088,952,925
6089,952,928
6090,950,926
6091,951,926
6092,948,927
6093,952,931
6094,950,931
6095,953,932
6096,954,929
6097,954,930
6098,950,930
6099,952,930
6100,953,927
6101,952,925
6102,950,923
6103,951,926
6104,951,925
6105,952,927
6106,954,929
6107,955,933
6108,958,931
6109,957,929
6110,957,929
6111,955,925
6112,953,924
6113,949,925
6114,948,924
6115,948,922
6116,948,924
6117,950,925
6118,952,928
6119,953,929
6120,952,930
6121,953,931
6122,951,925
6123,952,926
6124,951,922
6125,948,924
6126,947,923
6127,946,923
6128,945,923
6129,947,929
6130,949,927
6131,949,929
6132,948,930
6133,949,928
6134,950,926
6135,949,923
6136,948,923
6137,946,923
6138,946,922
6139,944,922
6140,945,925
6141,946,926
6142,947,928
6143,949,928
6144,952,926
6145,950,924
6146,950,922
6147,950,921
6148,949,922
6149,946,920
6150,944,922
6151,942,922
6152,946,923
6153,947,924
6154,949,925
6155,949,926
6156,951,925
6157,950,927
6158,950,923
6159,948,921
6160,948,921
6161,943,919
6162,943,918
6163,943,918
6164,944,920
6165,946,922
6166,946,924
6167,949,926
6168,948,926
6169,947,923
6170,946,924
6171,946,920
6172,942,919
6173,944,916
6174,943,919
6175,943,920
6176,944,921
6177,943,924
6178,946,926
6179,945,924
6180,948,924
6181,948,925
6182,946,922
6183,945,923
6184,944,921
6185,943,920
6186,942,918
6187,942,920
6188,944,920
6189,943,924
6190,947,924
6191,948,926
6192,947,927
6193,947,923
6194,946,923
6195,945,920
6196,945,920
6197,941,921
6198,941,920
6199,942,923
6200,945,927
6201,947,928
6202,951,930
6203,955,929
6204,955,924
6205,958,920
6206,958,916
6207,956,911
6208,951,907
6209,953,906
6210,952,902
6211,952,902
6212,953,904
6213,954,907
6214,954,911
6215,955,910
6216,954,909
6217,956,907
6218,956,908
6219,955,908
6220,956,907
6221,954,910
6222,950,911
6223,951,916
6224,951,920
6225,948,923
6226,951,923
6227,950,926
6228,949,923
6229,949,923
6230,946,921
6231,945,920
6232,941,919
6233,941,918
6234,937,919
6235,936,918
6236,937,921
6237,936,921
6238,940,922
6239,941,924
6240,942,925
6241,942,924
6242,943,924
6243,944,923
6244,941,924
6245,939,927
6246,941,924
6247,941,926
6248,941,920
6249,945,912
6250,950,893
6251,956,864
6252,961,828
6253,974,786
6254,990,739
6255,1010,699
6256,1029,665
6257,1047,649
6258,1060,654
6259,1074,678
6260,1080,714
6261,1088,753
6262,1097,787
6263,1108,819
6264,1120,841
6265,1124,860
6266,1124,879
6267,1114,894
6268,1100,905
6269,1084,914
6270,1066,918
6271,1049,921
6272,1029,923
6273,1014,926
6274,999,928
6275,987,931
6276,979,935
6277,972,936
6278,965,934
6279,956,933
6280,950,933
6281,946,932
6282,941,934
6283,940,934
6284,943,935
6285,944,938
6286,947,939
6287,948,942
6288,949,942
6289,949,941
6290,946,938
6291,947,938
6292,946,938
6293,946,936
6294,946,938
6295,945,937
6296,946,939
6297,945,943
6298,947,942
6299,948,943
6300,946,945
6301,951,944
6302,950,943
6303,949,941
6304,949,942
6305,948,940
6306,946,940
6307,947,941
6308,947,941
6309,950,945
6310,952,945
6311,951,946
6312,954,943
6313,953,944
6314,953,944
6315,954,941
6316,951,940
6317,950,939
6318,949,937
6319,950,939
6320,950,939
6321,952,940
6322,953,941
6323,955,943
6324,955,945
6325,956,945
6326,955,942
6327,954,940
6328,953,941
6329,951,939
6330,951,939
6331,950,938
6332,951,940
6333,951,942
6334,952,943
6335,956,944
6336,957,944
6337,957,944
6338,956,943
6339,955,941
6340,955,939
6341,954,937
6342,954,936
6343,953,938
6344,955,939
6345,956,939
6346,956,942
6347,959,942
6348,959,942
6349,960,942
6350,961,939
6351,960,938
6352,960,934
6353,957,936
6354,958,933
6355,957,934
6356,957,935
6357,959,934
6358,963,938
6359,963,939
6360,963,936
6361,963,932
6362,962,932
6363,961,928
6364,958,927
6365,957,926
6366,954,925
6367,955,925
6368,954,928
6369,955,928
6370,957,928
6371,955,929
6372,955,927
6373,954,926
6374,951,926
6375,949,924
6376,946,921
6377,946,921
6378,945,918
6379,943,918
6380,940,920
6381,940,923
6382,937,922
6383,938,925
6384,940,925
6385,938,922
6386,937,920
6387,933,919
6388,930,919
6389,926,918
6390,925,917
6391,922,920
6392,923,919
6393,924,924
6394,922,924
6395,923,925
6396,923,926
6397,923,927
6398,920,925
6399,918,924
6400,915,921
6401,913,919
6402,910,921
6403,911,924
6404,912,924
6405,912,928
6406,913,930
6407,912,932
6408,913,930
6409,909,929
6410,909,928
6411,908,927
6412,906,924
6413,901,923
6414,900,922
6415,899,927
6416,900,925
6417,901,927
6418,903,928
6419,904,929
6420,906,930
6421,905,931
6422,903,926
6423,900,928
6424,898,926
6425,898,923
6426,896,922
6427,895,923
6428,895,925
6429,896,926
6430,898,928
6431,897,927
6432,896,929
6433,897,927
6434,895,925
6435,892,923
6436,890,923
6437,888,919
6438,887,916
6439,887,919
6440,889,920
6441,890,921
6442,891,923
6443,894,925
6444,895,925
6445,895,923
6446,896,924
6447,895,921
6448,891,921
6449,891,921
6450,891,918
6451,888,918
6452,890,920
6453,891,920
6454,891,919
6455,896,918
6456,896,920
6457,896,919
6458,896,918
6459,895,918
6460,894,916
6461,892,914
6462,892,915
6463,891,917
6464,893,918
6465,893,917
6466,896,918
6467,897,921
6468,897,919
6469,896,917
6470,897,917
6471,893,914
6472,891,916
6473,893,912
6474,892,913
6475,892,914
6476,893,914
6477,893,916
6478,894,916
6479,895,922
6480,897,918
6481,896,918
6482,898,915
6483,897,913
6484,894,913
6485,894,911
6486,895,914
6487,891,913
6488,894,915
6489,895,916
6490,896,917
6491,897,918
6492,897,918
6493,897,917
6494,896,916
6495,896,912
6496,896,914
6497,893,911
6498,894,913
6499,892,914
6500,893,914
6501,892,916
6502,895,916
6503,896,918
6504,897,918
6505,899,917
6506,897,914
6507,895,912
6508,894,912
6509,892,911
6510,893,912
6511,894,910
6512,893,913
6513,893,911
6514,896,914
6515,898,917
6516,897,914
6517,898,914
6518,896,913
6519,895,914
6520,894,912
6521,891,911
6522,891,908
6523,893,910
6524,891,911
6525,892,913
6526,893,914
6527,893,917
6528,894,914
6529,895,912
6530,893,912
6531,892,911
6532,893,908
6533,892,908
6534,892,909
6535,890,909
6536,892,909
6537,893,910
6538,892,913
6539,894,914
6540,896,914
6541,895,911
6542,898,909
6543,897,907
6544,896,908
6545,894,906
6546,893,903
6547,891,906
6548,894,909
6549,894,909
6550,895,911
6551,895,914
6552,897,912
6553,898,911
6554,898,910
6555,896,909
6556,893,909
6557,892,910
6558,893,909
6559,894,911
6560,894,912
6561,900,912
6562,901,912
6563,905,912
6564,907,910
6565,911,906
6566,910,904
6567,908,897
6568,906,894
6569,903,888
6570,903,886
6571,904,888
6572,904,889
6573,904,891
6574,905,893
6575,905,898
6576,906,898
6577,906,894
6578,905,894
6579,904,893
6580,903,892
6581,904,893
6582,901,893
6583,901,898
6584,901,903
6585,900,908
6586,898,911
6587,899,911
6588,899,912
6589,898,909
6590,895,906
6591,891,905
6592,888,901
6593,887,903
6594,885,901
6595,883,904
6596,884,907
6597,887,907
6598,887,908
6599,889,905
6600,890,907
6601,890,906
6602,888,908
6603,887,906
6604,888,911
6605,886,908
6606,889,909
6607,887,911
6608,889,909
6609,891,902
6610,892,889
6611,898,864
6612,904,835
6613,915,794
6614,927,756
6615,942,716
6616,962,674
6617,979,649
6618,994,637
6619,1009,643
6620,1018,673
6621,1024,709
6622,1029,749
6623,1036,782
6624,1047,808
6625,1054,826
6626,1055,846
6627,1049,861
6628,1036,876
6629,1023,891
6630,1005,899
6631,988,902
6632,970,907
6633,952,911
6634,939,913
6635,927,915
6636,921,917
6637,915,917
6638,909,917
6639,899,918
6640,895,915
6641,888,916
6642,886,915
6643,884,914
6644,884,917
6645,883,919
6646,884,922
6647,892,924
6648,895,925
6649,890,924
6650,890,924
6651,889,920
6652,888,921
6653,888,919
6654,887,918
6655,886,921
6656,888,924
6657,888,925
6658,891,925
6659,893,927
6660,897,927
6661,895,926
6662,894,925
6663,893,921
6664,891,921
6665,891,921
6666,892,920
6667,890,921
6668,890,921
6669,893,923
6670,893,924
6671,894,924
6672,896,924
6673,896,924
6674,896,922
6675,894,919
6676,894,919
6677,894,919
6678,896,920
6679,893,919
6680,893,922
6681,894,923
6682,895,922
6683,897,924
6684,898,925
6685,898,924
6686,899,922
6687,897,920
6688,892,920
6689,893,918
6690,896,919
6691,895,920
6692,895,921
6693,897,923
6694,898,925
6695,896,927
6696,900,924
6697,897,922
6698,897,922
6699,897,920
6700,896,920
6701,895,918
6702,897,917
6703,897,919
6704,896,921
6705,896,921
6706,899,925
6707,899,924
6708,902,925
6709,903,925
6710,903,921
6711,901,920
6712,900,918
6713,900,917
6714,901,915
6715,901,918
6716,902,918
6717,903,919
6718,905,920
6719,906,920
6720,905,920
6721,907,919
6722,906,916
6723,906,916
6724,904,913
6725,902,912
6726,900,912
6727,898,909
6728,899,911
6729,902,913
6730,901,915
6731,899,914
6732,902,916
6733,898,912
6734,899,912
6735,895,909
6736,896,910
6737,891,907
6738,889,904
6739,887,906
6740,884,906
6741,887,906
6742,883,909
6743,883,910
6744,881,910
6745,880,911
6746,879,906
6747,877,906
6748,872,903
6749,872,901
6750,870,902
6751,868,902
6752,867,903
6753,867,905
6754,867,904
6755,867,906
6756,868,907
6757,866,907
6758,864,907
6759,861,907
6760,861,904
6761,860,905
6762,858,906
6763,855,905
6764,856,908
6765,854,909
6766,853,909
6767,854,911
6768,856,912
6769,855,911
6770,854,910
6771,854,907
6772,852,910
6773,851,908
6774,849,908
6775,848,909
6776,846,909
6777,850,909
6778,851,911
6779,849,913
6780,853,914
6781,851,913
6782,851,912
6783,848,910
6784,847,907
6785,846,906
6786,843,906
6787,842,908
6788,841,908
6789,842,912
6790,843,909
6791,845,908
6792,845,910
6793,844,909
6794,843,910
6795,842,906
6796,843,906
6797,843,903
6798,840,903
6799,839,903
6800,840,904
6801,842,907
6802,844,906
6803,848,907
6804,845,907
6805,847,906
6806,846,905
6807,846,905
6808,843,902
6809,841,902
6810,844,900
6811,841,900
6812,842,901
6813,845,903
6814,847,904
6815,847,905
6816,850,905
6817,850,904
6818,849,903
6819,848,904
6820,843,899
6821,842,896
6822,845,898
6823,843,897
6824,844,901
6825,847,901
6826,848,904
6827,850,904
6828,853,904
6829,853,903
6830,852,901
6831,852,900
6832,850,898
6833,849,896
6834,849,898
6835,846,897
6836,847,899
6837,849,900
6838,851,899
6839,852,901
6840,852,901
6841,852,902
6842,853,902
6843,853,897
6844,851,897
6845,849,897
6846,849,892
6847,846,894
6848,846,896
6849,849,900
6850,852,901
6851,852,900
6852,855,901
6853,856,900
6854,854,898
6855,854,897
6856,852,899
6857,849,895
6858,850,896
6859,849,895
6860,850,900
6861,849,899
6862,854,901
6863,855,901
6864,856,902
6865,854,901
6866,853,899
6867,853,900
6868,849,899
6869,848,897
6870,850,896
6871,850,896
6872,849,898
6873,851,898
6874,851,901
6875,851,903
6876,850,903
6877,854,901
6878,855,900
6879,854,897
6880,851,896
6881,852,894
6882,851,894
6883,850,892
6884,849,897
6885,851,900
6886,853,900
6887,854,899
6888,854,902
6889,856,900
6890,852,898
6891,854,896
6892,851,893
6893,853,895
6894,852,894
6895,853,897
6896,851,898
6897,850,899
6898,851,897
6899,854,900
6900,854,899
6901,856,899
6902,854,897
6903,855,896
6904,851,894
6905,853,894
6906,852,894
6907,852,895
6908,852,895
6909,853,898
6910,853,898
6911,854,898
6912,857,899
6913,857,898
6914,859,900
6915,856,898
6916,855,899
6917,855,899
6918,856,897
6919,856,898
6920,857,898
6921,858,900
6922,865,900
6923,864,897
6924,868,896
6925,868,894
6926,866,887
6927,867,883
6928,865,877
6929,865,874
6930,864,874
6931,863,876
6932,864,881
6933,866,882
6934,867,886
6935,866,887
6936,869,885
6937,868,885
6938,868,883
6939,865,882
6940,865,881
6941,865,884
6942,864,884
6943,864,890
6944,861,892
6945,860,896
6946,863,899
6947,862,899
6948,865,899
6949,861,898
6950,858,895
6951,855,893
6952,851,891
6953,852,891
6954,852,892
6955,851,893
6956,851,894
6957,853,895
6958,855,896
6959,854,897
6960,855,898
6961,856,900
6962,853,900
6963,853,901
6964,855,896
6965,855,896
6966,857,898
6967,856,898
6968,858,894
6969,859,890
6970,863,877
6971,869,854
6972,877,825
6973,885,786
6974,901,745
6975,918,712
6976,938,680
6977,960,663
6978,979,659
6979,995,670
6980,1007,695
6981,1017,723
6982,1024,754
6983,1031,786
6984,1035,810
6985,1038,825
6986,1037,841
6987,1030,854
6988,1018,867
6989,1008,879
6990,993,888
6991,975,891
6992,958,894
6993,943,900
6994,929,901
6995,915,899
6996,908,905
6997,898,906
6998,887,905
6999,879,903
7000,873,904
7001,865,902
7002,860,903
7003,859,902
7004,859,904
7005,861,905
7006,862,907
7007,865,908
7008,868,909
7009,867,908
7010,867,907
7011,865,908
7012,865,906
7013,864,908
7014,863,905
7015,862,906
7016,862,907
7017,865,909
7018,865,911
7019,868,912
7020,869,911
7021,871,910
7022,870,910
7023,870,908
7024,867,907
7025,867,906
7026,868,904
7027,867,904
7028,868,905
7029,866,908
7030,869,907
7031,869,910
7032,871,909
7033,871,910
7034,871,908
7035,873,906
7036,871,903
7037,868,903
7038,869,902
7039,866,904
7040,869,905
7041,870,907
7042,872,910
7043,872,910
7044,872,909
7045,874,907
7046,874,906
7047,873,907
7048,872,902
7049,871,903
7050,869,903
7051,868,902
7052,871,903
7053,869,904
7054,873,905
7055,872,907
7056,878,908
7057,876,907
7058,877,905
7059,878,903
7060,872,903
7061,874,901
7062,873,897
7063,873,897
7064,873,901
7065,877,901
7066,876,904
7067,879,905
7068,880,906
7069,882,905
7070,882,902
7071,881,902
7072,878,899
7073,880,898
7074,879,899
7075,878,899
7076,877,899
7077,879,901
7078,881,901
7079,883,903
7080,883,903
7081,883,902
7082,884,900
7083,883,898
7084,881,897
7085,880,896
7086,877,894
7087,878,893
7088,878,896
7089,879,897
7090,876,897
7091,879,897
7092,878,897
7093,877,898
7094,877,896
7095,872,895
7096,868,895
7097,869,891
7098,867,889
7099,865,890
7100,862,891
7101,864,894
7102,863,895
7103,863,895
7104,862,895
7105,858,896
7106,856,895
7107,854,895
7108,850,893
7109,846,892
7110,845,891
7111,846,892
7112,844,894
7113,843,894
7114,844,898
7115,841,895
7116,843,898
7117,843,899
7118,841,897
7119,839,897
7120,836,893
7121,834,892
7122,832,890
7123,832,894
7124,831,894
7125,833,896
7126,834,898
7127,835,901
7128,837,900
7129,835,897
7130,834,898
7131,833,898
7132,830,896
7133,828,893
7134,827,893
7135,827,894
7136,827,896
7137,829,897
7138,830,899
7139,830,899
7140,832,900
7141,832,897
7142,830,899
7143,829,896
7144,830,895
7145,827,892
7146,826,895
7147,827,893
7148,825,895
7149,827,895
7150,828,896
7151,829,899
7152,833,899
7153,832,899
7154,832,899
7155,830,895
7156,829,892
7157,826,893
7158,826,888
7159,827,892
7160,827,893
7161,827,893
7162,827,895
7163,830,895
7164,832,896
7165,830,895
7166,827,896
7167,829,892
7168,824,892
7169,825,890
7170,828,889
7171,827,889
7172,825,889
7173,829,891
7174,828,894
7175,831,894
7176,832,896
7177,832,894
7178,832,891
7179,832,889
7180,830,889
7181,829,888
7182,829,884
7183,827,889
7184,824,888
7185,827,893
7186,831,892
7187,833,892
7188,834,895
7189,834,893
7190,834,893
7191,834,891
7192,831,891
7193,831,887
7194,829,885
7195,827,886
7196,828,887
7197,827,887
7198,831,890
7199,832,889
7200,835,890
7201,834,890
7202,836,888
7203,832,888
7204,833,887
7205,833,885
7206,834,886
7207,831,885
7208,832,888
7209,833,889
7210,834,890
7211,833,891
7212,836,890
7213,837,889
7214,834,890
7215,835,887
7216,835,888
7217,833,884
7218,834,886
7219,835,887
7220,835,887
7221,835,886
7222,837,888
7223,839,888
7224,839,892
7225,840,889
7226,840,888
7227,839,887
7228,838,886
7229,837,884
7230,836,882
7231,835,882
7232,835,887
7233,835,889
7234,837,886
7235,839,888
7236,840,889
7237,841,892
7238,841,891
7239,840,885
7240,837,886
7241,836,885
7242,832,882
7243,832,884
7244,832,886
7245,831,887
7246,833,886
7247,836,890
7248,837,891
7249,836,889
7250,837,890
7251,838,884
7252,835,885
7253,834,882
7254,834,883
7255,835,884
7256,836,883
7257,837,886
7258,838,889
7259,840,888
7260,841,887
7261,840,889
7262,841,887
7263,841,886
7264,840,884
7265,839,883
7266,840,882
7267,839,882
7268,838,884
7269,839,885
7270,837,887
7271,840,888
7272,843,890
7273,841,888
7274,844,887
7275,845,887
7276,843,889
7277,843,885
7278,845,886
7279,844,887
7280,847,886
7281,850,888
7282,851,885
7283,855,884
7284,855,882
7285,853,876
7286,855,872
7287,855,868
7288,854,864
7289,854,865
7290,853,865
7291,853,868
7292,852,871
7293,855,872
7294,854,872
7295,853,875
7296,855,875
7297,854,873
7298,853,871
7299,856,871
7300,854,872
7301,854,872
7302,853,875
7303,852,879
7304,850,883
7305,850,886
7306,852,887
7307,853,887
7308,853,888
7309,853,886
7310,851,885
7311,849,884
7312,843,880
7313,843,878
7314,843,880
7315,842,880
7316,843,882
7317,843,884
7318,847,885
7319,847,887
7320,852,888
7321,851,890
7322,851,890
7323,853,890
7324,851,890
7325,852,889
7326,851,881
7327,853,870
7328,857,852
7329,864,829
7330,871,795
7331,884,759
7332,902,720
7333,920,683
7334,940,654
7335,959,639
7336,972,638
7337,984,651
7338,993,676
7339,996,708
7340,998,742
7341,1002,768
7342,1013,795
7343,1020,813
7344,1024,829
7345,1020,846
7346,1010,860
7347,994,870
7348,977,878
7349,957,881
7350,941,881
7351,923,884
7352,907,887
7353,894,890
7354,883,893
7355,877,897
7356,873,898
7357,867,899
7358,862,900
7359,858,896
7360,855,896
7361,851,894
7362,853,894
7363,854,893
7364,854,896
7365,854,897
7366,856,898
7367,860,901
7368,861,902
7369,861,903
7370,860,901
7371,862,899
7372,861,897
7373,860,898
7374,860,896
7375,858,898
7376,858,897
7377,860,900
7378,862,899
7379,862,899
7380,864,904
7381,866,900
7382,866,900
7383,865,902
7384,865,900
7385,864,897
7386,865,899
7387,863,897
7388,862,897
7389,862,902
7390,866,902
7391,867,902
7392,869,903
7393,870,901
7394,870,903
7395,869,901
7396,869,899
7397,870,895
7398,866,894
7399,869,895
7400,870,895
7401,870,898
7402,871,898
7403,872,900
7404,874,903
7405,875,903
7406,875,902
7407,873,895
7408,871,895
7409,873,896
7410,869,896
7411,869,894
7412,869,896
7413,869,898
7414,870,898
7415,871,899
7416,873,899
7417,877,900
7418,878,898
7419,878,900
7420,876,899
7421,876,896
7422,875,897
7423,874,895
7424,875,897
7425,873,898
7426,878,900
7427,878,903
7428,881,900
7429,882,899
7430,878,899
7431,883,895
7432,881,894
7433,878,896
7434,879,891
7435,876,890
7436,879,892
7437,877,892
7438,877,893
7439,881,894
7440,881,893
7441,882,895
7442,882,895
7443,880,893
7444,878,890
7445,879,889
7446,878,886
7447,875,886
7448,874,889
7449,873,887
7450,874,888
7451,875,890
7452,875,891
7453,877,893
7454,875,890
7455,872,886
7456,869,888
7457,863,884
7458,863,884
7459,862,882
7460,858,885
7461,858,886
7462,856,888
7463,855,891
7464,857,891
7465,855,890
7466,853,889
7467,853,887
7468,848,886
7469,846,884
7470,844,884
7471,842,884
7472,840,886
7473,840,885
7474,840,888
7475,841,888
7476,840,891
7477,842,888
7478,840,888
7479,840,888
7480,839,886
7481,836,886
7482,833,886
7483,834,885
7484,832,888
7485,833,890
7486,834,892
7487,834,890
7488,836,892
7489,837,891
7490,834,891
7491,834,889
7492,832,888
7493,831,889
7494,828,888
7495,827,888
7496,827,889
7497,828,891
7498,830,895
7499,831,894
7500,832,896
7501,832,897
7502,831,894
7503,831,892
7504,828,888
7505,826,888
7506,821,888
7507,826,888
7508,825,889
7509,826,890
7510,826,890
7511,828,892
7512,828,894
7513,829,894
7514,829,893
7515,826,891
7516,828,887
7517,827,887
7518,824,886
7519,822,885
7520,823,887
7521,825,889
7522,827,894
7523,829,893
7524,829,892
7525,829,890
7526,828,889
7527,829,886
7528,826,886
7529,827,887
7530,826,883
7531,826,883
7532,826,884
7533,826,887
7534,828,886
7535,826,889
7536,830,889
7537,831,889
7538,832,886
7539,832,885
7540,831,883
7541,829,882
7542,827,883
7543,827,882
7544,828,885
7545,828,883
7546,829,885
7547,830,888
7548,832,886
7549,834,887
7550,833,886
7551,831,886
7552,830,884
7553,825,884
7554,827,883
7555,826,885
7556,826,885
7557,827,886
7558,828,888
7559,830,885
7560,830,888
7561,831,886
7562,831,885
7563,832,884
7564,831,883
7565,831,880
7566,830,880
7567,829,882
7568,829,884
7569,831,882
7570,831,885
7571,831,886
7572,834,886
7573,835,887
7574,835,887
7575,835,885
7576,835,882
7577,835,883
7578,833,880
7579,833,883
7580,832,882
7581,834,885
7582,832,884
7583,834,886
7584,835,890
7585,835,888
7586,835,886
7587,836,886
7588,836,883
7589,833,881
7590,833,880
7591,828,879
7592,830,880
7593,832,882
7594,834,884
7595,835,885
7596,834,889
7597,837,887
7598,836,885
7599,835,884
7600,833,883
7601,834,881
7602,831,882
7603,831,883
7604,832,881
7605,833,882
7606,834,883
7607,835,888
7608,835,888
7609,835,886
7610,834,886
7611,834,885
7612,831,881
7613,833,879
7614,832,881
7615,832,878
7616,833,882
7617,834,881
7618,835,886
7619,836,887
7620,837,887
7621,838,885
7622,838,881
7623,837,882
7624,838,881
7625,833,879
7626,834,879
7627,833,878
7628,833,880
7629,831,883
7630,835,886
7631,837,887
7632,840,889
7633,838,890
7634,839,890
7635,839,888
7636,844,883
7637,847,880
7638,847,880
7639,846,880
7640,845,876
7641,846,876
7642,847,875
7643,847,869
7644,849,867
7645,853,869
7646,852,866
7647,853,866
7648,853,867
7649,852,867
7650,850,867
7651,848,864
7652,849,865
7653,848,869
7654,849,871
7655,851,873
7656,854,876
7657,855,875
7658,855,880
7659,854,881
7660,852,883
7661,848,880
7662,845,880
7663,844,879
7664,843,878
7665,844,881
7666,842,881
7667,843,882
7668,843,885
7669,842,884
7670,841,884
7671,843,882
7672,842,882
7673,844,880
7674,844,879
7675,843,882
7676,846,884
7677,844,886
7678,843,890
7679,847,892
7680,847,895
7681,850,892
7682,851,888
7683,854,879
7684,857,860
7685,861,836
7686,868,799
7687,880,758
7688,897,715
7689,919,677
7690,944,647
7691,970,638
7692,989,647
7693,1008,667
7694,1018,698
7695,1024,729
7696,1026,756
7697,1030,778
7698,1031,798
7699,1034,814
7700,1026,831
7701,1015,847
7702,1004,864
7703,990,874
7704,973,883
7705,957,884
7706,939,883
7707,922,881
7708,906,885
7709,892,885
7710,882,887
7711,873,888
7712,866,890
7713,860,892
7714,858,894
7715,856,894
7716,854,897
7717,856,897
7718,856,897
7719,857,894
7720,857,894
7721,856,894
7722,857,893
7723,854,892
7724,852,892
7725,855,896
7726,858,898
7727,857,900
7728,860,901
7729,861,903
7730,862,900
7731,864,898
7732,862,895
7733,861,895
7734,858,893
7735,857,894
7736,858,894
7737,857,898
7738,859,900
7739,864,899
7740,865,904
7741,867,901
7742,866,898
7743,866,900
7744,868,897
7745,866,895
7746,866,896
7747,865,893
7748,865,895
7749,866,899
7750,866,899
7751,866,899
7752,867,899
7753,868,899
7754,868,896
7755,870,895
7756,872,896
7757,871,897
7758,868,895
7759,868,894
7760,870,893
7761,868,894
7762,871,896
7763,872,898
7764,872,900
7765,875,901
7766,874,897
7767,875,896
7768,874,895
7769,873,894
7770,872,892
7771,873,894
7772,872,894
7773,873,897
7774,874,900
7775,875,899
7776,880,900
7777,882,904
7778,882,900
7779,883,896
7780,880,895
7781,880,895
7782,877,892
7783,881,891
7784,883,894
7785,885,895
7786,886,897
7787,888,898
7788,888,899
7789,888,899
7790,888,896
7791,887,895
7792,888,893
7793,886,891
7794,883,890
7795,882,890
7796,879,890
7797,880,893
7798,881,895
7799,881,894
7800,884,893
7801,882,896
7802,884,895
7803,880,894
7804,880,891
7805,874,892
7806,869,888
7807,867,891
7808,865,892
7809,866,892
7810,866,893
7811,866,896
7812,865,897
7813,864,896
7814,863,894
7815,861,892
7816,859,892
7817,857,888
7818,854,890
7819,850,891
7820,850,890
7821,849,892
7822,849,896
7823,845,896
7824,850,898
7825,850,896
7826,848,894
7827,846,895
7828,843,891
7829,843,889
7830,842,889
7831,840,890
7832,836,891
7833,840,893
7834,842,893
7835,843,897
7836,844,898
7837,845,896
7838,842,898
7839,840,897
7840,837,895
7841,838,894
7842,834,892
7843,836,893
7844,835,892
7845,834,893
7846,836,896
7847,837,898
7848,837,900
7849,839,900
7850,839,899
7851,836,896
7852,838,895
7853,836,892
7854,834,893
7855,833,891
7856,833,893
7857,834,895
7858,834,898
7859,836,902
7860,836,902
7861,837,899
7862,834,900
7863,836,894
7864,834,896
7865,834,895
7866,831,894
7867,831,893
7868,830,894
7869,832,896
7870,831,899
7871,833,897
7872,835,899
7873,836,898
7874,834,895
7875,834,894
7876,833,893
7877,832,891
7878,833,889
7879,831,888
7880,831,891
7881,831,890
7882,832,893
7883,832,893
7884,833,895
7885,833,894
7886,834,896
7887,833,892
7888,833,891
7889,833,887
7890,830,888
7891,830,887
7892,830,888
7893,830,893
7894,833,894
7895,832,894
7896,834,895
7897,835,891
7898,836,892
7899,837,891
7900,835,888
7901,833,886
7902,833,884
7903,833,885
7904,833,884
7905,835,887
7906,835,888
7907,835,889
7908,836,891
7909,839,890
7910,839,891
7911,838,891
7912,838,887
7913,834,887
7914,834,887
7915,833,884
7916,836,886
7917,835,887
7918,834,886
7919,838,889
7920,837,893
7921,838,891
7922,837,891
7923,838,888
7924,837,888
7925,838,884
7926,837,884
7927,835,884
7928,837,883
7929,836,886
7930,837,887
7931,839,889
7932,841,888
7933,841,892
7934,838,887
7935,841,887
7936,837,885
7937,841,882
7938,839,883
7939,839,881
7940,837,882
7941,839,886
7942,838,887
7943,841,887
7944,843,887
7945,844,888
7946,842,888
7947,843,886
7948,840,884
7949,842,886
7950,841,885
7951,838,883
7952,836,883
7953,838,884
7954,841,884
7955,841,887
7956,842,887
7957,843,887
7958,843,886
7959,845,887
7960,844,885
7961,843,883
7962,842,882
7963,839,883
7964,837,882
7965,842,884
7966,840,888
7967,843,888
7968,843,888
7969,847,886
7970,845,886
7971,845,886
7972,845,885
7973,844,884
7974,842,883
7975,838,883
7976,840,887
7977,842,887
7978,846,887
7979,847,890
7980,849,892
7981,849,894
7982,851,891
7983,856,888
7984,855,884
7985,854,880
7986,853,877
7987,852,878
7988,851,875
7989,853,872
7990,853,871
7991,856,870
7992,858,870
7993,857,870
7994,859,871
7995,859,867
7996,859,871
7997,858,871
7998,856,868
7999,855,868
8000,855,869
8001,856,869
8002,858,872
8003,859,876
8004,863,879
8005,865,882
8006,862,883
8007,862,884
8008,858,884
8009,856,884
8010,854,883
8011,852,881
8012,850,879
8013,851,881
8014,850,884
8015,851,885
8016,852,888
8017,853,888
8018,855,888
8019,852,885
8020,851,881
8021,850,881
8022,847,879
8023,846,878
8024,846,882
8025,846,883
8026,849,884
8027,851,890
8028,856,893
8029,856,894
8030,858,890
8031,859,887
8032,858,879
8033,858,866
8034,859,848
8035,862,826
8036,868,794
8037,879,761
8038,893,726
8039,914,693
8040,942,666
8041,965,651
8042,991,650
8043,1012,663
8044,1027,691
8045,1034,726
8046,1041,758
8047,1044,788
8048,1050,815
8049,1053,836
8050,1051,854
8051,1041,870
8052,1029,881
8053,1014,888
8054,997,888
8055,977,888
8056,954,888
8057,932,890
8058,909,888
8059,893,890
8060,883,893
8061,877,895
8062,868,899
8063,868,899
8064,864,899
8065,864,899
8066,862,900
8067,860,898
8068,862,897
8069,862,896
8070,862,897
8071,860,897
8072,860,900
8073,861,899
8074,860,901
8075,863,901
8076,863,902
8077,863,903
8078,866,903
8079,865,906
8080,864,901
8081,862,901
8082,863,901
8083,861,900
8084,863,900
8085,864,903
8086,865,904
8087,866,908
8088,868,908
8089,870,909
8090,869,907
8091,869,906
8092,867,903
8093,865,902
8094,865,900
8095,865,901
8096,865,902
8097,865,902
8098,864,906
8099,867,908
8100,870,907
8101,873,907
8102,873,906
8103,872,905
8104,873,903
8105,869,901
8106,870,898
8107,868,901
8108,868,903
8109,867,901
8110,868,904
8111,869,906
8112,871,907
8113,874,906
8114,873,906
8115,875,903
8116,874,902
8117,873,900
8118,871,899
8119,869,900
8120,869,901
8121,871,904
8122,871,905
8123,873,906
8124,875,908
8125,877,906
8126,877,904
8127,878,902
8128,876,900
8129,876,898
8130,875,896
8131,873,896
8132,876,899
8133,875,899
8134,878,900
8135,877,903
8136,881,903
8137,882,902
8138,883,899
8139,880,900
8140,883,898
8141,881,896
8142,879,894
8143,878,894
8144,876,893
8145,878,894
8146,879,895
8147,881,896
8148,881,895
8149,879,896
8150,879,894
8151,881,893
8152,879,892
8153,878,891
8154,875,887
8155,872,887
8156,870,888
8157,868,890
8158,870,892
8159,870,892
8160,871,892
8161,870,892
8162,869,893
8163,869,890
8164,866,889
8165,863,887
8166,860,885
8167,858,885
8168,856,885
8169,853,885
8170,857,889
8171,855,889
8172,855,894
8173,855,892
8174,856,891
8175,852,891
8176,852,889
8177,850,887
8178,847,886
8179,847,889
8180,848,889
8181,846,887
8182,846,890
8183,846,893
8184,846,892
8185,847,891
8186,846,892
8187,846,892
8188,844,888
8189,844,888
8190,842,888
8191,840,887
8192,842,890
8193,839,890
8194,841,892
8195,842,892
8196,843,891
8197,845,893
8198,845,895
8199,845,893
8200,841,892
8201,842,891
8202,839,890
8203,839,888
8204,839,891
8205,838,892
8206,839,896
8207,839,895
8208,841,898
8209,840,896
8210,840,896
8211,838,893
8212,837,893
8213,837,892
8214,838,892
8215,836,888
8216,835,891
8217,835,892
8218,837,893
8219,836,894
8220,839,894
8221,841,894
8222,838,894
8223,835,894
8224,835,890
8225,835,888
8226,835,889
8227,833,888
8228,833,887
8229,836,889
8230,838,890
8231,837,891
8232,838,893
8233,839,890
8234,838,892
8235,841,892
8236,841,886
8237,841,889
8238,840,885
8239,839,886
8240,838,887
8241,839,887
8242,839,890
8243,840,891
8244,841,889
8245,844,890
8246,842,891
8247,842,890
8248,841,887
8249,840,887
8250,841,884
8251,839,885
8252,839,884
8253,838,886
8254,839,888
8255,841,889
8256,844,891
8257,847,890
8258,846,888
8259,843,887
8260,843,887
8261,843,883
8262,842,880
8263,840,883
8264,839,885
8265,842,884
8266,842,886
8267,845,886
8268,841,886
8269,845,886
8270,846,887
8271,849,883
8272,848,883
8273,845,885
8274,844,883
8275,846,882
8276,843,880
8277,843,881
8278,844,884
8279,846,886
8280,849,889
8281,846,886
8282,848,887
8283,848,885
8284,846,881
8285,846,881
8286,844,880
8287,845,881
8288,845,880
8289,845,883
8290,847,885
8291,847,885
8292,849,886
8293,850,889
8294,849,885
8295,851,884
8296,849,884
8297,846,881
8298,845,879
8299,845,880
8300,846,880
8301,845,883
8302,847,883
8303,847,886
8304,849,886
8305,849,886
8306,850,883
8307,848,884
8308,848,883
8309,848,882
8310,846,878
8311,848,880
8312,848,880
8313,847,880
8314,849,883
8315,848,882
8316,850,884
8317,853,887
8318,853,886
8319,853,883
8320,853,881
8321,852,881
8322,852,881
8323,851,881
8324,849,882
8325,851,881
8326,852,884
8327,853,885
8328,855,887
8329,856,887
8330,858,887
8331,856,888
8332,858,885
8333,857,884
8334,857,882
8335,859,879
8336,863,880
8337,865,880
8338,864,877
8339,867,877
8340,866,873
8341,868,870
8342,868,869
8343,866,865
8344,866,865
8345,865,865
8346,863,865
8347,863,867
8348,864,869
8349,864,868
8350,866,871
8351,868,870
8352,870,874
8353,872,875
8354,870,877
8355,872,877
8356,870,878
8357,868,880
8358,865,880
8359,866,880
8360,864,880
8361,861,880
8362,860,881
8363,857,881
8364,857,885
8365,858,886
8366,860,885
8367,859,883
8368,857,880
8369,854,880
8370,856,879
8371,856,877
8372,859,880
8373,858,879
8374,859,882
8375,861,882
8376,864,888
8377,864,890
8378,863,889
8379,864,887
8380,864,881
8381,866,869
8382,865,852
8383,867,828
8384,872,794
8385,881,757
8386,898,723
8387,923,685
8388,948,655
8389,973,630
8390,992,626
8391,1009,636
8392,1021,660
8393,1027,691
8394,1032,721
8395,1040,752
8396,1048,777
8397,1058,798
8398,1064,817
8399,1066,835
8400,1059,854
8401,1049,868
8402,1031,878
8403,1015,882
8404,999,884
8405,980,887
8406,960,883
8407,941,886
8408,921,886
8409,904,891
8410,894,892
8411,883,896
8412,879,898
8413,877,899
8414,873,899
8415,870,898
8416,872,897
8417,870,897
8418,868,895
8419,866,894
8420,863,897
8421,865,896
8422,868,901
8423,869,902
8424,868,903
8425,869,904
8426,871,902
8427,872,901
8428,871,901
8429,869,898
8430,869,896
8431,868,897
8432,869,899
8433,871,901
8434,871,904
8435,871,904
8436,874,906
8437,877,906
8438,875,905
8439,874,904
8440,873,901
8441,871,902
8442,870,901
8443,869,899
8444,868,899
8445,869,899
8446,872,902
8447,872,903
8448,875,904
8449,877,906
8450,877,905
8451,877,904
8452,875,904
8453,875,902
8454,874,901
8455,872,899
8456,872,900
8457,874,901
8458,874,901
8459,872,902
8460,878,903
8461,880,906
8462,880,904
8463,876,903
8464,878,904
8465,879,900
8466,877,901
8467,875,900
8468,874,899
8469,876,899
8470,876,903
8471,878,905
8472,879,908
8473,881,906
8474,880,907
8475,882,903
8476,881,901
8477,880,898
8478,878,899
8479,880,897
8480,880,898
8481,879,899
8482,881,900
8483,883,903
8484,884,903
8485,886,903
8486,888,902
8487,888,900
8488,887,898
8489,887,897
8490,885,895
8491,885,897
8492,883,896
8493,883,897
8494,884,897
8495,885,896
8496,886,897
8497,886,896
8498,885,895
8499,886,896
8500,888,892
8501,883,890
8502,880,886
8503,879,885
8504,877,886
8505,878,886
8506,879,888
8507,879,889
8508,881,890
8509,881,890
8510,880,888
8511,879,888
8512,873,885
8513,870,887
8514,867,883
8515,865,881
8516,865,883
8517,863,884
8518,860,889
8519,862,890
8520,864,888
8521,864,889
8522,862,886
8523,859,886
8524,858,884
8525,856,884
8526,854,881
8527,854,884
8528,853,882
8529,852,884
8530,853,888
8531,853,886
8532,852,889
8533,852,891
8534,852,889
8535,851,889
8536,847,888
8537,847,887
8538,847,887
8539,846,886
8540,845,887
8541,845,888
8542,846,890
8543,847,893
8544,848,895
8545,849,893
8546,845,892
8547,846,894
8548,845,891
8549,843,889
8550,840,887
8551,838,888
8552,839,889
8553,839,890
8554,841,892
8555,839,896
8556,840,895
8557,839,895
8558,837,895
8559,838,893
8560,837,892
8561,834,890
8562,829,889
8563,830,889
8564,829,889
8565,830,892
8566,832,893
8567,833,894
8568,833,894
8569,835,893
8570,832,891
8571,831,890
8572,831,890
8573,830,891
8574,831,886
8575,830,887
8576,826,887
8577,826,887
8578,830,889
8579,829,888
8580,831,889
8581,833,889
8582,833,888
8583,834,887
8584,833,884
8585,833,886
8586,832,884
8587,832,882
8588,828,884
8589,830,885
8590,831,884
8591,832,885
8592,834,889
8593,838,889
8594,837,887
8595,836,887
8596,835,884
8597,835,884
8598,833,880
8599,831,879
8600,831,882
8601,830,883
8602,833,883
8603,836,884
8604,838,887
8605,840,887
8606,840,887
8607,840,886
8608,836,886
8609,834,883
8610,832,882
8611,833,881
8612,833,884
8613,836,884
8614,836,886
8615,839,887
8616,839,886
8617,842,887
8618,840,883
8619,839,885
8620,838,882
8621,839,883
8622,837,880
8623,837,880
8624,836,883
8625,835,882
8626,836,885
8627,838,885
8628,837,888
8629,841,887
8630,839,886
8631,840,885
8632,839,884
8633,840,882
8634,839,883
8635,840,881
8636,837,881
8637,836,882
8638,837,883
8639,839,884
8640,839,887
8641,843,886
8642,844,884
8643,841,882
8644,842,881
8645,841,880
8646,839,881
8647,838,879
8648,837,880
8649,839,882
8650,839,883
8651,841,881
8652,841,882
8653,844,885
8654,844,884
8655,843,884
8656,840,882
8657,840,882
8658,837,879
8659,839,879
8660,836,880
8661,839,881
8662,837,882
8663,838,883
8664,839,885
8665,841,885
8666,840,884
8667,842,881
8668,841,880
8669,841,882
8670,839,880
8671,837,879
8672,838,878
8673,839,880
8674,840,882
8675,839,883
8676,840,886
8677,844,884
8678,845,883
8679,844,882
8680,845,881
8681,844,882
8682,844,881
8683,840,881
8684,840,881
8685,841,883
8686,844,886
8687,847,887
8688,853,886
8689,855,884
8690,856,882
8691,859,878
8692,858,871
8693,854,867
8694,853,863
8695,851,862
8696,850,861
8697,850,862
8698,853,867
8699,854,869
8700,855,871
8701,859,871
8702,857,871
8703,856,871
8704,856,869
8705,855,869
8706,853,868
8707,855,872
8708,853,873
8709,853,877
8710,854,882
8711,853,885
8712,854,885
8713,851,886
8714,850,885
8715,848,884
8716,845,880
8717,842,880
8718,840,880
8719,841,880
8720,838,880
8721,836,880
8722,839,882
8723,839,883
8724,842,885
8725,846,888
8726,845,888
8727,845,887
8728,843,888
8729,844,890
8730,843,888
8731,845,883
8732,844,870
8733,846,856
8734,850,833
8735,858,799
8736,871,760
8737,891,722
8738,913,679
8739,935,642
8740,957,618
8741,972,614
8742,986,630
8743,992,660
8744,1001,701
8745,1007,738
8746,1017,770
8747,1029,797
8748,1037,820
8749,1040,837
8750,1034,856
8751,1024,870
8752,1007,878
8753,990,883
8754,970,887
8755,947,883
8756,925,887
8757,907,890
8758,897,892
8759,884,895
8760,878,897
8761,871,898
8762,867,898
8763,862,902
8764,858,896
8765,856,899
8766,851,897
8767,849,899
8768,850,901
8769,852,899
8770,852,902
8771,852,906
8772,853,904
8773,856,908
8774,854,906
8775,857,905
8776,857,904
8777,852,901
8778,853,904
8779,853,903
8780,852,903
8781,852,904
8782,854,906
8783,855,907
8784,854,908
8785,857,907
8786,857,908
8787,858,906
8788,861,905
8789,859,904
8790,858,904
8791,858,903
8792,856,904
8793,856,905
8794,859,907
8795,859,909
8796,859,908
8797,861,909
8798,863,911
8799,863,907
8800,864,903
8801,863,904
8802,860,905
8803,863,903
8804,862,902
8805,860,904
8806,859,904
8807,860,909
8808,864,908
8809,865,909
8810,863,907
8811,866,907
8812,863,905
8813,861,904
8814,860,904
8815,860,901
8816,858,902
8817,863,902
8818,865,906
8819,864,907
8820,867,909
8821,869,908
8822,868,909
8823,867,906
8824,869,905
8825,868,905
8826,869,900
8827,868,900
8828,867,900
8829,866,899
8830,868,904
8831,871,904
8832,873,906
8833,876,906
8834,878,906
8835,877,904
8836,876,900
8837,875,900
8838,873,899
8839,872,898
8840,870,899
8841,869,896
8842,871,900
8843,872,900
8844,873,901
8845,871,900
8846,872,900
8847,876,897
8848,872,893
8849,869,891
8850,869,889
8851,867,889
8852,866,889
8853,865,888
8854,864,888
8855,865,890
8856,862,894
8857,862,892
8858,861,891
8859,859,890
8860,855,889
8861,854,887
8862,851,887
8863,848,884
8864,847,887
8865,844,888
8866,844,889
8867,844,889
8868,843,891
8869,843,892
8870,844,890
8871,842,890
8872,840,887
8873,837,887
8874,836,886
8875,832,886
8876,831,886
8877,828,887
8878,827,889
8879,828,890
8880,830,892
8881,831,892
8882,831,894
8883,829,891
8884,830,887
8885,827,888
8886,825,888
8887,822,890
8888,822,887
8889,819,889
8890,821,892
8891,821,892
8892,822,895
8893,825,897
8894,824,896
8895,821,895
8896,822,896
8897,819,892
8898,816,894
8899,814,889
8900,812,892
8901,810,893
8902,811,895
8903,812,894
8904,811,897
8905,811,897
8906,812,897
8907,810,895
8908,811,893
8909,808,891
8910,805,891
8911,801,890
8912,803,889
8913,803,889
8914,805,892
8915,805,894
8916,809,895
8917,810,895
8918,808,894
8919,809,894
8920,808,889
8921,807,890
8922,805,889
8923,805,885
8924,805,888
8925,805,889
8926,804,889
8927,806,892
8928,809,892
8929,807,891
8930,808,892
8931,807,891
8932,806,887
8933,805,887
8934,803,885
8935,799,886
8936,801,885
8937,803,885
8938,804,888
8939,803,889
8940,805,888
8941,807,890
8942,810,891
8943,808,889
8944,809,888
8945,807,886
8946,805,883
8947,803,883
8948,803,884
8949,801,884
8950,804,885
8951,804,888
8952,807,888
8953,810,891
8954,809,889
8955,812,888
8956,807,885
8957,806,886
8958,805,885
8959,804,881
8960,803,885
8961,802,885
8962,806,886
8963,808,888
8964,810,888
8965,811,890
8966,810,889
8967,809,887
8968,808,887
8969,809,885
8970,811,884
8971,809,880
8972,808,884
8973,806,885
8974,810,888
8975,810,885
8976,811,887
8977,811,889
8978,808,888
8979,809,886
8980,813,886
8981,811,883
8982,807,882
8983,809,882
8984,807,884
8985,809,884
8986,807,887
8987,810,888
8988,811,890
8989,815,892
8990,816,890
8991,814,888
8992,814,888
8993,813,884
8994,810,886
8995,808,885
8996,808,884
8997,806,884
8998,809,886
8999,812,889
9000,814,890
9001,815,891
9002,814,890
9003,812,887
9004,814,886
9005,814,885
9006,815,884
9007,812,882
9008,812,883
9009,812,884
9010,811,885
9011,814,889
9012,815,889
9013,816,889
9014,816,889
9015,816,890
9016,815,888
9017,815,886
9018,812,886
9019,812,883
9020,812,884
9021,814,884
9022,811,886
9023,811,887
9024,814,888
9025,816,890
9026,817,889
9027,816,888
9028,814,886
9029,815,886
9030,814,885
9031,814,885
9032,814,884
9033,814,887
9034,815,890
9035,817,891
9036,819,893
9037,822,896
9038,826,894
9039,826,890
9040,828,890
9041,829,885
9042,829,882
9043,829,877
9044,828,875
9045,828,872
9046,828,870
9047,831,872
9048,832,873
9049,834,874
9050,834,878
9051,832,878
9052,830,877
9053,832,875
9054,828,871
9055,828,875
9056,826,874
9057,825,879
9058,826,885
9059,830,886
9060,833,890
9061,831,896
9062,834,898
9063,834,903
9064,829,898
9065,826,898
9066,826,896
9067,823,895
9068,821,894
9069,820,895
9070,819,897
9071,820,900
9072,822,901
9073,825,901
9074,825,897
9075,824,899
9076,826,898
9077,824,898
9078,824,898
9079,823,897
9080,821,900
9081,823,904
9082,825,908
9083,826,910
9084,827,908
9085,832,906
9086,832,896
9087,835,880
9088,836,854
9089,840,822
9090,851,783
9091,865,742
9092,884,702
9093,907,668
9094,929,644
9095,950,638
9096,965,651
9097,978,682
9098,984,717
9099,987,752
9100,993,784
9101,997,808
9102,1000,827
9103,999,845
9104,991,861
9105,982,876
9106,966,892
9107,954,898
9108,937,903
9109,922,908
9110,906,909
9111,890,909
9112,879,908
9113,867,910
9114,856,910
9115,849,909
9116,841,911
9117,835,913
9118,833,914
9119,831,915
9120,833,919
9121,835,918
9122,835,919
9123,838,919
9124,837,919
9125,834,920
9126,834,917
9127,832,914
9128,832,916
9129,830,918
9130,833,920
9131,836,921
9132,837,921
9133,841,923
9134,839,922
9135,841,922
9136,842,921
9137,841,921
9138,839,919
9139,839,920
9140,837,919
9141,838,918
9142,839,920
9143,840,922
9144,842,923
9145,844,925
9146,845,923
9147,844,924
9148,844,921
9149,843,919
9150,843,918
9151,841,915
9152,841,918
9153,842,918
9154,845,921
9155,847,923
9156,847,924
9157,849,921
9158,849,922
9159,851,921
9160,850,921
9161,849,919
9162,847,918
9163,847,918
9164,845,915
9165,847,919
9166,846,918
9167,849,919
9168,851,921
9169,852,922
9170,855,925
9171,852,923
9172,854,920
9173,853,919
9174,853,915
9175,851,915
9176,851,915
9177,850,916
9178,851,918
9179,850,919
9180,852,920
9181,855,923
9182,857,921
9183,858,920
9184,858,918
9185,862,918
9186,857,915
9187,858,916
9188,856,917
9189,856,916
9190,857,919
9191,858,919
9192,862,919
9193,860,919
9194,863,916
9195,864,915
9196,861,912
9197,860,912
9198,857,912
9199,856,909
9200,855,910
9201,856,909
9202,856,910
9203,857,912
9204,859,909
9205,858,913
9206,860,911
9207,858,911
9208,857,910
9209,855,908
9210,851,908
9211,846,907
9212,845,905
9213,845,903
9214,842,907
9215,843,907
9216,840,910
9217,839,911
9218,840,910
9219,837,910
9220,835,909
9221,831,906
9222,826,906
9223,825,904
9224,822,902
9225,825,906
9226,823,906
9227,824,909
9228,826,911
9229,827,912
9230,825,911
9231,825,912
9232,821,911
9233,820,909
9234,818,908
9235,816,906
9236,815,907
9237,815,908
9238,815,911
9239,816,912
9240,815,914
9241,816,915
9242,816,913
9243,816,910
9244,814,911
9245,812,910
9246,813,907
9247,811,907
9248,807,908
9249,808,910
9250,808,913
9251,811,913
9252,810,913
9253,811,917
9254,812,915
9255,810,914
9256,810,912
9257,808,911
9258,805,910
9259,803,909
9260,803,910
9261,804,913
9262,806,913
9263,805,913
9264,807,915
9265,808,916
9266,805,918
9267,807,914
9268,808,913
9269,805,912
9270,803,910
9271,800,909
9272,802,908
9273,802,910
9274,801,913
9275,804,914
