'sample #','MLII','V1'
0,868,877
1,868,877
2,868,877
3,868,877
4,868,877
5,868,877
6,868,877
7,868,886
8,868,887
9,869,881
10,873,876
11,873,877
12,875,889
13,875,892
14,871,887
15,872,874
16,875,867
17,875,870
18,872,883
19,872,897
20,874,894
21,877,883
22,883,875
23,885,868
24,886,877
25,883,885
26,879,888
27,880,882
28,884,871
29,891,870
30,895,877
31,902,889
32,905,896
33,908,890
34,914,882
35,920,880
36,917,891
37,916,902
38,914,900
39,915,891
40,917,886
41,916,887
42,915,897
43,912,906
44,909,900
45,907,891
46,908,888
47,908,892
48,906,905
49,903,908
50,903,902
51,903,885
52,902,875
53,902,876
54,895,885
55,887,892
56,886,888
57,881,884
58,884,873
59,881,872
60,877,883
61,873,886
62,866,889
63,869,875
64,865,866
65,867,870
66,865,881
67,862,892
68,868,895
69,871,884
70,873,875
71,876,872
72,876,880
73,867,886
74,859,888
75,856,876
76,846,867
77,839,864
78,832,871
79,831,883
80,834,891
81,850,892
82,878,899
83,913,913
84,955,935
85,996,949
86,1034,952
87,1071,943
88,1106,940
89,1138,940
90,1165,943
91,1184,939
92,1193,916
93,1195,885
94,1193,852
95,1185,839
96,1170,846
97,1154,861
98,1130,877
99,1092,891
100,1037,905
101,972,907
102,913,904
103,875,888
104,860,874
105,861,860
106,873,861
107,884,876
108,890,889
109,890,884
110,885,878
111,876,875
112,870,871
113,856,885
114,851,892
115,852,886
116,855,882
117,860,883
118,862,894
119,858,899
120,853,901
121,853,888
122,856,880
123,855,879
124,858,888
125,856,899
126,854,900
127,856,893
128,861,886
129,864,886
130,862,899
131,860,905
132,854,903
133,852,892
134,856,881
135,858,882
136,857,893
137,856,903
138,855,903
139,857,900
140,863,890
141,864,897
142,864,901
143,863,914
144,860,914
145,858,901
146,859,892
147,862,890
148,856,898
149,851,910
150,851,914
151,853,909
152,860,901
153,864,903
154,870,917
155,867,924
156,868,925
157,865,919
158,866,906
159,866,905
160,864,914
161,860,920
162,860,923
163,864,915
164,871,909
165,881,911
166,878,927
167,876,934
168,873,931
169,871,920
170,870,903
171,873,899
172,871,909
173,871,917
174,872,920
175,872,914
176,876,905
177,880,903
178,881,909
179,879,917
180,879,915
181,880,904
182,880,892
183,881,894
184,877,898
185,876,904
186,873,898
187,877,891
188,879,883
189,880,890
190,880,900
191,873,905
192,870,892
193,870,879
194,876,874
195,876,880
196,877,890
197,873,891
198,872,887
199,872,875
200,871,874
201,875,878
202,878,893
203,874,894
204,876,886
205,876,874
206,875,869
207,880,876
208,872,883
209,867,885
210,868,880
211,867,870
212,873,870
213,874,879
214,873,893
215,870,893
216,868,885
217,870,868
218,871,861
219,869,868
220,865,878
221,863,886
222,858,879
223,860,872
224,864,868
225,867,877
226,867,884
227,864,890
228,863,881
229,862,871
230,859,864
231,859,872
232,854,880
233,850,880
234,848,872
235,852,865
236,854,864
237,856,878
238,857,888
239,853,889
240,853,878
241,854,869
242,856,865
243,855,870
244,853,879
245,851,884
246,851,874
247,856,864
248,859,867
249,860,876
250,862,885
251,860,886
252,862,873
253,869,864
254,866,867
255,867,874
256,864,881
257,861,878
258,866,868
259,873,863
260,880,867
261,882,880
262,887,886
263,886,887
264,890,874
265,893,864
266,899,869
267,902,880
268,898,889
269,898,888
270,897,882
271,898,876
272,902,878
273,903,889
274,901,903
275,899,901
276,899,888
277,896,879
278,898,875
279,893,881
280,891,891
281,886,893
282,887,885
283,887,875
284,889,872
285,888,878
286,883,891
287,876,891
288,873,879
289,871,863
290,866,855
291,864,861
292,858,869
293,854,875
294,853,872
295,855,866
296,856,866
297,856,870
298,853,882
299,853,881
300,851,869
301,853,859
302,853,856
303,854,865
304,849,872
305,848,875
306,844,867
307,842,856
308,839,858
309,829,867
310,817,877
311,810,876
312,810,867
313,820,863
314,841,867
315,863,884
316,889,907
317,926,920
318,968,921
319,1010,926
320,1051,934
321,1087,949
322,1120,958
323,1147,952
324,1167,924
325,1182,898
326,1183,871
327,1178,857
328,1166,848
329,1151,847
330,1134,857
331,1109,875
332,1062,902
333,997,917
334,934,916
335,886,887
336,858,858
337,850,841
338,850,842
339,856,855
340,864,864
341,866,864
342,869,858
343,868,857
344,860,865
345,851,873
346,846,881
347,841,874
348,840,862
349,838,851
350,841,856
351,837,871
352,834,878
353,830,876
354,833,867
355,837,865
356,840,868
357,840,884
358,839,890
359,843,887
360,843,874
361,846,868
362,843,867
363,841,874
364,838,884
365,829,886
366,835,880
367,837,869
368,843,869
369,843,882
370,841,895
371,841,898
372,839,889
373,841,878
374,842,873
375,840,882
376,837,891
377,839,895
378,838,891
379,840,878
380,847,881
381,848,888
382,843,904
383,844,907
384,843,899
385,846,890
386,850,879
387,850,889
388,845,903
389,841,910
390,841,901
391,845,893
392,849,890
393,851,901
394,854,916
395,854,918
396,847,913
397,854,899
398,857,892
399,858,894
400,856,905
401,852,911
402,849,905
403,854,898
404,856,893
405,860,903
406,862,916
407,859,919
408,859,906
409,862,891
410,861,885
411,866,893
412,860,899
413,857,905
414,857,898
415,862,885
416,866,880
417,870,882
418,869,892
419,869,901
420,867,902
421,864,888
422,865,873
423,866,864
424,866,867
425,861,879
426,860,884
427,859,879
428,861,869
429,867,865
430,866,870
431,866,878
432,864,882
433,861,873
434,861,861
435,861,852
436,860,855
437,856,866
438,854,876
439,853,873
440,853,868
441,856,857
442,860,859
443,861,871
444,858,879
445,856,876
446,855,867
447,854,852
448,856,854
449,853,862
450,850,869
451,849,873
452,854,862
453,857,857
454,858,857
455,859,865
456,852,872
457,846,874
458,849,862
459,849,847
460,847,847
461,849,852
462,845,865
463,844,873
464,841,867
465,841,856
466,848,850
467,845,855
468,840,865
469,839,867
470,836,859
471,836,848
472,835,847
473,834,854
474,832,866
475,833,865
476,836,859
477,838,855
478,840,859
479,840,867
480,838,874
481,838,869
482,839,859
483,840,849
484,840,852
485,839,859
486,839,865
487,843,863
488,850,857
489,855,854
490,859,861
491,857,871
492,852,874
493,854,869
494,857,856
495,865,847
496,870,853
497,872,864
498,874,873
499,874,873
500,880,867
501,888,860
502,891,867
503,892,878
504,890,887
505,884,889
506,886,874
507,886,861
508,885,862
509,884,872
510,877,880
511,875,882
512,877,876
513,880,868
514,880,870
515,882,875
516,881,883
517,876,880
518,874,870
519,871,858
520,864,852
521,856,860
522,849,867
523,847,867
524,844,859
525,848,851
526,849,853
527,847,863
528,846,872
529,843,870
530,839,860
531,839,847
532,837,844
533,836,853
534,835,866
535,830,868
536,833,864
537,834,851
538,843,851
539,840,857
540,838,865
541,831,871
542,824,859
543,817,847
544,810,836
545,799,842
546,793,851
547,792,870
548,804,870
549,828,870
550,860,876
551,898,892
552,937,912
553,974,928
554,1012,929
555,1041,927
556,1077,918
557,1108,920
558,1133,922
559,1149,919
560,1159,903
561,1166,868
562,1167,841
563,1160,828
564,1151,840
565,1135,860
566,1114,881
567,1073,890
568,1027,887
569,969,878
570,912,875
571,872,870
572,845,860
573,835,848
574,839,837
575,853,832
576,861,842
577,861,859
578,854,867
579,839,862
580,835,848
581,831,843
582,825,844
583,821,854
584,820,865
585,818,868
586,821,862
587,827,852
588,826,853
589,826,862
590,820,873
591,817,871
592,818,862
593,818,854
594,824,856
595,825,866
596,824,879
597,823,881
598,825,871
599,830,866
600,834,862
601,832,871
602,823,878
603,821,877
604,820,871
605,821,856
606,822,858
607,825,870
608,826,881
609,826,889
610,824,883
611,828,875
612,830,872
613,835,879
614,831,889
615,827,890
616,828,883
617,828,876
618,829,877
619,829,888
620,832,895
621,832,901
622,836,892
623,837,889
624,836,892
625,838,898
626,830,903
627,831,894
628,830,885
629,833,885
630,835,892
631,837,907
632,836,907
633,838,900
634,844,895
635,848,886
636,848,895
637,844,905
638,843,908
639,837,907
640,836,889
641,837,877
642,836,880
643,839,892
644,846,903
645,848,907
646,851,897
647,852,885
648,853,881
649,850,887
650,845,891
651,846,891
652,845,875
653,846,864
654,847,864
655,848,876
656,847,888
657,845,888
658,844,882
659,850,867
660,854,860
661,854,862
662,851,871
663,846,880
664,849,875
665,846,863
666,847,853
667,844,857
668,850,867
669,847,876
670,848,877
671,845,869
672,848,857
673,848,859
674,843,869
675,838,869
676,837,869
677,839,859
678,840,851
679,844,851
680,845,867
681,844,878
682,842,885
683,842,873
684,841,859
685,842,852
686,839,851
687,834,863
688,833,867
689,831,862
690,830,854
691,832,852
692,836,860
693,837,871
694,837,876
695,835,869
696,836,860
697,835,857
698,834,864
699,830,871
700,825,867
701,824,855
702,822,847
703,822,851
704,822,865
705,819,876
706,824,877
707,824,864
708,825,853
709,828,851
710,826,857
711,824,868
712,820,872
713,821,867
714,819,858
715,823,850
716,827,853
717,827,865
718,827,873
719,830,873
720,829,864
721,834,855
722,833,858
723,834,865
724,833,871
725,833,868
726,834,857
727,838,854
728,843,859
729,845,875
730,849,885
731,852,877
732,855,863
733,862,859
734,862,859
735,864,867
736,863,879
737,865,883
738,866,873
739,873,866
740,874,869
741,876,877
742,875,890
743,870,897
744,871,892
745,870,875
746,871,871
747,872,869
748,866,881
749,862,891
750,860,889
751,863,878
752,865,868
753,867,871
754,867,878
755,865,890
756,857,898
757,852,880
758,848,866
759,844,857
760,842,853
761,841,869
762,836,877
763,829,876
764,833,875
765,833,861
766,836,870
767,839,877
768,833,881
769,829,874
770,828,865
771,822,859
772,823,862
773,824,874
774,823,877
775,826,873
776,826,866
777,826,862
778,822,871
779,815,881
780,804,879
781,789,866
782,784,853
783,784,851
784,790,856
785,802,877
786,822,897
787,851,908
788,888,909
789,931,914
790,971,929
791,1006,950
792,1037,963
793,1066,971
794,1094,959
795,1124,943
796,1145,927
797,1157,922
798,1164,906
799,1163,888
800,1156,869
801,1150,867
802,1131,882
803,1105,910
804,1054,933
805,992,936
806,930,916
807,886,889
808,856,867
809,845,858
810,839,868
811,844,872
812,852,870
813,863,866
814,864,871
815,862,878
816,849,888
817,834,890
818,824,878
819,820,866
820,815,857
821,814,866
822,811,881
823,811,885
824,812,886
825,814,878
826,821,873
827,822,878
828,821,888
829,813,895
830,815,892
831,817,883
832,817,874
833,819,876
834,818,887
835,818,896
836,818,900
837,820,891
838,820,885
839,824,888
840,819,896
841,819,899
842,815,896
843,814,883
844,815,882
845,816,887
846,818,901
847,818,902
848,821,897
849,822,893
850,824,898
851,822,907
852,817,909
853,816,903
854,819,893
855,824,891
856,825,901
857,821,912
858,819,913
859,820,910
860,823,899
861,827,897
862,830,908
863,829,920
864,821,928
865,820,921
866,821,906
867,822,899
868,827,905
869,832,914
870,831,919
871,832,916
872,830,908
873,834,909
874,834,918
875,836,923
876,831,922
877,831,911
878,837,902
879,842,902
880,839,911
881,835,918
882,834,922
883,834,909
884,834,901
885,844,896
886,844,902
887,846,914
888,846,919
889,841,912
890,846,899
891,846,892
892,845,891
893,847,901
894,842,906
895,840,906
896,843,893
897,843,890
898,847,895
899,850,906
900,844,912
901,839,908
902,841,893
903,839,883
904,837,882
905,834,895
906,831,902
907,832,898
908,834,893
909,839,883
910,846,888
911,849,901
912,845,903
913,843,897
914,840,885
915,841,882
916,837,888
917,834,896
918,834,892
919,834,884
920,837,885
921,839,895
922,834,904
923,835,904
924,839,896
925,839,884
926,839,886
927,837,892
928,832,899
929,830,897
930,829,884
931,826,878
932,830,884
933,826,892
934,826,902
935,823,899
936,826,888
937,830,881
938,829,882
939,827,887
940,821,894
941,822,884
942,821,880
943,824,878
944,824,886
945,827,894
946,825,898
947,834,890
948,837,882
949,839,885
950,839,889
951,836,900
952,835,898
953,836,892
954,839,883
955,852,880
956,858,892
957,859,908
958,857,911
959,866,906
960,871,894
961,873,892
962,874,905
963,872,908
964,867,916
965,870,907
966,870,897
967,873,897
968,875,910
969,875,920
970,869,922
971,869,915
972,868,898
973,869,896
974,867,902
975,862,912
976,858,917
977,856,912
978,856,897
979,856,891
980,854,893
981,851,901
982,844,906
983,842,899
984,840,890
985,839,886
986,838,892
987,832,900
988,826,903
989,823,892
990,821,884
991,822,887
992,823,899
993,827,903
994,828,901
995,832,894
996,834,890
997,832,899
998,828,905
999,812,889
1000,802,876
1001,794,875
1002,786,887
1003,779,901
1004,788,908
1005,804,905
1006,831,905
1007,861,917
1008,899,940
1009,937,957
1010,974,970
1011,1009,971
1012,1044,964
1013,1076,966
1014,1108,968
1015,1133,967
1016,1149,954
1017,1160,925
1018,1163,893
1019,1163,875
1020,1151,879
1021,1132,892
1022,1102,910
1023,1062,913
1024,1011,918
1025,950,913
1026,896,916
1027,856,910
1028,832,903
1029,828,888
1030,836,876
1031,849,874
1032,859,888
1033,861,901
1034,855,905
1035,847,901
1036,837,888
1037,828,883
1038,820,892
1039,816,901
1040,812,902
1041,811,899
1042,820,890
1043,822,897
1044,820,902
1045,817,909
1046,812,907
1047,811,896
1048,812,887
1049,817,889
1050,820,901
1051,821,914
1052,822,918
1053,825,911
1054,826,901
1055,825,902
1056,823,907
1057,817,914
1058,818,908
1059,817,901
1060,817,895
1061,818,905
1062,816,917
1063,816,914
1064,821,910
1065,822,911
1066,825,915
1067,827,924
1068,824,926
1069,819,917
1070,818,908
1071,819,901
1072,819,912
1073,819,923
1074,819,930
1075,819,927
1076,823,916
1077,830,919
1078,832,924
1079,832,936
1080,827,941
1081,824,933
1082,819,919
1083,824,918
1084,826,921
1085,827,933
1086,828,939
1087,829,938
1088,833,927
1089,838,930
1090,841,937
1091,838,943
1092,835,942
1093,834,930
1094,833,919
1095,835,918
1096,835,926
1097,835,936
1098,830,939
1099,832,932
1100,837,918
1101,840,918
1102,843,927
1103,843,937
1104,841,938
1105,840,926
1106,841,915
1107,843,906
1108,838,914
1109,838,922
1110,835,923
1111,838,913
1112,843,904
1113,848,902
1114,851,913
1115,846,926
1116,842,927
1117,838,919
1118,841,901
1119,839,892
1120,841,894
1121,836,906
1122,836,917
1123,836,912
1124,836,904
1125,843,894
1126,845,897
1127,842,908
1128,842,916
1129,835,911
1130,833,899
1131,835,891
1132,836,892
1133,830,904
1134,833,909
1135,835,908
1136,838,898
1137,839,900
1138,840,905
1139,836,913
1140,838,915
1141,834,906
1142,834,893
1143,832,893
1144,832,899
1145,829,908
1146,827,913
1147,826,902
1148,829,894
1149,832,897
1150,832,904
1151,831,913
1152,824,914
1153,820,908
1154,823,894
1155,822,890
1156,821,897
1157,818,907
1158,815,910
1159,818,904
1160,821,892
1161,824,896
1162,826,905
1163,825,917
1164,824,914
1165,821,905
1166,820,890
1167,822,888
1168,824,893
1169,822,908
1170,820,911
1171,821,904
1172,821,895
1173,827,894
1174,829,904
1175,830,914
1176,827,916
1177,830,910
1178,828,893
1179,831,892
1180,833,899
1181,831,909
1182,831,910
1183,833,906
1184,837,897
1185,841,898
1186,840,909
1187,841,915
1188,841,916
1189,845,907
1190,850,897
1191,855,895
1192,857,901
1193,860,911
1194,860,914
1195,862,912
1196,870,905
1197,874,912
1198,873,926
1199,872,932
1200,872,930
1201,868,915
1202,868,910
1203,866,912
1204,858,923
1205,856,923
1206,855,917
1207,853,911
1208,861,909
1209,861,920
1210,859,928
1211,857,925
1212,853,916
1213,848,902
1214,844,902
1215,838,905
1216,830,906
1217,830,897
1218,829,895
1219,831,893
1220,830,903
1221,828,919
1222,826,922
1223,824,912
1224,822,902
1225,823,893
1226,823,894
1227,820,908
1228,818,912
1229,818,906
1230,823,897
1231,821,895
1232,824,898
1233,822,911
1234,814,917
1235,802,906
1236,791,897
1237,785,893
1238,781,896
1239,784,909
1240,792,914
1241,812,916
1242,845,920
1243,886,929
1244,931,950
1245,966,970
1246,1001,990
1247,1034,988
1248,1069,978
1249,1097,967
1250,1123,962
1251,1140,961
1252,1145,949
1253,1150,923
1254,1147,891
1255,1145,871
1256,1139,875
1257,1128,899
1258,1107,931
1259,1071,950
1260,1013,952
1261,950,936
1262,893,916
1263,851,907
1264,827,902
1265,817,895
1266,819,884
1267,838,880
1268,848,883
1269,852,898
1270,847,916
1271,843,925
1272,832,915
1273,824,902
1274,816,891
1275,811,893
1276,804,902
1277,802,907
1278,805,906
1279,805,904
1280,811,905
1281,815,911
1282,813,923
1283,812,918
1284,809,909
1285,810,902
1286,813,907
1287,812,913
1288,809,917
1289,806,911
1290,808,903
1291,811,903
1292,815,911
1293,815,921
1294,816,934
1295,815,928
1296,813,917
1297,816,905
1298,817,907
1299,813,917
1300,808,927
1301,807,926
1302,808,919
1303,814,911
1304,816,919
1305,815,931
1306,816,940
1307,815,936
1308,816,927
1309,819,916
1310,820,923
1311,820,932
1312,819,940
1313,819,941
1314,820,930
1315,820,924
1316,828,926
1317,828,934
1318,828,948
1319,826,952
1320,824,943
1321,826,930
1322,828,925
1323,825,931
1324,825,945
1325,822,946
1326,824,937
1327,826,930
1328,830,930
1329,831,941
1330,834,952
1331,833,948
1332,831,939
1333,832,927
1334,838,924
1335,835,932
1336,834,943
1337,830,942
1338,832,936
1339,836,923
1340,842,923
1341,842,927
1342,842,942
1343,840,941
1344,840,928
1345,843,917
1346,842,914
1347,840,920
1348,837,924
1349,831,922
1350,833,912
1351,837,910
1352,838,910
1353,839,921
1354,837,925
1355,837,916
1356,837,905
1357,837,901
1358,832,909
1359,827,917
1360,828,917
1361,830,907
1362,829,897
1363,836,902
1364,835,911
1365,836,922
1366,835,923
1367,835,913
1368,834,899
1369,833,897
1370,833,898
1371,831,912
1372,825,916
1373,822,909
1374,825,899
1375,831,895
1376,833,903
1377,834,918
1378,830,920
1379,828,915
1380,826,905
1381,830,897
1382,826,900
1383,821,908
1384,820,912
1385,816,904
1386,818,893
1387,819,893
1388,821,902
1389,821,917
1390,819,921
1391,820,915
1392,820,905
1393,819,897
1394,818,897
1395,815,908
1396,808,912
1397,807,904
1398,807,893
1399,811,893
1400,814,898
1401,817,914
1402,818,919
1403,817,910
1404,819,901
1405,821,894
1406,819,899
1407,815,908
1408,813,914
1409,811,907
1410,815,898
1411,816,893
1412,822,901
1413,820,914
1414,825,918
1415,828,913
1416,831,901
1417,834,898
1418,831,902
1419,833,908
1420,830,912
1421,833,905
1422,839,898
1423,848,901
1424,849,909
1425,853,922
1426,856,921
1427,864,912
1428,867,907
1429,871,911
1430,869,923
1431,864,930
1432,863,923
1433,866,914
1434,865,911
1435,866,921
1436,863,929
1437,863,931
1438,861,925
1439,863,914
1440,863,907
1441,860,914
1442,857,927
1443,850,929
1444,848,921
1445,848,906
1446,847,897
1447,845,901
1448,838,911
1449,834,920
1450,829,918
1451,832,904
1452,833,899
1453,830,899
1454,825,907
1455,822,911
1456,820,910
1457,817,900
1458,818,893
1459,821,898
1460,821,909
1461,820,921
1462,817,921
1463,819,909
1464,819,895
1465,824,891
1466,822,898
1467,817,908
1468,810,910
1469,807,903
1470,806,891
1471,799,891
1472,793,900
1473,783,911
1474,782,920
1475,788,917
1476,810,913
1477,840,921
1478,875,943
1479,914,960
1480,953,970
1481,990,966
1482,1029,966
1483,1066,973
1484,1100,989
1485,1126,992
1486,1144,985
1487,1154,957
1488,1161,922
1489,1158,895
1490,1149,887
1491,1134,899
1492,1117,914
1493,1095,926
1494,1058,933
1495,1000,941
1496,940,940
1497,881,939
1498,843,923
1499,824,900
1500,823,885
1501,832,882
1502,841,894
1503,846,908
1504,842,914
1505,837,907
1506,829,897
1507,819,900
1508,814,910
1509,809,919
1510,806,920
1511,806,910
1512,810,904
1513,812,901
1514,811,909
1515,806,920
1516,805,922
1517,804,918
1518,808,907
1519,810,903
1520,811,912
1521,811,926
1522,814,934
1523,809,928
1524,811,918
1525,816,910
1526,817,914
1527,816,921
1528,811,927
1529,809,923
1530,809,915
1531,814,911
1532,816,921
1533,817,936
1534,813,944
1535,809,938
1536,815,930
1537,816,918
1538,815,915
1539,816,924
1540,812,934
1541,810,935
1542,812,926
1543,815,921
1544,824,924
1545,824,940
1546,817,948
1547,817,946
1548,819,940
1549,821,931
1550,823,930
1551,822,941
1552,818,948
1553,816,948
1554,816,939
1555,820,930
1556,827,933
1557,829,944
1558,831,960
1559,830,961
1560,828,955
1561,828,946
1562,832,934
1563,830,934
1564,830,946
1565,831,954
1566,831,951
1567,831,942
1568,834,937
1569,837,945
1570,841,957
1571,837,955
1572,839,947
1573,840,936
1574,838,931
1575,839,935
1576,836,944
1577,834,938
1578,837,930
1579,840,923
1580,843,925
1581,847,934
1582,844,943
1583,843,938
1584,842,928
1585,842,917
1586,847,913
1587,843,919
1588,839,927
1589,838,926
1590,835,918
1591,836,908
1592,842,905
1593,846,916
1594,840,927
1595,840,932
1596,839,925
1597,840,910
1598,839,904
1599,838,903
1600,837,911
1601,834,920
1602,831,917
1603,829,906
1604,835,902
1605,839,905
1606,839,923
1607,835,929
1608,836,924
1609,836,913
1610,835,900
1611,836,900
1612,834,906
1613,829,916
1614,827,921
1615,824,917
1616,830,907
1617,832,905
1618,834,916
1619,836,925
1620,831,926
1621,830,916
1622,830,906
1623,828,898
1624,828,904
1625,821,916
1626,818,926
1627,817,920
1628,819,909
1629,824,903
1630,825,905
1631,826,915
1632,824,926
1633,817,926
1634,816,910
1635,817,903
1636,820,898
1637,816,904
1638,820,921
1639,816,925
1640,816,920
1641,817,909
1642,823,906
1643,826,912
1644,823,922
1645,819,925
1646,819,919
1647,821,906
1648,824,901
1649,824,906
1650,824,915
1651,822,926
1652,825,919
1653,830,911
1654,837,910
1655,839,916
1656,838,926
1657,836,928
1658,835,917
1659,836,904
1660,839,898
1661,840,905
1662,843,919
1663,843,932
1664,847,933
1665,855,920
1666,863,915
1667,869,914
1668,871,927
1669,871,938
1670,870,939
1671,869,932
1672,870,921
1673,872,921
1674,875,934
1675,872,942
1676,866,939
1677,869,934
1678,870,926
1679,872,927
1680,871,933
1681,865,943
1682,858,944
1683,855,929
1684,856,917
1685,859,914
1686,858,921
1687,856,935
1688,850,938
1689,845,936
1690,844,915
1691,843,904
1692,843,906
1693,839,917
1694,834,926
1695,828,927
1696,822,917
1697,824,903
1698,825,902
1699,827,915
1700,825,929
1701,820,934
1702,820,927
1703,821,917
1704,824,906
1705,828,908
1706,830,921
1707,825,928
1708,821,929
1709,819,918
1710,818,906
1711,821,904
1712,817,912
1713,809,930
1714,800,933
1715,791,926
1716,788,912
1717,791,912
1718,804,924
1719,822,940
1720,854,955
1721,894,961
1722,938,966
1723,984,978
1724,1024,996
1725,1064,1011
1726,1105,1011
1727,1133,994
1728,1154,977
1729,1165,960
1730,1169,946
1731,1160,932
1732,1151,917
1733,1138,903
1734,1125,907
1735,1107,925
1736,1077,955
1737,1029,978
1738,969,986
1739,914,961
1740,874,928
1741,851,903
1742,839,899
1743,836,904
1744,840,914
1745,847,919
1746,852,909
1747,849,912
1748,849,920
1749,837,931
1750,828,935
1751,822,930
1752,818,915
1753,818,911
1754,817,916
1755,815,924
1756,813,933
1757,810,934
1758,811,919
1759,812,916
1760,815,915
1761,814,927
1762,816,938
1763,818,949
1764,817,940
1765,819,928
1766,819,919
1767,819,928
1768,817,933
1769,814,935
1770,813,932
1771,817,926
1772,822,927
1773,819,936
1774,821,949
1775,820,951
1776,819,943
1777,821,930
1778,823,928
1779,823,935
1780,821,943
1781,820,954
1782,816,943
1783,820,937
1784,821,932
1785,826,945
1786,828,956
1787,828,961
1788,827,957
1789,828,947
1790,830,941
1791,830,948
1792,826,953
1793,826,956
1794,827,951
1795,832,947
1796,835,953
1797,835,960
1798,836,966
1799,839,959
1800,839,954
1801,840,953
1802,840,952
1803,838,961
1804,835,960
1805,836,951
1806,837,944
1807,839,948
1808,841,955
1809,842,964
1810,843,967
1811,844,954
1812,847,945
1813,847,944
1814,844,953
1815,844,956
1816,840,954
1817,844,941
1818,846,935
1819,851,937
1820,852,947
1821,853,955
1822,848,951
1823,854,940
1824,859,930
1825,858,928
1826,857,938
1827,849,945
1828,847,941
1829,847,928
1830,850,920
1831,851,916
1832,851,926
1833,853,942
1834,850,945
1835,854,941
1836,852,926
1837,853,917
1838,854,919
1839,849,932
1840,847,939
1841,843,935
1842,842,917
1843,845,915
1844,850,919
1845,850,932
1846,849,946
1847,847,943
1848,847,924
1849,846,916
1850,849,912
1851,850,917
1852,844,932
1853,840,935
1854,837,928
1855,841,920
1856,843,914
1857,848,916
1858,848,930
1859,842,941
1860,841,938
1861,840,926
1862,841,915
1863,839,913
1864,833,922
1865,835,929
1866,832,925
1867,831,921
1868,832,915
1869,837,922
1870,833,931
1871,831,935
1872,826,924
1873,827,915
1874,828,912
1875,826,921
1876,823,924
1877,824,921
1878,822,914
1879,823,910
1880,825,918
1881,826,928
1882,828,935
1883,826,926
1884,827,915
1885,831,911
1886,831,917
1887,829,924
1888,824,930
1889,827,922
1890,828,911
1891,831,910
1892,834,916
1893,835,927
1894,838,934
1895,842,929
1896,843,920
1897,848,915
1898,847,919
1899,845,925
1900,842,930
1901,843,917
1902,847,914
1903,855,913
1904,862,928
1905,864,939
1906,865,942
1907,872,933
1908,874,923
1909,880,922
1910,882,930
1911,884,943
1912,882,943
1913,881,937
1914,883,927
1915,882,927
1916,881,938
1917,880,949
1918,877,950
1919,874,944
1920,874,934
1921,875,926
1922,873,932
1923,870,942
1924,865,939
1925,865,933
1926,864,922
1927,861,923
1928,863,926
1929,856,934
1930,854,936
1931,849,927
1932,845,915
1933,847,912
1934,844,917
1935,841,926
1936,837,929
1937,837,921
1938,836,917
1939,838,916
1940,835,925
1941,836,931
1942,837,926
1943,839,919
1944,839,921
1945,836,925
1946,833,927
1947,831,927
1948,827,912
1949,821,906
1950,809,909
1951,802,921
1952,792,928
1953,794,930
1954,810,926
1955,832,924
1956,859,945
1957,895,964
1958,935,982
1959,974,985
1960,1012,983
1961,1048,983
1962,1082,995
1963,1118,1004
1964,1145,1005
1965,1166,991
1966,1177,963
1967,1178,933
1968,1169,918
1969,1157,922
1970,1140,930
1971,1121,932
1972,1090,940
1973,1039,948
1974,983,959
1975,924,961
1976,881,948
1977,858,930
1978,847,907
1979,854,896
1980,862,904
1981,868,920
1982,870,932
1983,864,938
1984,856,924
1985,848,912
1986,839,909
1987,833,919
1988,828,929
1989,825,933
1990,821,929
1991,823,920
1992,827,918
1993,826,925
1994,827,934
1995,824,938
1996,822,930
1997,821,918
1998,822,912
1999,826,916
2000,830,931
2001,826,944
2002,829,949
2003,831,941
2004,834,927
2005,834,928
2006,832,932
2007,829,942
2008,826,943
2009,826,931
2010,828,930
2011,830,932
2012,829,938
2013,827,946
2014,827,944
2015,835,937
2016,834,936
2017,834,946
2018,832,951
2019,830,947
2020,829,940
2021,831,931
2022,836,934
2023,834,947
2024,835,961
2025,832,963
2026,836,954
2027,841,945
2028,844,944
2029,841,955
2030,840,962
2031,836,962
2032,838,954
2033,835,945
2034,836,943
2035,838,954
2036,839,965
2037,842,968
2038,841,965
2039,842,956
2040,848,950
2041,850,959
2042,848,965
2043,845,968
2044,845,956
2045,847,946
2046,849,942
2047,849,947
2048,851,964
2049,851,970
2050,854,968
2051,858,954
2052,860,945
2053,858,949
2054,857,955
2055,855,958
2056,854,950
2057,856,939
2058,858,933
2059,861,940
2060,857,948
2061,856,959
2062,855,950
2063,859,940
2064,862,931
2065,862,932
2066,861,941
2067,854,945
2068,852,940
2069,850,925
2070,850,917
2071,855,919
2072,855,927
2073,858,940
2074,852,945
2075,853,938
2076,856,924
2077,856,918
2078,854,921
2079,850,931
2080,847,932
2081,849,924
2082,849,915
2083,847,919
2084,849,925
2085,852,936
2086,851,934
2087,852,928
2088,851,919
2089,854,920
2090,851,925
2091,848,929
2092,847,926
2093,845,914
2094,847,914
2095,847,919
2096,845,929
2097,841,934
2098,845,929
2099,846,920
2100,848,914
2101,846,918
2102,838,927
2103,836,934
2104,832,929
2105,832,914
2106,829,910
2107,834,910
2108,832,923
2109,830,934
2110,829,934
2111,829,927
2112,830,914
2113,833,915
2114,833,918
2115,831,924
2116,826,923
2117,828,912
2118,829,906
2119,832,909
2120,834,920
2121,834,930
2122,832,933
2123,835,923
2124,833,910
2125,836,908
2126,839,913
2127,839,923
2128,835,930
2129,829,923
2130,833,914
2131,835,908
2132,841,916
2133,845,928
2134,847,939
2135,848,941
2136,852,928
2137,853,918
2138,855,916
2139,852,924
2140,846,930
2141,847,932
2142,847,923
2143,856,916
2144,863,919
2145,870,927
2146,875,936
2147,875,945
2148,879,936
2149,883,928
2150,886,924
2151,883,932
2152,881,944
2153,879,946
2154,879,941
2155,881,930
2156,883,926
2157,884,936
2158,881,947
2159,881,947
2160,877,939
2161,876,931
2162,876,932
2163,870,936
2164,868,938
2165,865,932
2166,862,921
2167,859,920
2168,858,927
2169,854,934
2170,847,934
2171,847,922
2172,847,912
2173,848,911
2174,846,922
2175,836,930
2176,830,931
2177,832,923
2178,834,909
2179,835,908
2180,837,917
2181,839,932
2182,834,940
2183,837,930
2184,836,920
2185,840,913
2186,839,916
2187,830,924
2188,826,923
2189,821,916
2190,817,909
2191,809,908
2192,800,916
2193,800,927
2194,803,938
2195,819,937
2196,840,939
2197,873,942
2198,907,958
2199,941,978
2200,972,993
2201,1003,1002
2202,1032,996
2203,1065,993
2204,1102,997
2205,1130,1003
2206,1153,1010
2207,1166,1001
2208,1171,969
2209,1171,935
2210,1165,909
2211,1151,911
2212,1135,927
2213,1116,943
2214,1089,955
2215,1049,960
2216,1004,957
2217,950,954
2218,904,947
2219,871,943
2220,852,929
2221,851,910
2222,856,897
2223,864,901
2224,869,914
2225,867,928
2226,860,935
2227,848,931
2228,840,918
2229,838,915
2230,832,921
2231,826,931
2232,826,931
2233,821,930
2234,824,920
2235,826,918
2236,823,919
2237,822,929
2238,822,927
2239,821,921
2240,824,915
2241,832,920
2242,834,933
2243,833,943
2244,834,937
2245,832,927
2246,832,916
2247,830,916
2248,824,926
2249,823,936
2250,822,936
2251,825,927
2252,828,922
2253,836,927
2254,833,938
2255,834,948
2256,830,948
2257,828,943
2258,832,926
2259,832,922
2260,836,934
2261,834,941
2262,829,947
2263,830,940
2264,833,933
2265,839,932
2266,839,942
2267,840,957
2268,837,965
2269,837,958
2270,836,941
2271,839,932
2272,837,936
2273,835,947
2274,834,961
2275,836,963
2276,838,953
2277,841,947
2278,847,949
2279,849,961
2280,847,969
2281,849,970
2282,846,954
2283,845,946
2284,846,942
2285,844,950
2286,842,962
2287,842,966
2288,845,955
2289,847,948
2290,855,945
2291,858,956
2292,855,968
2293,854,969
2294,854,956
2295,853,943
2296,857,933
2297,858,941
2298,856,953
2299,853,959
2300,851,957
2301,857,946
2302,860,939
2303,865,941
2304,862,951
2305,859,951
2306,858,939
2307,860,928
2308,863,930
2309,856,934
2310,854,939
2311,854,938
2312,856,927
2313,860,924
2314,862,932
2315,859,942
2316,857,941
2317,856,934
2318,854,922
2319,852,917
2320,853,924
2321,849,931
2322,848,932
2323,848,928
2324,852,916
2325,855,918
2326,855,929
2327,853,941
2328,851,941
2329,851,928
2330,851,915
2331,852,913
2332,850,919
2333,846,928
2334,842,932
2335,845,922
2336,846,915
2337,850,921
2338,848,930
2339,846,937
2340,845,930
2341,841,922
2342,844,914
2343,839,917
2344,837,925
2345,834,927
2346,832,922
2347,834,912
2348,832,907
2349,836,920
2350,836,930
2351,836,934
2352,835,929
2353,835,916
2354,834,910
2355,835,912
2356,832,923
2357,826,926
2358,828,922
2359,830,912
2360,834,908
2361,837,914
2362,837,930
2363,837,934
2364,833,932
2365,833,919
2366,834,909
2367,837,911
2368,836,922
2369,837,929
2370,836,924
2371,835,917
2372,843,913
2373,844,919
2374,844,929
2375,846,931
2376,849,925
2377,850,916
2378,854,915
2379,854,920
2380,854,923
2381,853,920
2382,853,915
2383,858,916
2384,864,929
2385,869,937
2386,874,933
2387,878,927
2388,889,923
2389,890,933
2390,890,944
2391,885,948
2392,887,937
2393,884,930
2394,888,921
2395,890,933
2396,888,946
2397,884,952
2398,886,947
2399,883,936
2400,883,929
2401,882,937
2402,880,943
2403,875,943
2404,873,933
2405,873,922
2406,873,920
2407,868,926
2408,862,934
2409,857,930
2410,856,922
2411,857,914
2412,857,911
2413,855,923
2414,852,935
2415,846,936
2416,843,925
2417,841,911
2418,842,904
2419,843,915
2420,840,926
2421,840,938
2422,844,933
2423,845,922
2424,846,914
2425,849,917
2426,845,927
2427,840,930
2428,835,925
2429,831,913
2430,827,907
2431,823,911
2432,813,923
2433,804,931
2434,803,929
2435,812,921
2436,827,925
2437,856,942
2438,886,967
2439,924,982
2440,964,986
2441,1003,987
2442,1045,989
2443,1083,1000
2444,1115,1015
2445,1148,1013
2446,1165,999
2447,1179,968
2448,1183,944
2449,1174,929
2450,1161,929
2451,1139,931
2452,1115,936
2453,1079,946
2454,1025,960
2455,962,966
2456,908,956
2457,869,929
2458,851,907
2459,855,901
2460,861,904
2461,866,920
2462,870,929
2463,868,923
2464,864,915
2465,855,906
2466,847,913
2467,837,921
2468,829,929
2469,829,923
2470,830,916
2471,835,914
2472,832,922
2473,831,933
2474,830,935
2475,827,927
2476,828,914
2477,827,910
2478,829,917
2479,831,930
2480,832,939
2481,832,936
2482,836,927
2483,838,925
2484,840,929
2485,840,939
2486,835,945
2487,833,934
2488,831,922
2489,834,920
2490,834,925
2491,833,934
2492,835,946
2493,834,940
2494,840,933
2495,843,929
2496,845,935
2497,844,943
2498,840,944
2499,836,941
2500,835,930
2501,837,927
2502,840,937
2503,840,949
2504,838,954
2505,837,953
2506,839,945
2507,844,940
2508,846,949
2509,846,959
2510,845,964
2511,841,955
2512,844,944
2513,845,941
2514,846,946
2515,844,957
2516,843,964
2517,846,958
2518,850,951
2519,854,952
2520,855,958
2521,852,965
2522,850,965
2523,847,957
2524,854,944
2525,853,943
2526,852,953
2527,854,957
2528,852,958
2529,854,948
2530,854,944
2531,861,948
2532,859,958
2533,858,956
2534,857,949
2535,856,935
2536,859,933
2537,861,939
2538,857,945
2539,859,948
2540,856,945
2541,861,931
2542,864,925
2543,869,930
2544,866,942
2545,862,949
2546,858,942
2547,852,927
2548,856,911
2549,861,908
2550,860,922
2551,852,935
2552,853,942
2553,854,934
2554,856,921
2555,862,922
2556,865,926
2557,859,936
2558,855,938
2559,851,929
2560,852,915
2561,856,906
2562,854,910
2563,855,924
2564,852,933
2565,851,935
2566,854,923
2567,858,915
2568,861,917
2569,859,925
2570,853,933
2571,849,932
2572,847,917
2573,847,911
2574,848,905
2575,848,916
2576,850,929
2577,847,934
2578,847,926
2579,849,918
2580,851,913
2581,850,920
2582,847,928
2583,842,931
2584,839,926
2585,837,913
2586,835,902
2587,836,909
2588,832,921
2589,833,932
2590,834,931
2591,837,921
2592,837,911
2593,838,909
2594,836,917
2595,829,925
2596,825,923
2597,828,913
2598,829,904
2599,832,909
2600,835,920
2601,833,927
2602,835,926
2603,836,920
2604,838,911
2605,843,915
2606,841,926
2607,836,930
2608,837,920
2609,836,910
2610,839,906
2611,840,910
2612,842,923
2613,841,936
2614,837,933
2615,840,922
2616,844,909
2617,849,909
2618,848,916
2619,851,927
2620,847,927
2621,847,913
2622,848,908
2623,849,905
2624,852,916
2625,855,929
2626,858,927
2627,861,922
2628,868,916
2629,873,916
2630,882,926
2631,880,931
2632,877,936
2633,878,925
2634,878,915
2635,885,921
2636,888,932
2637,886,946
2638,884,949
2639,886,941
2640,891,928
2641,890,925
2642,884,930
2643,879,937
2644,870,936
2645,870,932
2646,872,920
2647,873,919
2648,871,930
2649,874,939
2650,869,935
2651,864,926
2652,859,913
2653,855,911
2654,852,917
2655,848,923
2656,842,924
2657,842,916
2658,841,904
2659,843,901
2660,843,914
2661,842,926
2662,836,933
2663,836,924
2664,839,909
2665,841,903
2666,839,908
2667,839,916
2668,836,917
2669,836,908
2670,834,902
2671,835,900
2672,835,910
2673,828,918
2674,821,918
2675,816,912
2676,808,902
2677,805,905
2678,808,917
2679,820,931
2680,840,939
2681,871,939
2682,912,943
2683,954,954
2684,989,975
2685,1027,997
2686,1059,1007
2687,1087,1003
2688,1119,996
2689,1145,985
2690,1164,979
2691,1176,970
2692,1174,957
2693,1169,930
2694,1159,904
2695,1153,900
2696,1137,912
2697,1118,939
2698,1078,964
2699,1023,969
2700,962,950
2701,913,928
2702,878,914
2703,854,910
2704,843,911
2705,851,903
2706,858,898
2707,868,898
2708,871,907
2709,870,923
2710,858,931
2711,843,934
2712,839,920
2713,834,905
2714,833,903
2715,829,912
2716,822,919
2717,820,922
2718,818,916
2719,821,905
2720,823,906
2721,824,918
2722,827,930
2723,826,937
2724,826,929
2725,828,915
2726,830,909
2727,828,918
2728,827,931
2729,826,935
2730,823,925
2731,827,912
2732,828,909
2733,831,918
2734,835,935
2735,830,940
2736,830,936
2737,832,925
2738,835,919
2739,831,925
2740,832,933
2741,827,939
2742,825,928
2743,829,917
2744,832,924
2745,836,931
2746,835,945
2747,837,946
2748,837,939
2749,839,931
2750,843,935
2751,836,941
2752,834,948
2753,832,938
2754,829,932
2755,834,931
2756,837,938
2757,838,951
2758,840,956
2759,840,955
2760,842,944
2761,848,936
2762,850,943
2763,851,951
2764,843,956
2765,841,953
2766,839,938
2767,840,931
2768,846,935
2769,847,945
2770,849,955
2771,847,955
2772,850,945
2773,853,935
2774,855,940
2775,851,946
2776,846,949
2777,846,942
2778,848,936
2779,851,925
2780,852,930
2781,853,945
2782,854,952
2783,856,946
2784,858,933
2785,858,921
2786,861,923
2787,860,928
2788,856,937
2789,852,934
2790,851,920
2791,851,910
2792,856,910
2793,859,920
2794,859,933
2795,858,935
2796,856,924
2797,854,912
2798,856,912
2799,854,916
2800,851,924
2801,848,924
2802,847,914
2803,848,902
2804,851,905
2805,849,915
2806,848,925
2807,846,927
2808,850,913
2809,850,906
2810,853,904
2811,851,915
2812,847,923
2813,844,918
2814,842,908
2815,844,898
2816,848,903
2817,843,916
2818,843,925
2819,841,918
2820,844,910
2821,846,904
2822,842,909
2823,839,914
2824,836,914
2825,833,905
2826,834,896
2827,832,897
2828,836,909
2829,832,920
2830,831,922
2831,827,914
2832,834,902
2833,834,904
2834,833,906
2835,829,917
2836,827,917
2837,824,908
2838,824,896
2839,827,889
2840,827,900
2841,830,914
2842,827,921
2843,826,914
2844,829,904
2845,830,900
2846,832,904
2847,831,913
2848,828,915
2849,824,907
2850,822,898
2851,828,891
2852,829,899
2853,831,911
2854,833,922
2855,831,919
2856,834,908
2857,839,897
2858,840,899
2859,839,911
2860,836,918
2861,833,914
2862,836,901
2863,841,898
2864,845,902
2865,848,914
2866,849,922
2867,851,918
2868,847,907
2869,853,903
2870,856,908
2871,859,916
2872,858,920
2873,859,913
2874,864,903
2875,871,901
2876,876,908
2877,880,924
2878,884,934
2879,884,933
2880,885,923
2881,888,919
2882,889,923
2883,882,932
2884,876,930
2885,870,920
2886,868,913
2887,874,912
2888,875,923
2889,873,928
2890,870,926
2891,874,918
2892,875,918
2893,870,921
2894,862,925
2895,854,921
2896,849,904
2897,848,894
2898,846,897
2899,842,907
2900,839,917
2901,838,917
2902,843,909
2903,843,903
2904,846,905
2905,842,916
2906,840,921
2907,834,917
2908,832,905
2909,834,896
2910,836,897
2911,836,904
2912,832,916
2913,830,914
2914,832,907
2915,835,900
2916,832,902
2917,825,911
2918,815,914
2919,804,913
2920,793,901
2921,795,895
2922,804,902
2923,819,921
2924,845,942
2925,875,960
2926,911,962
2927,956,961
2928,996,969
2929,1035,989
2930,1068,1005
2931,1096,1007
2932,1121,999
2933,1147,977
2934,1167,957
2935,1176,946
2936,1174,937
2937,1166,922
2938,1157,911
2939,1145,907
2940,1131,917
2941,1102,943
2942,1054,966
2943,994,968
2944,934,945
2945,888,913
2946,858,890
2947,849,885
2948,850,897
2949,858,915
2950,865,918
2951,871,914
2952,874,907
2953,867,903
2954,857,910
2955,843,917
2956,832,916
2957,826,905
2958,822,898
2959,822,896
2960,822,907
2961,823,920
2962,820,920
2963,822,912
2964,825,906
2965,827,913
2966,828,921
2967,826,927
2968,826,921
2969,823,906
2970,824,897
2971,823,901
2972,823,914
2973,824,927
2974,822,924
2975,822,916
2976,826,908
2977,830,910
2978,831,921
2979,828,928
2980,824,928
2981,824,918
2982,827,907
2983,827,905
2984,831,917
2985,832,931
2986,829,938
2987,830,930
2988,831,923
2989,833,915
2990,835,920
2991,833,934
2992,829,942
2993,829,934
2994,830,925
2995,832,917
2996,834,921
2997,836,938
2998,834,949
2999,834,952
3000,837,942
3001,843,928
3002,843,931
3003,843,942
3004,840,948
3005,836,949
3006,839,940
3007,839,929
3008,844,934
3009,843,947
3010,842,957
3011,844,956
3012,845,944
3013,848,938
3014,847,936
3015,846,944
3016,842,947
3017,840,942
3018,845,930
3019,844,924
3020,850,928
3021,851,944
3022,850,950
3023,847,948
3024,853,938
3025,856,925
3026,856,922
3027,855,934
3028,853,939
3029,846,934
3030,847,922
3031,849,915
3032,849,916
3033,852,926
3034,852,937
3035,852,937
3036,855,925
3037,854,912
3038,853,917
3039,854,920
3040,848,927
3041,846,924
3042,843,911
3043,846,905
3044,846,909
3045,849,917
3046,847,924
3047,845,924
3048,846,912
3049,851,906
3050,846,908
3051,844,915
3052,844,925
3053,841,920
3054,842,907
3055,842,897
3056,843,897
3057,848,913
3058,845,923
3059,839,929
3060,838,921
3061,839,909
3062,841,900
3063,844,903
3064,841,913
3065,837,913
3066,838,908
3067,836,898
3068,838,899
3069,838,908
3070,838,919
3071,835,927
3072,834,917
3073,833,903
3074,834,896
3075,833,901
3076,829,910
3077,825,913
3078,823,904
3079,824,896
3080,826,892
3081,828,899
3082,826,914
3083,826,918
3084,829,909
3085,827,899
3086,825,896
3087,829,902
3088,824,910
3089,821,911
3090,821,898
3091,824,891
3092,830,895
3093,833,904
3094,833,911
3095,831,915
3096,832,905
3097,834,892
3098,837,892
3099,838,898
3100,831,907
3101,829,910
3102,829,900
3103,830,890
3104,831,890
3105,833,905
3106,834,912
3107,835,913
3108,838,908
3109,840,900
3110,845,900
3111,843,906
3112,841,911
3113,841,905
3114,842,897
3115,843,893
3116,845,901
3117,854,916
3118,858,920
3119,863,915
3120,869,909
3121,876,900
3122,880,908
3123,878,921
3124,876,932
3125,878,926
3126,875,915
3127,879,909
3128,882,910
3129,886,923
3130,885,932
3131,879,938
3132,880,929
3133,880,915
3134,879,909
3135,877,917
3136,872,929
3137,866,928
3138,864,921
3139,866,908
3140,866,898
3141,868,907
3142,865,921
3143,857,930
3144,855,925
3145,851,910
3146,849,892
3147,850,890
3148,847,899
3149,841,912
3150,836,914
3151,834,907
3152,836,895
3153,840,898
3154,841,907
3155,838,915
3156,835,919
3157,836,907
3158,835,897
3159,836,896
3160,836,900
3161,832,908
3162,832,911
3163,824,899
3164,825,891
3165,824,892
3166,823,906
3167,817,916
3168,806,921
3169,795,912
3170,789,897
3171,794,892
3172,810,902
3173,831,924
3174,857,945
3175,891,955
3176,932,958
3177,980,962
3178,1019,977
3179,1057,999
3180,1086,1006
3181,1117,1000
3182,1142,980
3183,1162,958
3184,1170,940
3185,1169,925
3186,1161,915
3187,1145,906
3188,1130,905
3189,1109,924
3190,1072,947
3191,1016,967
3192,957,958
3193,906,930
3194,867,903
3195,850,888
3196,845,888
3197,849,897
3198,857,905
3199,860,902
3200,859,896
3201,854,898
3202,847,911
3203,838,916
3204,830,917
3205,826,906
3206,822,895
3207,823,895
3208,822,901
3209,820,911
3210,814,911
3211,816,901
3212,818,893
3213,820,895
3214,825,909
3215,824,924
3216,824,927
3217,822,918
3218,822,904
3219,824,896
3220,825,901
3221,819,909
3222,816,917
3223,817,914
3224,818,904
3225,824,900
3226,827,907
3227,826,921
3228,825,928
3229,822,926
3230,825,912
3231,826,906
3232,827,909
3233,824,918
3234,822,924
3235,821,921
3236,820,916
3237,823,912
3238,828,919
3239,831,935
3240,831,940
3241,830,936
3242,829,926
3243,831,917
3244,829,918
3245,828,928
3246,828,938
3247,825,934
3248,828,927
3249,830,923
3250,836,929
3251,836,942
3252,837,949
3253,831,945
3254,832,932
3255,836,926
3256,837,933
3257,838,942
3258,834,943
3259,834,938
3260,833,926
3261,838,927
3262,844,934
3263,843,950
3264,843,952
3265,842,944
3266,841,930
3267,842,922
3268,844,926
3269,846,932
3270,843,938
3271,839,934
3272,840,919
3273,846,914
3274,846,921
3275,850,934
3276,851,942
3277,849,940
3278,846,927
3279,847,913
3280,848,904
3281,847,910
3282,847,917
3283,845,921
3284,842,917
3285,843,904
3286,846,902
3287,848,904
3288,847,916
3289,845,925
3290,842,918
3291,842,902
3292,842,891
3293,839,890
3294,840,899
3295,839,909
3296,832,912
3297,836,904
3298,840,891
3299,844,892
3300,846,902
3301,839,913
3302,839,916
3303,837,905
3304,836,892
3305,838,885
3306,839,891
3307,836,904
3308,833,909
3309,831,906
3310,835,898
3311,841,892
3312,840,901
3313,841,912
3314,836,917
3315,834,910
3316,832,896
3317,832,885
3318,834,885
3319,829,897
3320,824,911
3321,820,914
3322,825,900
3323,829,895
3324,833,891
3325,833,899
3326,827,912
3327,823,908
3328,822,895
3329,820,886
3330,822,882
3331,819,896
3332,819,903
3333,819,905
3334,817,897
3335,823,891
3336,826,895
3337,824,903
3338,822,907
3339,821,906
3340,818,894
3341,820,882
3342,823,885
3343,824,899
3344,822,907
3345,819,910
3346,821,902
3347,826,893
3348,831,888
3349,831,896
3350,831,911
3351,823,915
3352,824,907
3353,824,894
3354,826,884
3355,823,886
3356,828,899
3357,826,907
3358,826,904
3359,832,900
3360,838,895
3361,841,902
3362,840,908
3363,834,913
3364,837,903
3365,838,889
3366,839,881
3367,842,884
3368,844,900
3369,846,915
3370,851,915
3371,859,907
3372,866,898
3373,869,900
3374,873,908
3375,873,917
3376,874,918
3377,873,907
3378,874,902
3379,874,909
3380,871,919
3381,870,926
3382,872,922
3383,874,911
3384,873,904
3385,872,908
3386,868,919
3387,865,927
3388,862,922
3389,857,906
3390,859,896
3391,860,894
3392,859,905
3393,854,915
3394,848,915
3395,846,902
3396,844,895
3397,845,891
3398,838,903
3399,835,907
3400,828,904
3401,828,895
3402,826,886
3403,828,890
3404,828,901
3405,823,909
3406,825,904
3407,827,892
3408,832,893
3409,838,895
3410,833,908
3411,829,908
3412,825,902
3413,825,885
3414,824,879
3415,822,884
3416,811,898
3417,804,909
3418,794,906
3419,789,897
3420,787,886
3421,791,887
3422,802,901
3423,816,920
3424,839,937
3425,868,937
3426,909,936
3427,948,943
3428,987,960
3429,1023,980
3430,1053,996
3431,1086,991
3432,1120,981
3433,1143,963
3434,1161,952
3435,1163,942
3436,1163,925
3437,1155,906
3438,1141,892
3439,1130,890
3440,1113,905
3441,1082,934
3442,1036,955
3443,976,954
3444,921,932
3445,879,907
3446,853,888
3447,841,885
3448,841,889
3449,843,889
3450,851,883
3451,856,884
3452,855,891
3453,846,902
3454,836,909
3455,825,905
3456,820,894
3457,817,887
3458,817,890
3459,815,905
3460,811,907
3461,807,898
3462,807,889
3463,810,878
3464,811,885
3465,814,898
3466,813,911
3467,812,909
3468,818,900
3469,819,897
3470,819,903
3471,817,910
3472,812,909
3473,810,896
3474,813,890
3475,813,890
3476,813,902
3477,813,912
3478,814,912
3479,816,905
3480,820,899
3481,820,904
3482,822,914
3483,820,915
3484,818,911
3485,819,900
3486,819,897
3487,819,904
3488,818,916
3489,819,925
3490,822,922
3491,824,918
3492,829,912
3493,830,917
3494,827,928
3495,823,933
3496,819,924
3497,823,914
3498,822,909
3499,825,913
3500,825,927
3501,824,937
3502,827,932
3503,831,923
3504,833,920
3505,834,922
3506,834,937
3507,832,942
3508,830,934
3509,828,921
3510,830,913
3511,830,915
3512,829,924
3513,830,939
3514,832,939
3515,834,934
3516,837,922
3517,843,917
3518,843,922
3519,842,932
3520,837,931
3521,837,921
3522,832,911
3523,836,908
3524,838,914
3525,839,927
3526,840,931
3527,838,923
3528,846,911
3529,848,904
3530,848,908
3531,845,920
3532,842,918
3533,841,910
3534,836,897
3535,837,887
3536,840,891
3537,843,905
3538,840,915
3539,838,917
3540,839,910
3541,841,892
3542,840,892
3543,840,900
3544,837,909
3545,834,905
3546,827,894
3547,831,883
3548,836,885
3549,836,896
3550,838,907
3551,836,910
3552,839,900
3553,839,890
3554,840,889
3555,839,895
3556,836,902
3557,833,898
3558,831,889
3559,835,885
3560,834,885
3561,833,901
3562,831,907
3563,829,905
3564,829,898
3565,833,886
3566,835,885
3567,835,897
3568,827,902
3569,823,903
3570,820,895
3571,822,878
3572,821,879
3573,824,887
3574,822,901
3575,819,906
3576,819,894
3577,820,883
3578,820,878
3579,819,884
3580,815,890
3581,812,891
3582,809,884
3583,813,871
3584,817,871
3585,817,884
3586,816,900
3587,815,902
3588,816,897
3589,819,885
3590,820,878
3591,820,883
3592,818,894
3593,815,898
3594,812,893
3595,815,881
3596,817,879
3597,823,887
3598,824,899
3599,822,906
3600,825,899
3601,827,887
3602,827,883
3603,826,890
3604,824,897
3605,820,899
3606,817,891
3607,818,880
3608,822,874
3609,831,881
3610,832,899
3611,830,906
3612,834,904
3613,838,890
3614,842,879
3615,844,887
3616,841,894
3617,841,902
3618,841,898
3619,846,885
3620,853,883
3621,860,890
3622,864,904
3623,868,908
3624,868,906
3625,869,898
3626,877,899
3627,878,909
3628,874,919
3629,871,916
3630,867,903
3631,866,895
3632,866,893
3633,866,907
3634,862,917
3635,861,922
3636,860,913
3637,862,899
3638,865,894
3639,864,899
3640,859,909
3641,851,911
3642,846,902
3643,843,886
3644,840,877
3645,839,882
3646,835,895
3647,833,902
3648,833,903
3649,829,894
3650,832,883
3651,829,888
3652,824,894
3653,822,897
3654,819,899
3655,817,885
3656,818,875
3657,822,880
3658,826,890
3659,826,905
3660,823,910
3661,823,898
3662,826,882
3663,826,876
3664,823,886
3665,816,896
3666,809,898
3667,799,892
3668,793,881
3669,790,876
3670,787,884
3671,787,902
3672,794,912
3673,807,917
3674,835,917
3675,869,919
3676,906,929
3677,945,951
3678,978,970
3679,1009,975
3680,1041,975
3681,1068,965
3682,1105,965
3683,1131,970
3684,1147,972
3685,1157,956
3686,1159,928
3687,1158,895
3688,1146,880
3689,1132,883
3690,1117,909
3691,1087,931
3692,1045,940
3693,989,931
3694,935,919
3695,888,909
3696,854,902
3697,836,891
3698,836,879
3699,846,873
3700,852,876
3701,858,893
3702,854,901
3703,844,902
3704,834,895
3705,825,881
3706,823,876
3707,821,887
3708,817,901
3709,811,907
3710,811,899
3711,810,889
3712,809,875
3713,811,877
3714,809,887
3715,808,900
3716,807,905
3717,804,894
3718,814,885
3719,815,883
3720,820,893
3721,819,906
3722,817,913
3723,813,904
3724,809,889
3725,808,880
3726,813,884
3727,812,896
3728,810,907
3729,809,906
3730,812,900
3731,816,891
3732,820,896
3733,817,908
3734,818,916
3735,814,915
3736,812,908
3737,811,895
3738,816,891
3739,818,903
3740,816,915
3741,815,926
3742,818,922
3743,815,912
3744,822,908
3745,826,909
3746,827,923
3747,823,932
3748,819,930
3749,817,917
3750,817,904
3751,818,904
3752,821,917
3753,822,932
3754,821,939
3755,822,937
3756,829,926
3757,829,916
3758,833,917
3759,830,930
3760,828,938
3761,827,937
3762,828,927
3763,832,918
3764,831,922
3765,833,929
3766,828,937
3767,831,933
3768,835,924
3769,838,922
3770,840,927
3771,836,934
3772,833,931
3773,833,920
3774,834,910
3775,836,911
3776,838,917
3777,839,931
3778,839,929
3779,840,918
3780,845,909
3781,847,913
3782,842,918
3783,842,922
3784,840,917
3785,834,903
3786,839,893
3787,838,895
3788,842,904
3789,838,917
3790,835,915
3791,838,903
3792,842,897
3793,844,895
3794,843,906
3795,837,911
3796,837,909
3797,833,897
3798,829,884
3799,833,885
3800,833,894
3801,832,907
3802,831,910
3803,831,900
3804,836,892
3805,841,890
3806,839,900
3807,836,906
3808,832,908
3809,829,897
3810,828,885
3811,832,883
3812,833,885
3813,830,902
3814,829,909
3815,828,904
3816,832,893
3817,835,887
3818,834,891
3819,834,903
3820,828,906
3821,826,899
3822,824,884
3823,822,876
3824,821,885
3825,821,897
3826,819,903
3827,818,898
3828,819,887
3829,821,884
3830,821,887
3831,822,898
3832,816,900
3833,812,894
3834,812,884
3835,813,876
3836,817,884
3837,813,893
3838,813,901
3839,812,897
3840,815,890
3841,819,886
3842,819,892
3843,817,897
3844,813,896
3845,813,884
3846,815,880
3847,815,886
3848,815,891
3849,817,893
3850,816,889
3851,823,883
3852,824,889
3853,824,897
3854,825,903
3855,820,900
3856,822,883
3857,824,876
3858,827,875
3859,827,886
3860,826,898
3861,825,899
3862,824,892
3863,830,884
3864,836,885
3865,839,892
3866,835,902
3867,835,904
3868,836,897
3869,837,884
3870,845,880
3871,850,890
3872,851,901
3873,855,901
3874,858,901
3875,866,894
3876,870,897
3877,874,910
3878,874,922
3879,870,922
3880,868,911
3881,867,896
3882,868,893
3883,867,899
3884,864,912
3885,861,917
3886,859,911
3887,861,903
3888,864,900
3889,866,903
3890,862,914
3891,859,915
3892,848,901
3893,846,890
3894,845,879
3895,842,883
3896,834,891
3897,831,899
3898,829,890
3899,831,881
3900,831,877
3901,833,883
3902,831,896
3903,827,907
3904,823,907
3905,822,894
3906,820,881
3907,821,879
3908,820,887
3909,821,900
3910,818,904
3911,822,899
3912,825,888
3913,826,888
3914,826,895
3915,821,899
3916,814,895
3917,805,881
3918,799,877
3919,792,880
3920,782,896
3921,782,899
3922,794,900
3923,815,907
3924,851,919
3925,891,941
3926,931,963
3927,968,973
3928,1008,968
3929,1044,964
3930,1078,964
3931,1106,973
3932,1128,980
3933,1144,969
3934,1155,943
3935,1163,911
3936,1162,896
3937,1152,896
3938,1138,911
3939,1115,925
3940,1081,928
3941,1032,928
3942,975,923
3943,918,918
3944,870,907
3945,839,892
3946,831,878
3947,833,870
3948,846,878
3949,855,895
3950,855,906
3951,852,909
3952,836,897
3953,829,883
3954,821,885
3955,815,891
3956,804,897
3957,803,899
3958,803,890
3959,807,884
3960,813,891
3961,811,904
3962,810,909
3963,805,903
3964,806,895
3965,808,887
3966,809,894
3967,808,902
3968,806,910
3969,804,904
3970,808,898
3971,813,894
3972,812,902
3973,813,914
3974,809,920
3975,807,916
3976,807,899
3977,809,895
3978,811,896
3979,808,908
3980,806,912
3981,805,912
3982,809,903
3983,812,901
3984,817,909
3985,818,924
3986,815,927
3987,815,919
3988,815,909
3989,817,906
3990,818,917
3991,820,924
3992,810,923
3993,814,912
3994,817,914
3995,821,919
3996,822,932
3997,820,939
3998,818,936
3999,821,926
4000,820,914
4001,824,915
4002,825,926
4003,823,937
4004,818,938
4005,820,931
4006,823,921
4007,832,918
4008,830,930
4009,833,942
4010,830,942
4011,828,933
4012,827,919
4013,827,913
4014,830,914
4015,831,926
4016,825,937
4017,826,934
4018,829,924
4019,834,917
4020,835,916
4021,836,926
4022,834,934
4023,833,933
4024,831,921
4025,834,906
4026,835,901
4027,836,910
4028,837,918
4029,831,921
4030,831,915
4031,836,906
4032,841,902
4033,842,909
4034,840,917
4035,831,920
4036,832,908
4037,830,894
4038,833,888
4039,835,895
4040,832,906
4041,831,912
4042,827,903
4043,829,893
4044,834,893
4045,838,899
4046,836,910
4047,833,912
4048,831,905
4049,830,890
4050,833,880
4051,835,892
4052,832,901
4053,830,907
4054,828,903
4055,829,891
4056,834,889
4057,836,898
4058,833,904
4059,828,906
4060,826,898
4061,825,886
4062,824,885
4063,826,891
4064,825,897
4065,821,899
4066,820,894
4067,823,890
4068,825,895
4069,826,904
4070,819,902
4071,817,895
4072,821,882
4073,818,884
4074,815,888
4075,813,898
4076,809,898
4077,807,888
4078,808,882
4079,812,886
4080,816,896
4081,816,903
4082,812,903
4083,813,896
4084,809,881
4085,812,875
4086,812,884
4087,813,889
4088,811,894
4089,808,892
4090,812,882
4091,815,882
4092,823,892
4093,824,903
4094,819,904
4095,820,894
4096,818,882
4097,816,879
4098,816,884
4099,818,900
4100,815,902
4101,817,896
4102,821,887
4103,826,882
4104,829,890
4105,829,902
4106,828,909
4107,825,904
4108,824,892
4109,824,884
4110,828,884
4111,828,893
4112,827,902
4113,826,899
4114,832,892
4115,835,890
4116,839,894
4117,846,906
4118,847,907
4119,848,903
4120,855,892
4121,858,883
4122,863,885
4123,861,899
4124,862,914
4125,863,914
4126,866,909
4127,871,905
4128,873,909
4129,874,918
4130,871,923
4131,864,916
4132,861,900
4133,858,893
4134,856,900
4135,855,909
4136,850,911
4137,850,904
4138,854,898
4139,855,897
4140,854,904
4141,849,912
4142,841,907
4143,836,895
4144,833,880
4145,831,881
4146,828,889
4147,826,898
4148,821,903
4149,821,892
4150,821,884
4151,822,882
4152,823,894
4153,821,904
4154,817,908
4155,815,900
4156,814,887
4157,815,878
4158,817,883
4159,815,891
4160,811,899
4161,809,890
4162,811,883
4163,812,884
4164,808,892
4165,801,900
4166,790,900
4167,778,893
4168,776,881
4169,780,879
4170,792,898
4171,817,920
4172,843,939
4173,881,944
4174,923,943
4175,961,950
4176,997,967
4177,1035,984
4178,1062,995
4179,1092,987
4180,1119,964
4181,1141,943
4182,1152,928
4183,1156,914
4184,1147,901
4185,1135,892
4186,1124,890
4187,1103,907
4188,1067,934
4189,1017,951
4190,956,948
4191,898,924
4192,859,890
4193,839,873
4194,833,872
4195,834,881
4196,838,892
4197,843,892
4198,850,887
4199,848,891
4200,838,898
4201,827,906
4202,813,902
4203,807,892
4204,804,881
4205,804,877
4206,802,886
4207,801,893
4208,797,894
4209,800,889
4210,806,890
4211,807,899
4212,808,910
4213,811,916
4214,808,911
4215,808,892
4216,809,891
4217,810,893
4218,804,906
4219,803,906
4220,801,901
4221,803,892
4222,807,890
4223,813,902
4224,811,915
4225,811,924
4226,809,917
4227,807,905
4228,810,897
4229,813,902
4230,813,911
4231,810,920
4232,807,917
4233,810,907
4234,811,903
4235,813,909
4236,814,920
4237,814,931
4238,812,932
4239,810,919
4240,814,907
4241,815,911
4242,812,921
4243,812,933
4244,810,933
4245,809,926
4246,817,920
4247,821,919
4248,827,936
4249,825,943
4250,820,944
4251,820,936
4252,819,923
4253,821,920
4254,826,928
4255,826,938
4256,824,942
4257,823,937
4258,826,928
4259,830,922
4260,833,931
4261,834,939
4262,832,945
4263,832,933
4264,829,916
4265,829,911
4266,831,914
4267,830,928
4268,828,932
4269,828,931
4270,833,918
4271,836,912
4272,842,919
4273,844,928
4274,842,938
4275,838,930
4276,837,914
4277,838,905
4278,837,902
4279,837,912
4280,833,920
4281,832,917
4282,836,906
4283,839,901
4284,840,909
4285,843,919
4286,838,921
4287,837,915
4288,835,900
4289,837,895
4290,837,897
4291,837,905
4292,833,911
4293,832,904
4294,834,892
4295,836,887
4296,839,896
4297,838,908
4298,838,914
4299,831,914
4300,834,900
4301,832,885
4302,836,882
4303,835,895
4304,830,905
4305,833,907
4306,830,895
4307,833,890
4308,835,894
4309,834,904
4310,833,909
4311,830,906
4312,829,895
4313,828,887
4314,830,892
4315,825,899
4316,820,906
4317,819,908
4318,822,898
4319,826,892
4320,827,898
4321,831,909
4322,825,914
4323,819,912
4324,818,897
4325,817,887
4326,817,890
4327,817,899
4328,810,904
4329,809,903
4330,810,895
4331,815,892
4332,818,901
4333,818,907
4334,817,909
4335,817,901
4336,819,890
4337,816,888
4338,818,895
4339,817,904
4340,815,908
4341,817,900
4342,819,891
4343,823,891
4344,827,903
4345,826,912
4346,825,913
4347,823,903
4348,824,893
4349,828,895
4350,827,903
4351,822,906
4352,823,904
4353,829,897
4354,835,899
4355,839,903
4356,839,914
4357,840,911
4358,842,905
4359,841,900
4360,843,898
4361,845,910
4362,847,909
4363,848,902
4364,852,896
4365,856,895
4366,864,909
4367,869,918
4368,872,925
4369,871,922
4370,877,912
4371,876,913
4372,879,917
4373,879,925
4374,869,925
4375,868,915
4376,867,905
4377,869,908
4378,868,916
4379,867,925
4380,865,931
4381,868,923
4382,867,914
4383,868,912
4384,865,915
4385,858,920
4386,849,919
4387,843,906
4388,835,892
4389,839,886
4390,837,897
4391,836,912
4392,832,918
4393,831,915
4394,834,904
4395,836,901
4396,835,904
4397,832,910
4398,825,915
4399,823,908
4400,821,898
4401,825,896
4402,824,906
4403,828,910
4404,827,916
4405,826,911
4406,828,902
4407,827,899
4408,822,907
4409,814,913
4410,803,911
4411,791,897
4412,782,886
4413,784,889
4414,792,906
4415,807,927
4416,825,945
4417,857,951
4418,899,956
4419,941,963
4420,981,980
4421,1015,997
4422,1051,1001
4423,1086,992
4424,1118,978
4425,1145,973
4426,1166,963
4427,1175,946
4428,1176,922
4429,1171,906
4430,1161,904
4431,1139,926
4432,1102,950
4433,1047,963
4434,983,951
4435,925,928
4436,881,909
4437,852,907
4438,841,908
4439,846,908
4440,857,907
4441,869,903
4442,869,907
4443,867,916
4444,856,923
4445,838,921
4446,827,909
4447,818,899
4448,816,900
4449,815,910
4450,814,924
4451,814,926
4452,813,921
4453,816,911
4454,819,909
4455,819,918
4456,817,924
4457,816,926
4458,818,918
4459,817,909
4460,819,907
4461,822,915
4462,818,930
4463,820,935
4464,819,931
4465,818,922
4466,824,914
4467,824,922
4468,823,932
4469,820,934
4470,813,925
4471,816,914
4472,818,911
4473,823,918
4474,823,932
4475,824,942
4476,820,942
4477,824,931
4478,827,923
4479,831,929
4480,826,937
4481,821,944
4482,820,937
4483,822,929
4484,825,924
4485,828,924
4486,828,942
4487,826,952
4488,825,956
4489,826,946
4490,831,937
4491,835,934
4492,835,941
4493,832,951
4494,827,950
4495,829,944
4496,829,934
4497,835,935
4498,833,942
4499,835,956
4500,835,959
4501,839,951
4502,840,946
4503,844,944
4504,842,950
4505,837,955
4506,836,948
4507,833,939
4508,838,933
4509,841,932
4510,843,946
4511,843,952
4512,839,955
4513,842,942
4514,845,931
4515,851,928
4516,853,936
4517,848,942
4518,844,947
4519,840,931
4520,839,920
4521,845,914
4522,847,925
4523,851,937
4524,850,944
4525,849,937
4526,852,924
4527,850,919
4528,853,918
4529,850,926
4530,847,930
4531,846,923
4532,842,909
4533,843,908
4534,845,916
4535,846,928
4536,846,933
4537,845,931
4538,847,915
4539,847,907
4540,850,909
4541,849,918
4542,846,925
4543,840,922
4544,841,910
4545,845,909
4546,845,910
4547,848,924
4548,848,926
4549,846,926
4550,848,913
4551,848,907
4552,844,912
4553,842,918
4554,837,920
4555,834,914
4556,835,901
4557,836,900
4558,836,907
4559,837,917
4560,836,929
4561,833,929
4562,832,916
4563,831,901
4564,835,898
4565,836,905
4566,831,917
4567,823,917
4568,822,909
4569,824,899
4570,825,896
4571,825,904
4572,829,918
4573,825,920
4574,822,917
4575,820,906
4576,821,898
4577,822,904
4578,817,909
4579,819,914
4580,819,907
4581,819,893
4582,823,894
4583,826,900
4584,828,918
4585,827,922
4586,827,911
4587,827,898
4588,827,888
4589,830,891
4590,830,903
4591,828,916
4592,823,913
4593,824,902
4594,825,894
4595,832,893
4596,832,901
4597,836,917
4598,835,921
4599,831,911
4600,833,902
4601,834,896
4602,834,903
4603,835,911
4604,835,916
4605,834,913
4606,834,899
4607,842,894
4608,848,901
4609,845,915
4610,846,926
4611,846,923
4612,848,907
4613,852,895
4614,857,893
4615,862,903
4616,864,915
4617,863,925
4618,865,922
4619,871,911
4620,875,909
4621,881,916
4622,883,928
4623,882,934
4624,877,930
4625,877,918
4626,875,905
4627,874,909
4628,873,920
4629,870,928
4630,866,930
4631,868,922
4632,868,910
4633,867,908
4634,867,915
4635,866,932
4636,864,933
4637,856,926
4638,854,904
4639,849,891
4640,845,888
4641,844,899
4642,838,907
4643,837,909
4644,834,903
4645,837,900
4646,838,898
4647,836,911
4648,834,915
4649,829,910
4650,827,899
4651,829,889
4652,827,894
4653,826,904
4654,824,910
4655,825,907
4656,823,899
4657,829,894
4658,830,898
4659,829,910
4660,823,914
4661,819,908
4662,811,895
4663,803,882
4664,801,877
4665,795,887
4666,787,903
4667,782,912
4668,790,911
4669,809,909
4670,834,915
4671,866,930
4672,906,949
4673,944,967
4674,976,971
4675,1012,972
4676,1049,970
4677,1084,979
4678,1117,989
4679,1141,985
4680,1158,962
4681,1167,929
4682,1170,903
4683,1166,893
4684,1152,902
4685,1130,918
4686,1110,928
4687,1077,933
4688,1033,929
4689,978,930
4690,926,929
4691,881,924
4692,853,912
4693,841,892
4694,844,880
4695,853,880
4696,860,892
4697,863,909
4698,855,911
4699,844,904
4700,834,890
4701,827,886
4702,827,889
4703,823,907
4704,817,916
4705,814,913
4706,817,899
4707,819,888
4708,820,889
4709,818,897
4710,813,907
4711,810,913
4712,811,903
4713,813,894
4714,817,889
4715,821,901
4716,821,912
4717,821,922
4718,816,914
4719,819,904
4720,818,896
4721,821,900
4722,821,909
4723,815,914
4724,815,905
4725,814,897
4726,815,898
4727,817,910
4728,820,921
4729,819,927
4730,819,916
4731,825,905
4732,823,903
4733,822,914
4734,818,923
4735,816,923
4736,813,916
4737,814,907
4738,820,904
4739,823,913
4740,823,929
4741,820,940
4742,823,931
4743,822,921
4744,826,909
4745,826,914
4746,827,922
4747,825,934
4748,821,929
4749,824,921
4750,826,917
4751,828,924
4752,831,936
4753,827,943
4754,828,938
4755,828,929
4756,836,917
4757,837,920
4758,831,930
4759,831,938
4760,829,938
4761,832,923
4762,836,914
4763,838,913
4764,843,921
4765,841,939
4766,841,944
4767,835,936
4768,838,918
4769,840,909
4770,843,911
4771,840,921
4772,840,927
4773,839,927
4774,840,914
4775,844,905
4776,847,906
4777,850,920
4778,849,929
4779,842,924
4780,840,911
4781,843,896
4782,846,893
4783,845,900
4784,842,911
4785,839,911
4786,838,905
4787,842,896
4788,844,897
4789,847,905
4790,845,914
4791,841,915
4792,838,904
4793,839,888
4794,839,888
4795,838,897
4796,834,904
4797,835,900
4798,834,894
4799,839,892
4800,840,899
4801,838,911
4802,840,909
4803,839,901
4804,838,889
4805,837,886
4806,832,898
4807,830,903
4808,826,901
4809,827,889
4810,830,884
4811,833,886
4812,834,900
4813,833,913
4814,830,911
4815,823,898
4816,827,885
4817,827,877
4818,829,888
4819,824,897
4820,819,900
4821,817,889
4822,819,882
4823,820,882
4824,819,891
4825,817,901
4826,817,905
4827,817,892
4828,815,884
4829,817,879
4830,817,886
4831,813,894
4832,810,894
4833,809,886
4834,813,874
4835,813,876
4836,818,884
4837,818,900
4838,818,902
4839,813,895
4840,817,881
4841,817,873
4842,816,872
4843,816,886
4844,813,889
4845,811,888
4846,813,880
4847,819,874
4848,826,883
4849,823,894
4850,824,899
4851,822,895
4852,821,886
4853,822,873
4854,819,872
4855,821,882
4856,820,894
4857,818,899
4858,820,897
4859,825,885
4860,832,876
4861,836,885
4862,837,896
4863,833,902
4864,830,901
4865,831,884
4866,836,877
4867,838,880
4868,843,889
4869,844,893
4870,847,888
4871,857,887
4872,862,888
4873,868,902
4874,868,908
4875,868,911
4876,868,898
4877,870,894
4878,869,899
4879,869,910
4880,864,909
4881,861,902
4882,861,894
4883,865,889
4884,867,899
4885,863,914
4886,862,921
4887,855,913
4888,854,901
4889,857,889
4890,852,888
4891,845,894
4892,839,896
4893,834,892
4894,830,878
4895,835,878
4896,832,884
4897,828,898
4898,829,902
4899,823,890
4900,826,882
4901,823,876
4902,821,888
4903,820,896
4904,816,897
4905,816,889
4906,819,877
4907,822,877
4908,825,884
4909,821,897
4910,823,905
4911,820,896
4912,819,883
4913,818,877
4914,813,883
4915,805,888
4916,788,893
4917,779,883
4918,778,878
4919,781,883
4920,795,902
4921,816,923
4922,844,935
4923,882,936
4924,922,934
4925,959,937
4926,995,952
4927,1027,974
4928,1059,981
4929,1087,975
4930,1119,960
4931,1145,947
4932,1159,934
4933,1165,924
4934,1162,907
4935,1151,892
4936,1139,887
4937,1115,905
4938,1075,924
4939,1019,932
4940,949,922
4941,892,900
4942,851,887
4943,830,884
4944,825,889
4945,832,887
4946,839,882
4947,847,878
4948,844,886
4949,833,894
4950,825,894
4951,813,884
4952,807,871
4953,805,871
4954,804,885
4955,801,899
4956,803,904
4957,804,900
4958,805,888
4959,807,886
4960,811,891
4961,809,899
4962,804,903
4963,804,894
4964,803,886
4965,806,878
4966,808,888
4967,810,902
4968,806,908
4969,807,904
4970,810,893
4971,811,889
4972,810,897
4973,807,908
4974,805,907
4975,804,901
4976,805,890
4977,809,887
4978,814,892
4979,809,907
4980,807,917
4981,810,918
4982,811,907
4983,815,898
4984,815,896
4985,817,904
4986,814,915
4987,810,915
4988,809,903
4989,807,896
4990,811,896
4991,816,909
4992,816,927
4993,813,933
4994,815,924
4995,815,910
4996,818,900
4997,819,908
4998,820,919
4999,814,927
5000,813,926
5001,814,915
5002,818,904
5003,824,909
5004,828,918
5005,828,934
5006,826,940
5007,826,929
5008,827,915
5009,829,907
5010,831,911
5011,829,924
5012,825,926
5013,821,922
5014,827,910
5015,831,907
5016,835,918
5017,835,924
5018,835,922
5019,836,913
5020,837,906
5021,838,906
5022,834,911
5023,832,914
5024,833,906
5025,830,897
5026,836,890
5027,838,898
5028,838,912
5029,836,917
5030,838,911
5031,835,894
5032,835,887
5033,836,889
5034,837,897
5035,831,901
5036,827,897
5037,827,887
5038,830,879
5039,834,882
5040,837,893
5041,836,904
5042,832,903
5043,832,889
5044,834,881
5045,833,884
5046,828,891
5047,824,896
5048,823,892
5049,826,879
5050,828,874
5051,831,879
5052,832,890
5053,832,901
5054,829,896
5055,832,883
5056,832,872
5057,833,877
5058,831,884
5059,827,892
5060,824,891
5061,822,882
5062,820,874
5063,823,873
5064,826,883
5065,824,900
5066,821,896
5067,821,886
5068,822,874
5069,823,872
5070,819,881
5071,813,889
5072,809,888
5073,807,878
5074,810,870
5075,816,870
5076,816,880
5077,817,894
5078,814,897
5079,812,887
5080,810,876
5081,811,867
5082,813,875
5083,812,885
5084,807,885
5085,807,881
5086,807,876
5087,813,874
5088,815,886
5089,816,892
5090,814,893
5091,814,883
5092,812,878
5093,813,877
5094,812,885
5095,813,886
5096,810,880
5097,812,872
5098,813,868
5099,821,877
5100,821,886
5101,819,897
5102,822,892
5103,819,877
5104,821,869
5105,826,871
5106,822,882
5107,821,887
5108,820,884
5109,822,873
5110,827,867
5111,832,873
5112,832,884
5113,833,894
5114,836,890
5115,840,884
5116,841,877
5117,843,879
5118,846,884
5119,849,890
5120,853,883
5121,860,876
5122,864,878
5123,870,891
5124,867,904
5125,866,916
5126,868,906
5127,867,892
5128,871,885
5129,871,886
5130,869,897
5131,863,902
5132,858,901
5133,854,891
5134,855,884
5135,858,887
5136,858,898
5137,855,909
5138,856,908
5139,854,895
5140,849,878
5141,845,875
5142,841,878
5143,834,887
5144,826,891
5145,822,882
5146,821,869
5147,826,868
5148,832,875
5149,830,891
5150,827,898
5151,822,897
5152,821,884
5153,820,874
5154,821,873
5155,818,879
5156,814,887
5157,813,886
5158,816,880
5159,820,876
5160,822,881
5161,822,892
5162,818,894
5163,818,887
5164,811,876
5165,804,874
5166,792,878
5167,780,884
5168,774,886
5169,778,881
5170,796,883
5171,828,901
5172,861,926
5173,900,945
5174,942,952
5175,978,951
5176,1015,948
5177,1049,952
5178,1079,965
5179,1106,968
5180,1126,959
5181,1139,936
5182,1153,910
5183,1161,889
5184,1161,888
5185,1155,891
5186,1138,901
5187,1119,908
5188,1090,910
5189,1044,914
5190,983,920
5191,920,912
5192,870,897
5193,837,875
5194,826,859
5195,831,857
5196,842,868
5197,851,887
5198,853,897
5199,847,889
5200,841,879
5201,834,869
5202,824,871
5203,818,877
5204,808,887
5205,802,885
5206,800,875
5207,805,871
5208,811,875
5209,809,885
5210,809,898
5211,804,896
5212,804,887
5213,802,873
5214,803,870
5215,804,877
5216,805,889
5217,800,899
5218,805,893
5219,804,888
5220,812,880
5221,814,883
5222,816,894
5223,809,901
5224,808,897
5225,808,889
5226,809,881
5227,810,883
5228,806,894
5229,802,898
5230,803,896
5231,806,889
5232,812,889
5233,813,901
5234,816,910
5235,812,913
5236,813,904
5237,811,893
5238,811,898
5239,810,904
5240,809,908
5241,810,903
5242,810,899
5243,817,901
5244,818,909
5245,818,920
5246,819,922
5247,819,913
5248,822,904
5249,823,902
5250,825,911
5251,820,921
5252,820,919
5253,817,911
5254,820,899
5255,827,901
5256,830,910
5257,830,920
5258,828,921
5259,827,917
5260,830,908
5261,832,901
5262,830,909
5263,828,911
5264,829,908
5265,829,903
5266,831,902
5267,835,909
5268,834,915
5269,834,915
5270,834,908
5271,836,896
5272,839,895
5273,841,902
5274,837,909
5275,832,906
5276,830,898
5277,833,883
5278,834,882
5279,836,891
5280,838,902
5281,836,906
5282,837,898
5283,837,885
5284,838,883
5285,836,885
5286,833,891
5287,831,892
5288,830,886
5289,831,873
5290,832,876
5291,836,885
5292,834,893
5293,835,896
5294,832,889
5295,835,879
5296,837,872
5297,838,881
5298,833,890
5299,829,890
5300,828,882
5301,829,871
5302,831,870
5303,833,881
5304,831,891
5305,830,888
5306,832,880
5307,832,878
5308,830,881
5309,827,886
5310,824,884
5311,824,876
5312,825,871
5313,823,872
5314,821,884
5315,819,887
5316,818,882
5317,822,874
5318,822,876
5319,821,882
5320,819,889
5321,815,883
5322,812,877
5323,811,866
5324,812,862
5325,813,873
5326,811,879
5327,808,883
5328,809,878
5329,810,872
5330,814,872
5331,814,881
5332,813,889
5333,810,881
5334,809,870
5335,812,864
5336,814,867
5337,812,875
5338,811,881
5339,812,880
5340,817,872
5341,820,872
5342,823,875
5343,824,885
5344,823,894
5345,818,882
5346,816,874
5347,820,863
5348,820,866
5349,821,879
5350,821,886
5351,821,882
5352,824,874
5353,829,872
5354,835,879
5355,833,887
5356,830,888
5357,827,880
5358,833,869
5359,833,866
5360,835,873
5361,836,882
5362,834,887
5363,839,880
5364,844,877
5365,859,874
5366,863,885
5367,865,896
5368,867,898
5369,867,890
5370,868,884
5371,868,888
5372,871,895
5373,865,902
5374,863,899
5375,867,886
5376,870,887
5377,870,893
5378,866,902
5379,866,900
5380,860,893
5381,858,885
5382,856,886
5383,856,893
5384,849,890
5385,841,881
5386,840,872
5387,837,874
5388,834,882
5389,831,888
5390,830,885
5391,829,876
5392,826,869
5393,824,874
5394,824,885
5395,821,887
5396,819,879
5397,817,868
5398,817,862
5399,823,870
5400,822,884
5401,825,887
5402,826,884
5403,827,877
5404,826,873
5405,825,875
5406,821,882
5407,813,882
5408,802,871
5409,794,866
5410,784,865
5411,785,874
5412,788,893
5413,797,899
5414,823,902
5415,854,905
5416,894,919
5417,932,936
5418,971,952
5419,1008,955
5420,1041,950
5421,1075,945
5422,1110,947
5423,1136,950
5424,1156,941
5425,1164,922
5426,1171,890
5427,1168,874
5428,1157,876
5429,1141,895
5430,1109,913
5431,1068,919
5432,1009,917
5433,951,905
5434,899,895
5435,861,889
5436,839,881
5437,833,877
5438,843,867
5439,854,864
5440,862,875
5441,858,886
5442,850,895
5443,837,886
5444,827,873
5445,819,866
5446,814,872
5447,810,884
5448,806,887
5449,808,888
5450,813,881
5451,812,880
5452,810,891
5453,810,891
5454,805,890
5455,807,880
5456,811,877
5457,815,880
5458,812,889
5459,814,894
5460,812,895
5461,812,885
5462,815,885
5463,814,889
5464,815,897
5465,814,899
5466,811,892
5467,812,882
5468,814,873
5469,815,885
5470,813,893
5471,811,906
5472,812,902
5473,814,898
5474,816,891
5475,820,890
5476,820,903
5477,815,907
5478,812,905
5479,812,893
5480,816,887
5481,815,892
5482,817,905
5483,818,911
5484,816,912
5485,818,902
5486,822,901
5487,824,904
5488,827,911
5489,823,920
5490,818,918
5491,822,911
5492,821,897
5493,825,899
5494,827,909
5495,824,920
5496,827,925
5497,830,916
5498,832,909
5499,834,910
5500,835,916
5501,835,925
5502,831,919
5503,829,902
5504,831,897
5505,835,902
5506,833,913
5507,834,920
5508,833,918
5509,836,911
5510,839,903
5511,841,903
5512,843,910
5513,840,918
5514,835,915
5515,836,905
5516,837,893
5517,837,892
5518,842,896
5519,840,906
5520,838,907
5521,839,900
5522,847,892
5523,849,889
5524,848,896
5525,839,898
5526,839,895
5527,837,884
5528,840,873
5529,839,877
5530,837,885
5531,835,897
5532,834,894
5533,837,883
5534,841,879
5535,844,885
5536,844,894
5537,838,895
5538,833,892
5539,832,877
5540,837,871
5541,835,874
5542,834,883
5543,833,894
5544,832,893
5545,835,889
5546,839,879
5547,841,880
5548,841,888
5549,838,895
5550,833,892
5551,830,884
5552,830,871
5553,835,868
5554,832,879
5555,832,895
5556,827,899
5557,830,891
5558,835,880
5559,835,875
5560,838,876
5561,835,888
5562,827,894
5563,825,892
5564,824,883
5565,822,870
5566,825,871
5567,824,880
5568,824,892
5569,821,895
5570,820,890
5571,821,877
5572,821,873
5573,822,872
5574,820,884
5575,817,889
5576,813,886
5577,814,872
5578,816,867
5579,821,874
5580,824,887
5581,823,896
5582,822,895
5583,823,885
5584,823,873
5585,824,872
5586,823,876
5587,823,886
5588,822,892
5589,822,885
5590,822,874
5591,826,873
5592,829,878
5593,830,893
5594,828,898
5595,826,890
5596,828,879
5597,827,872
5598,828,874
5599,828,883
5600,822,887
5601,822,883
5602,829,875
5603,832,874
5604,839,883
5605,840,891
5606,841,894
5607,841,893
5608,844,878
5609,847,875
5610,847,881
5611,848,892
5612,849,894
5613,852,885
5614,856,877
5615,863,878
5616,868,886
5617,870,899
5618,870,911
5619,870,910
5620,875,896
5621,876,890
5622,877,892
5623,874,900
5624,870,909
5625,868,905
5626,864,897
5627,869,890
5628,867,892
5629,868,901
5630,863,915
5631,863,909
5632,860,896
5633,865,886
5634,863,883
5635,858,892
5636,850,896
5637,842,890
5638,840,883
5639,840,871
5640,840,875
5641,838,887
5642,837,893
5643,833,894
5644,833,884
5645,833,874
5646,834,868
5647,831,878
5648,826,886
5649,818,887
5650,819,879
5651,819,875
5652,825,878
5653,827,890
5654,826,897
5655,824,894
5656,824,888
5657,822,876
5658,823,871
5659,825,877
5660,815,888
5661,801,892
5662,794,884
5663,782,875
5664,787,874
5665,789,882
5666,800,903
5667,818,915
5668,843,921
5669,881,923
5670,923,925
5671,960,941
5672,999,957
5673,1034,967
5674,1071,963
5675,1106,955
5676,1140,948
5677,1159,944
5678,1172,933
5679,1175,907
5680,1171,887
5681,1159,879
5682,1137,885
5683,1112,910
5684,1073,932
5685,1015,932
5686,956,918
5687,906,898
5688,870,882
5689,852,881
5690,846,888
5691,845,887
5692,852,884
5693,860,878
5694,864,874
5695,862,880
5696,849,892
5697,830,898
5698,821,889
5699,816,877
5700,816,875
5701,820,881
5702,818,889
5703,817,898
5704,813,894
5705,811,882
5706,815,877
5707,815,881
5708,813,893
5709,809,902
5710,808,902
5711,808,891
5712,812,882
5713,820,883
5714,822,894
5715,819,905
5716,815,913
5717,813,903
5718,811,889
5719,813,882
5720,814,883
5721,815,897
5722,812,906
5723,811,906
5724,816,897
5725,820,895
5726,824,897
5727,826,909
5728,823,916
5729,816,911
5730,813,900
5731,818,890
5732,820,892
5733,822,904
5734,818,915
5735,818,920
5736,820,913
5737,822,904
5738,829,908
5739,828,916
5740,824,925
5741,823,921
5742,823,914
5743,823,904
5744,825,908
5745,826,914
5746,823,923
5747,821,918
5748,822,915
5749,831,915
5750,835,925
5751,836,936
5752,834,932
5753,835,922
5754,837,911
5755,835,911
5756,833,920
5757,832,930
5758,829,929
5759,830,920
5760,835,910
5761,842,907
5762,846,920
5763,843,927
5764,842,930
5765,839,925
5766,842,911
5767,842,901
5768,846,904
5769,843,917
5770,841,918
5771,843,912
5772,843,903
5773,850,900
5774,854,908
5775,853,917
5776,847,916
5777,841,906
5778,842,892
5779,844,885
5780,844,893
5781,841,904
5782,841,906
5783,844,902
5784,846,893
5785,849,887
5786,851,895
5787,849,905
5788,845,909
5789,842,901
5790,841,886
5791,842,884
5792,841,888
5793,838,896
5794,835,900
5795,833,900
5796,839,893
5797,842,887
5798,846,899
5799,845,904
5800,842,908
5801,839,898
5802,835,887
5803,838,880
5804,835,886
5805,836,899
5806,832,902
5807,832,899
5808,833,892
5809,839,888
5810,840,897
5811,839,905
5812,836,905
5813,834,897
5814,835,885
5815,834,884
5816,830,890
5817,823,897
5818,823,891
5819,823,886
5820,824,883
5821,827,890
5822,827,901
5823,823,902
5824,820,894
5825,824,883
5826,818,884
5827,819,892
5828,814,897
5829,813,895
5830,815,883
5831,819,883
5832,821,888
5833,821,902
5834,819,911
5835,822,904
5836,823,889
5837,826,887
5838,825,886
5839,827,899
5840,823,906
5841,822,897
5842,820,891
5843,826,885
5844,826,889
5845,829,903
5846,828,914
5847,830,906
5848,828,894
5849,827,887
5850,831,890
5851,830,899
5852,827,905
5853,827,899
5854,828,887
5855,835,886
5856,842,890
5857,844,904
5858,838,912
5859,841,903
5860,843,891
5861,846,887
5862,852,891
5863,853,899
5864,852,907
5865,856,906
5866,859,895
5867,868,892
5868,875,900
5869,879,914
5870,880,928
5871,881,927
5872,874,917
5873,877,912
5874,876,914
5875,873,919
5876,869,922
5877,871,920
5878,872,911
5879,872,904
5880,873,911
5881,872,928
5882,869,931
5883,867,925
5884,867,914
5885,864,905
5886,865,903
5887,858,912
5888,848,911
5889,845,900
5890,842,893
5891,841,896
5892,838,904
5893,835,914
5894,835,916
5895,837,910
5896,835,901
5897,836,903
5898,832,906
5899,829,910
5900,828,909
5901,826,898
5902,830,889
5903,832,897
5904,832,915
5905,829,921
5906,830,918
5907,831,903
5908,832,891
5909,830,899
5910,822,905
5911,809,913
5912,794,914
5913,783,900
5914,785,894
5915,797,896
5916,814,915
5917,839,943
5918,867,954
5919,905,960
5920,943,962
5921,989,966
5922,1021,983
5923,1056,997
5924,1086,993
5925,1111,982
5926,1139,969
5927,1157,955
5928,1171,946
5929,1179,941
5930,1182,936
5931,1175,925
5932,1163,918
5933,1145,922
5934,1112,936
5935,1061,955
5936,1000,962
5937,937,944
5938,890,918
5939,862,903
5940,851,901
5941,853,910
5942,860,919
5943,865,917
5944,869,911
5945,868,904
5946,857,908
5947,846,919
5948,830,924
5949,824,918
5950,816,906
5951,821,900
5952,822,905
5953,822,917
5954,825,929
5955,824,934
5956,820,923
5957,820,914
5958,823,907
5959,821,916
5960,818,928
5961,814,927
5962,815,919
5963,822,912
5964,825,915
5965,824,928
5966,824,934
5967,823,931
5968,821,924
5969,823,921
5970,825,923
5971,825,932
5972,822,931
5973,822,924
5974,826,917
5975,827,921
5976,826,933
5977,829,944
5978,826,946
5979,825,938
5980,829,930
5981,831,924
5982,832,932
5983,828,942
5984,827,945
5985,825,936
5986,822,929
5987,826,926
5988,827,935
5989,832,947
5990,829,956
5991,830,952
5992,832,941
5993,836,934
5994,838,937
5995,837,945
5996,836,954
5997,832,953
5998,835,946
5999,837,936
6000,840,943
6001,840,954
6002,838,965
6003,838,967
6004,838,954
6005,843,944
6006,842,941
6007,842,948
6008,840,955
6009,838,953
6010,837,942
6011,839,936
6012,842,941
6013,843,954
6014,843,962
6015,847,954
6016,851,941
6017,855,937
6018,856,941
6019,856,948
6020,851,951
6021,850,941
6022,846,929
6023,849,926
6024,853,935
6025,854,946
6026,852,953
6027,851,949
6028,852,934
6029,855,928
6030,855,930
6031,852,938
6032,847,936
6033,846,930
6034,844,920
6035,847,919
6036,849,927
6037,849,939
6038,849,943
6039,851,933
6040,851,924
6041,853,922
6042,849,930
6043,847,936
6044,842,928
6045,843,922
6046,844,919
6047,847,920
6048,843,934
6049,844,940
6050,843,936
6051,845,927
6052,850,919
6053,847,920
6054,845,929
6055,843,937
6056,841,931
6057,838,920
6058,843,914
6059,841,915
6060,846,929
6061,842,939
6062,838,945
6063,841,934
6064,839,918
6065,842,917
6066,842,923
6067,836,931
6068,836,932
6069,835,927
6070,831,916
6071,834,916
6072,836,927
6073,836,939
6074,833,944
6075,836,935
6076,836,921
6077,837,916
6078,835,914
6079,833,927
6080,825,931
6081,822,927
6082,824,918
6083,827,912
6084,834,922
6085,835,933
6086,831,938
6087,832,935
6088,832,924
6089,832,919
6090,837,921
6091,835,928
6092,832,933
6093,831,927
6094,832,916
6095,838,917
6096,844,927
6097,847,939
6098,846,945
6099,844,937
6100,842,925
6101,845,923
6102,846,924
6103,843,934
6104,841,929
6105,839,927
6106,845,917
6107,851,916
6108,855,931
6109,855,943
6110,856,942
6111,860,934
6112,866,926
6113,864,925
6114,866,932
6115,867,935
6116,867,932
6117,874,924
6118,879,922
6119,882,936
6120,884,952
6121,884,954
6122,887,944
6123,892,940
6124,890,943
6125,891,951
6126,886,958
6127,879,956
6128,876,941
6129,876,931
6130,878,926
6131,876,936
6132,875,949
6133,870,953
6134,869,943
6135,865,929
6136,863,921
6137,858,926
6138,851,929
6139,847,934
6140,846,923
6141,844,914
6142,846,916
6143,844,929
6144,842,940
6145,839,950
6146,836,939
6147,840,931
6148,840,920
6149,840,923
6150,840,929
6151,839,940
6152,839,931
6153,836,923
6154,839,920
6155,836,925
6156,839,938
6157,834,947
6158,832,943
6159,827,929
6160,821,924
6161,813,923
6162,807,931
6163,795,936
6164,791,931
6165,795,924
6166,813,929
6167,840,947
6168,878,976
6169,917,992
6170,959,1002
6171,1001,1001
6172,1032,1001
6173,1064,1008
6174,1091,1017
6175,1117,1016
6176,1138,994
6177,1154,967
6178,1166,935
6179,1175,914
6180,1177,916
6181,1168,923
6182,1149,930
6183,1116,936
6184,1075,946
6185,1009,959
6186,943,963
6187,887,953
6188,854,935
6189,841,914
6190,844,916
6191,857,923
6192,865,938
6193,872,948
6194,866,943
6195,863,936
6196,853,938
6197,842,946
6198,831,948
6199,824,940
6200,825,930
6201,827,924
6202,830,930
6203,830,940
6204,827,952
6205,823,952
6206,823,947
6207,825,939
6208,832,940
6209,833,952
6210,831,954
6211,829,952
6212,827,938
6213,831,932
6214,832,940
6215,832,951
6216,831,962
6217,827,961
6218,830,949
6219,829,942
6220,832,945
6221,831,953
6222,828,960
6223,825,959
6224,823,948
6225,829,941
6226,833,943
6227,830,958
6228,834,967
6229,833,966
6230,835,957
6231,836,950
6232,841,957
6233,840,968
6234,836,973
6235,832,969
6236,834,956
6237,832,944
6238,833,949
6239,830,965
6240,832,975
6241,835,977
6242,839,971
6243,845,962
6244,848,964
6245,845,973
6246,842,981
6247,838,977
6248,838,968
6249,838,958
6250,846,958
6251,850,973
6252,849,982
6253,848,980
6254,849,973
6255,851,961
6256,850,963
6257,848,974
6258,847,977
6259,844,974
6260,842,957
6261,847,950
6262,849,953
6263,850,970
6264,851,977
6265,851,975
6266,853,964
6267,856,956
6268,860,957
6269,861,967
6270,856,971
6271,851,968
6272,851,953
6273,851,943
6274,853,939
6275,854,954
6276,851,965
6277,850,968
6278,850,962
6279,854,949
6280,856,939
6281,855,945
6282,854,955
6283,852,964
6284,846,956
6285,845,942
6286,847,931
6287,850,938
6288,850,952
6289,852,960
6290,853,958
6291,851,948
6292,856,937
6293,856,940
6294,855,947
6295,853,957
6296,847,955
6297,845,945
6298,843,936
6299,850,932
6300,848,940
6301,850,956
6302,847,965
6303,847,958
6304,846,941
6305,845,936
6306,846,939
6307,845,949
6308,845,952
6309,845,946
6310,845,938
6311,851,935
6312,849,942
6313,848,954
6314,847,963
6315,847,958
6316,846,942
6317,850,936
6318,851,936
6319,844,947
6320,839,953
6321,842,947
6322,838,937
6323,842,933
6324,845,938
6325,847,953
6326,843,960
6327,842,956
6328,842,943
6329,845,938
6330,843,941
6331,843,951
6332,841,952
6333,843,944
6334,841,937
6335,847,936
6336,846,944
6337,845,955
6338,845,957
6339,845,949
6340,847,938
6341,852,938
6342,851,944
6343,847,951
6344,848,951
6345,848,939
6346,851,928
6347,855,930
6348,863,943
6349,862,958
6350,862,962
6351,864,958
6352,868,947
6353,874,937
6354,876,946
6355,876,953
6356,877,956
6357,879,949
6358,883,943
6359,887,944
6360,889,952
6361,888,969
6362,891,971
6363,892,964
6364,894,954
6365,897,954
6366,896,957
6367,888,971
6368,880,964
6369,877,956
6370,877,947
6371,878,946
6372,879,956
6373,880,967
6374,881,970
6375,878,957
6376,879,946
6377,873,941
6378,865,943
6379,860,947
6380,857,944
6381,856,934
6382,850,933
6383,851,938
6384,850,952
6385,848,956
6386,843,953
6387,845,941
6388,848,935
6389,848,941
6390,847,951
6391,845,956
6392,841,945
6393,842,935
6394,844,930
6395,847,936
6396,846,947
6397,846,956
6398,841,950
6399,839,940
6400,831,934
6401,823,936
6402,810,943
6403,803,940
6404,805,938
6405,818,941
6406,842,953
6407,875,976
6408,915,999
6409,956,1011
6410,999,1009
6411,1042,1009
6412,1077,1007
6413,1109,1012
6414,1132,1006
6415,1148,987
6416,1157,957
6417,1162,920
6418,1165,903
6419,1161,902
6420,1150,918
6421,1139,933
6422,1121,942
6423,1093,953
6424,1048,957
6425,990,970
6426,929,966
6427,879,957
6428,851,939
6429,844,917
6430,851,907
6431,863,919
6432,874,939
6433,880,955
6434,876,958
6435,871,944
6436,861,936
6437,854,936
6438,845,941
6439,835,949
6440,828,946
6441,824,938
6442,824,927
6443,830,927
6444,835,939
6445,835,954
6446,835,960
6447,831,957
6448,833,945
6449,833,938
6450,835,946
6451,834,955
6452,834,958
6453,833,948
6454,829,938
6455,832,936
6456,832,945
6457,834,961
6458,831,965
6459,833,963
6460,836,945
6461,837,939
6462,839,946
6463,838,956
6464,830,964
6465,826,962
6466,826,948
6467,830,943
6468,837,948
6469,838,962
6470,839,972
6471,837,970
6472,838,955
6473,841,952
6474,843,954
6475,843,966
6476,837,973
6477,837,963
6478,836,956
6479,839,956
6480,840,965
6481,839,979
6482,839,985
6483,841,979
6484,840,966
6485,841,962
6486,844,968
6487,843,976
6488,839,977
6489,836,969
6490,841,963
6491,847,959
6492,848,969
6493,850,983
6494,844,988
6495,844,984
6496,845,969
6497,850,959
6498,852,962
6499,853,971
6500,849,978
6501,847,968
6502,847,959
6503,847,952
6504,855,952
6505,853,962
6506,853,975
6507,853,976
6508,858,962
6509,859,952
6510,859,949
6511,858,958
6512,854,962
6513,848,957
6514,847,948
6515,849,937
6516,855,941
6517,859,952
6518,862,964
6519,857,966
6520,857,955
6521,852,944
6522,853,936
6523,854,942
6524,853,952
6525,848,956
6526,848,945
6527,849,934
6528,855,930
6529,857,940
6530,856,953
6531,856,958
6532,852,955
6533,856,938
6534,855,928
6535,853,932
6536,853,941
6537,849,952
6538,845,948
6539,845,943
6540,846,932
6541,854,934
6542,852,941
6543,856,958
6544,851,957
6545,850,947
6546,847,933
6547,846,929
6548,847,934
6549,846,944
6550,846,945
6551,840,938
6552,843,929
6553,846,931
6554,847,939
6555,846,952
6556,843,951
6557,838,940
6558,841,926
6559,839,926
6560,839,930
6561,838,942
6562,831,942
6563,832,934
6564,835,928
6565,837,922
6566,841,931
6567,840,942
6568,839,952
6569,835,949
6570,836,935
6571,835,919
6572,837,917
6573,839,926
6574,834,938
6575,835,944
6576,834,940
6577,835,930
6578,840,924
6579,843,932
6580,842,940
6581,839,951
6582,838,944
6583,838,931
6584,839,922
6585,840,926
6586,837,937
6587,834,946
6588,833,947
6589,834,936
6590,837,927
6591,846,930
6592,849,933
6593,841,946
6594,840,949
6595,838,938
6596,835,926
6597,839,917
6598,841,928
6599,838,939
6600,838,946
6601,837,943
6602,842,936
6603,851,930
6604,857,935
6605,853,943
6606,853,946
6607,849,941
6608,848,926
6609,850,920
6610,856,921
6611,860,938
6612,862,944
6613,865,950
6614,865,939
6615,869,932
6616,880,929
6617,883,939
6618,885,953
6619,880,957
6620,879,950
6621,875,937
6622,876,932
6623,881,939
6624,878,952
6625,879,955
6626,877,953
6627,877,942
6628,877,938
6629,874,946
6630,872,956
6631,866,954
6632,861,947
6633,863,930
6634,861,922
6635,858,931
6636,850,943
6637,844,948
6638,845,938
6639,842,928
6640,845,915
6641,845,918
6642,849,929
6643,841,940
6644,838,940
6645,833,934
6646,833,919
6647,831,917
6648,832,923
6649,831,936
6650,834,941
6651,834,939
6652,834,925
6653,837,920
6654,836,924
6655,835,935
6656,830,939
6657,826,932
6658,825,918
6659,825,913
6660,822,918
6661,815,931
6662,807,944
6663,798,943
6664,791,931
6665,792,918
6666,804,922
6667,824,941
6668,844,961
6669,874,978
6670,907,979
6671,945,973
6672,988,975
6673,1028,990
6674,1062,1006
6675,1091,1014
6676,1118,1006
6677,1140,980
6678,1157,953
6679,1165,930
6680,1166,916
6681,1154,907
6682,1143,905
6683,1131,900
6684,1127,905
6685,1111,924
6686,1083,949
6687,1037,975
6688,973,979
6689,915,958
6690,871,927
6691,843,902
6692,836,895
6693,836,904
6694,839,914
6695,849,921
6696,852,920
6697,852,920
6698,846,925
6699,839,935
6700,827,934
6701,821,922
6702,819,915
6703,820,918
6704,818,930
6705,816,934
6706,813,932
6707,819,923
6708,820,918
6709,825,932
6710,825,942
6711,823,948
6712,822,941
6713,823,930
6714,823,919
6715,822,924
6716,824,935
6717,821,940
6718,815,939
6719,815,930
6720,818,926
6721,821,927
6722,826,939
6723,827,950
6724,821,952
6725,821,943
6726,823,930
6727,823,926
6728,822,934
6729,822,944
6730,821,948
6731,817,938
6732,821,934
6733,827,933
6734,827,943
6735,827,957
6736,826,963
6737,824,952
6738,824,937
6739,827,933
6740,831,936
6741,830,949
6742,827,954
6743,824,951
6744,826,943
6745,831,937
6746,836,944
6747,837,958
6748,834,967
6749,832,960
6750,831,950
6751,832,934
6752,832,935
6753,833,943
6754,833,956
6755,831,960
6756,834,951
6757,837,941
6758,842,936
6759,841,948
6760,839,953
6761,841,958
6762,836,949
6763,837,935
6764,835,929
6765,838,932
6766,838,941
6767,840,944
6768,838,939
6769,839,930
6770,846,928
6771,847,940
6772,848,942
6773,847,938
6774,845,926
6775,845,916
6776,846,920
6777,843,925
6778,839,923
6779,838,918
6780,839,908
6781,843,910
6782,847,919
6783,842,928
6784,843,926
6785,843,916
6786,842,906
6787,845,901
6788,844,908
6789,842,915
6790,838,916
6791,835,911
6792,838,898
6793,838,899
6794,840,908
6795,837,921
6796,839,923
6797,839,914
6798,839,902
6799,839,896
6800,840,902
6801,833,912
6802,832,912
6803,834,904
6804,839,895
6805,839,898
6806,838,908
6807,840,919
6808,837,918
6809,833,906
6810,834,897
6811,835,893
6812,834,900
6813,831,908
6814,826,908
6815,825,901
6816,826,888
6817,829,890
6818,830,899
6819,830,913
6820,825,913
6821,822,900
6822,822,887
6823,821,883
6824,816,887
6825,815,898
6826,810,897
6827,810,894
6828,810,882
6829,819,883
6830,823,893
6831,824,906
6832,822,910
6833,818,903
6834,815,889
6835,821,882
6836,822,885
6837,821,896
6838,819,899
6839,820,896
6840,822,891
6841,825,887
6842,826,898
6843,826,904
6844,826,901
6845,827,896
6846,827,888
6847,827,888
6848,825,895
6849,825,898
6850,820,891
6851,829,885
6852,834,890
6853,837,902
6854,838,909
6855,837,904
6856,841,894
6857,843,888
6858,845,890
6859,843,902
6860,845,903
6861,841,903
6862,846,892
6863,853,887
6864,862,893
6865,867,906
6866,871,918
6867,871,923
6868,873,912
6869,867,906
6870,870,906
6871,865,915
6872,861,918
6873,862,915
6874,859,904
6875,863,899
6876,866,904
6877,867,918
6878,861,929
6879,859,928
6880,859,912
6881,859,905
6882,863,900
6883,857,907
6884,853,913
6885,842,911
6886,835,897
6887,833,883
6888,830,886
6889,833,896
6890,830,905
6891,826,909
6892,827,899
6893,826,890
6894,828,894
6895,826,902
6896,821,906
6897,816,904
6898,816,892
6899,819,883
6900,823,887
6901,823,904
6902,820,912
6903,815,914
6904,817,904
6905,819,891
6906,822,886
6907,817,893
6908,812,904
6909,799,905
6910,785,895
6911,779,887
6912,777,889
6913,781,899
6914,794,916
6915,814,936
6916,845,942
6917,888,946
6918,935,954
6919,973,969
6920,1012,980
6921,1048,974
6922,1083,961
6923,1116,951
6924,1141,945
6925,1152,932
6926,1158,909
6927,1154,889
6928,1149,873
6929,1139,880
6930,1118,907
6931,1081,933
6932,1029,942
6933,965,934
6934,906,916
6935,862,899
6936,835,894
6937,824,896
6938,823,899
6939,836,892
6940,847,891
6941,853,899
6942,846,912
6943,835,915
6944,825,911
6945,818,897
6946,812,889
6947,808,894
6948,803,906
6949,802,915
6950,802,912
6951,806,904
6952,810,903
6953,814,906
6954,813,917
6955,809,922
6956,806,919
6957,804,905
6958,808,903
6959,807,905
6960,809,918
6961,810,924
6962,809,919
6963,816,909
6964,820,912
6965,819,920
6966,816,927
6967,809,928
6968,806,918
6969,805,908
6970,809,907
6971,809,915
6972,810,929
6973,807,934
6974,807,927
6975,811,919
6976,815,917
6977,817,922
6978,817,936
6979,811,939
6980,809,932
6981,810,919
6982,812,915
6983,813,927
6984,814,941
6985,815,944
6986,818,936
6987,820,931
6988,822,931
6989,821,942
6990,819,946
6991,817,947
6992,815,934
6993,816,928
6994,821,932
6995,819,944
6996,817,952
6997,817,946
6998,817,937
6999,823,937
7000,826,946
7001,825,954
7002,822,954
7003,819,944
7004,823,929
7005,824,921
7006,828,924
7007,829,938
7008,827,953
7009,824,949
7010,827,943
7011,828,931
7012,834,927
7013,830,933
7014,831,941
7015,829,942
7016,828,932
7017,832,918
7018,832,908
7019,836,916
7020,834,931
7021,833,937
7022,832,934
7023,833,925
7024,837,917
7025,836,921
7026,837,929
7027,834,931
7028,828,925
7029,824,913
7030,827,902
7031,829,903
7032,832,918
7033,829,929
7034,827,933
7035,829,929
7036,834,914
7037,837,915
7038,836,917
7039,834,927
7040,828,933
7041,829,922
7042,830,912
7043,830,911
7044,829,922
7045,831,932
7046,831,936
7047,832,928
7048,834,917
7049,838,914
7050,836,924
7051,832,931
7052,829,938
7053,826,928
7054,823,919
7055,826,911
7056,827,922
7057,829,934
7058,826,938
7059,825,933
7060,826,926
7061,828,922
7062,827,926
7063,822,934
7064,818,930
7065,818,923
7066,817,915
7067,818,919
7068,819,928
7069,817,935
7070,817,931
7071,818,923
7072,824,923
7073,823,930
7074,822,938
7075,818,932
7076,815,928
7077,816,919
7078,818,914
7079,814,922
7080,815,937
7081,817,938
7082,816,932
7083,821,928
7084,825,924
7085,832,932
7086,829,940
7087,826,939
7088,824,928
7089,824,920
7090,827,916
7091,832,925
7092,830,938
7093,831,944
7094,831,938
7095,835,929
7096,840,928
7097,843,939
7098,847,947
7099,851,949
7100,850,942
7101,856,925
7102,862,919
7103,865,931
7104,868,945
7105,867,956
7106,866,957
7107,865,950
7108,868,943
7109,869,951
7110,868,953
7111,864,956
7112,862,945
7113,862,935
7114,860,933
7115,860,942
7116,859,955
7117,855,959
7118,856,951
7119,859,940
7120,864,939
7121,860,943
7122,850,949
7123,844,949
7124,837,936
7125,833,922
7126,834,920
7127,834,933
7128,833,944
7129,829,952
7130,826,945
7131,829,939
7132,830,936
7133,828,944
7134,826,952
7135,825,946
7136,823,937
7137,823,931
7138,824,933
7139,823,941
7140,822,946
7141,823,945
7142,826,936
7143,827,935
7144,824,942
7145,815,951
7146,802,950
7147,790,939
7148,777,926
7149,777,922
7150,785,932
7151,798,955
7152,823,973
7153,856,986
7154,896,989
7155,938,997
7156,977,1005
7157,1007,1028
7158,1034,1036
7159,1061,1034
7160,1091,1015
7161,1115,995
7162,1135,979
7163,1147,968
7164,1154,955
7165,1154,942
7166,1153,924
7167,1146,921
7168,1135,931
7169,1104,953
7170,1057,979
7171,996,990
7172,929,975
7173,877,948
7174,845,930
7175,832,926
7176,830,935
7177,837,948
7178,847,950
7179,859,945
7180,861,942
7181,855,944
7182,846,957
7183,831,962
7184,821,955
7185,812,940
7186,813,935
7187,810,941
7188,810,953
7189,812,963
7190,810,963
7191,812,955
7192,817,948
7193,820,953
7194,816,967
7195,811,974
7196,810,966
7197,810,955
7198,814,945
7199,814,943
7200,816,956
7201,817,970
7202,818,972
7203,816,962
7204,824,958
7205,825,958
7206,824,969
7207,822,974
7208,818,971
7209,816,958
7210,820,949
7211,819,955
7212,818,965
7213,817,976
7214,816,971
7215,818,963
7216,824,960
7217,824,970
7218,823,981
7219,822,981
7220,816,967
7221,816,954
7222,818,956
7223,819,966
7224,819,979
7225,818,985
7226,819,978
7227,824,972
7228,828,969
7229,831,984
7230,828,991
7231,822,994
7232,821,984
7233,823,967
7234,826,964
7235,825,971
7236,825,984
7237,820,991
7238,824,985
7239,827,976
7240,831,974
7241,837,980
7242,836,992
7243,835,992
7244,833,979
7245,828,966
7246,829,960
7247,830,966
7248,832,979
7249,831,993
7250,832,992
7251,834,980
7252,840,974
7253,843,973
7254,844,980
7255,840,986
7256,837,981
7257,832,967
7258,835,953
7259,839,952
7260,838,965
7261,838,973
7262,840,974
7263,841,965
7264,845,956
7265,843,957
7266,842,964
7267,838,968
7268,835,965
7269,832,955
7270,838,945
7271,841,946
7272,844,961
7273,842,971
7274,842,973
7275,840,965
7276,839,950
7277,837,947
7278,835,955
7279,831,965
7280,830,967
7281,830,957
7282,833,947
7283,835,946
7284,838,954
7285,838,965
7286,838,968
7287,836,962
7288,844,952
7289,846,955
7290,844,962
7291,842,972
7292,833,965
7293,829,950
7294,827,941
7295,826,944
7296,828,956
7297,831,971
7298,830,970
7299,834,962
7300,838,952
7301,836,948
7302,839,955
7303,835,965
7304,829,964
7305,821,954
7306,826,946
7307,827,944
7308,829,956
7309,830,967
7310,827,970
7311,826,961
7312,834,953
7313,833,954
7314,833,962
7315,828,963
7316,827,961
7317,822,954
7318,824,940
7319,828,946
7320,832,960
7321,831,966
7322,828,970
7323,832,960
7324,834,953
7325,835,951
7326,835,963
7327,831,969
7328,834,966
7329,835,960
7330,836,952
7331,838,958
7332,842,967
7333,841,969
7334,842,964
7335,844,957
7336,850,955
7337,852,963
7338,854,969
7339,854,973
7340,859,962
7341,865,951
7342,873,949
7343,873,959
7344,875,970
7345,874,981
7346,872,975
7347,875,968
7348,879,972
7349,882,976
7350,882,984
7351,878,984
7352,878,975
7353,873,966
7354,874,965
7355,872,974
7356,868,983
7357,866,980
7358,868,973
7359,870,969
7360,874,970
7361,872,981
7362,864,984
7363,856,972
7364,849,953
7365,849,946
7366,850,947
7367,847,962
7368,843,973
7369,841,967
7370,842,963
7371,843,959
7372,846,962
7373,842,969
7374,833,973
7375,829,967
7376,823,955
7377,825,942
7378,831,942
7379,830,954
7380,829,967
7381,824,972
7382,828,963
7383,830,952
7384,838,952
7385,832,954
7386,829,967
7387,816,966
7388,807,954
7389,796,941
7390,787,933
7391,789,938
7392,792,958
7393,804,973
7394,819,984
7395,843,989
7396,885,996
7397,926,1008
7398,963,1024
7399,998,1036
7400,1029,1032
7401,1060,1021
7402,1092,1005
7403,1118,998
7404,1134,989
7405,1142,969
7406,1146,939
7407,1145,907
7408,1143,895
7409,1134,910
7410,1111,940
7411,1077,965
7412,1024,980
7413,962,975
7414,905,961
7415,859,949
7416,837,949
7417,827,954
7418,831,951
7419,843,948
7420,857,944
7421,863,954
7422,867,964
7423,856,971
7424,841,966
7425,834,953
7426,823,945
7427,821,946
7428,819,955
7429,813,965
7430,812,970
7431,815,960
7432,818,957
7433,819,959
7434,820,968
7435,812,974
7436,815,973
7437,811,964
7438,815,953
7439,813,954
7440,818,966
7441,820,977
7442,820,977
7443,822,969
7444,824,963
7445,826,963
7446,826,971
7447,825,978
7448,820,981
7449,821,972
7450,820,960
7451,822,953
7452,827,960
7453,824,976
7454,824,982
7455,823,984
7456,824,974
7457,824,966
7458,825,965
7459,824,976
7460,822,985
7461,818,980
7462,818,972
7463,816,962
7464,824,965
7465,827,977
7466,826,985
7467,827,989
7468,826,982
7469,826,971
7470,827,968
7471,832,976
7472,831,989
7473,829,994
7474,824,990
7475,825,975
7476,823,972
7477,827,978
7478,830,989
7479,832,998
7480,832,996
7481,831,985
7482,832,980
7483,833,982
7484,832,991
7485,824,995
7486,823,989
7487,822,980
7488,827,971
7489,831,970
7490,837,981
7491,838,996
7492,839,996
7493,837,985
7494,836,972
7495,837,959
7496,840,963
7497,838,975
7498,837,978
7499,834,972
7500,836,963
7501,840,962
7502,838,965
7503,838,980
7504,836,980
7505,836,973
7506,837,961
7507,838,958
7508,838,960
7509,835,966
7510,832,967
7511,828,958
7512,829,953
7513,835,953
7514,835,961
7515,836,973
7516,835,975
7517,836,966
7518,831,953
7519,831,944
7520,834,951
7521,835,960
7522,830,969
7523,826,968
7524,825,955
7525,831,947
7526,832,946
7527,838,958
7528,836,972
7529,834,973
7530,834,965
7531,832,950
7532,830,945
7533,835,949
7534,829,957
7535,826,960
7536,826,952
7537,825,944
7538,827,939
7539,829,945
7540,833,964
7541,830,972
7542,827,974
7543,821,961
7544,821,947
7545,823,940
7546,826,947
7547,821,957
7548,820,967
7549,820,964
7550,822,955
7551,825,949
7552,827,952
7553,826,961
7554,823,964
7555,816,961
7556,811,948
7557,813,940
7558,819,943
7559,816,951
7560,818,960
7561,819,960
7562,821,952
7563,826,945
7564,828,943
7565,830,950
7566,829,959
7567,826,969
7568,818,960
7569,817,948
7570,816,936
7571,817,941
7572,819,953
7573,820,966
7574,819,969
7575,823,962
7576,828,953
7577,828,948
7578,830,957
7579,829,963
7580,830,964
7581,827,954
7582,826,943
7583,830,940
7584,831,952
7585,832,964
7586,833,971
7587,833,961
7588,839,954
7589,844,946
7590,850,947
7591,854,962
7592,849,969
7593,848,968
7594,848,962
7595,851,948
7596,857,948
7597,864,953
7598,865,972
7599,869,984
7600,870,986
7601,869,975
7602,869,963
7603,871,963
7604,868,971
7605,862,973
7606,855,973
7607,852,960
7608,853,956
7609,854,963
7610,859,973
7611,859,979
7612,858,983
7613,857,970
7614,854,955
7615,853,948
7616,848,951
7617,843,960
7618,836,965
7619,830,963
7620,827,949
7621,829,940
7622,832,943
7623,834,955
7624,831,972
7625,823,971
7626,823,960
7627,821,948
7628,820,941
7629,820,948
7630,818,956
7631,816,960
7632,815,955
7633,818,948
7634,824,942
7635,827,947
7636,826,959
7637,822,966
7638,816,963
7639,811,952
7640,807,937
7641,805,935
7642,797,938
7643,788,946
7644,778,954
7645,779,952
7646,790,948
7647,809,957
7648,835,975
7649,871,999
7650,910,1017
7651,952,1018
7652,995,1015
7653,1032,1012
7654,1065,1019
7655,1094,1022
7656,1119,1008
7657,1135,979
7658,1145,946
7659,1149,924
7660,1144,913
7661,1135,914
7662,1122,922
7663,1104,929
7664,1073,936
7665,1034,947
7666,978,962
7667,914,969
7668,865,964
7669,832,944
7670,818,927
7671,821,919
7672,834,926
7673,848,944
7674,854,956
7675,854,958
7676,851,949
7677,844,940
7678,834,939
7679,822,954
7680,813,958
7681,804,954
7682,805,949
7683,813,943
7684,814,951
7685,817,960
7686,812,967
7687,809,966
7688,808,953
7689,811,944
7690,813,946
7691,814,956
7692,816,965
7693,819,970
7694,820,964
7695,823,956
7696,824,957
7697,825,966
7698,816,972
7699,813,970
7700,810,962
7701,809,946
7702,812,950
7703,811,960
7704,813,972
7705,810,975
7706,811,969
7707,814,961
7708,818,959
7709,819,964
7710,817,978
7711,812,982
7712,809,975
7713,811,966
7714,815,962
7715,816,965
7716,819,976
7717,816,988
7718,812,987
7719,816,978
7720,815,975
7721,816,977
7722,816,986
7723,819,989
7724,816,984
7725,819,976
7726,820,968
7727,822,980
7728,823,991
7729,820,995
7730,822,986
7731,826,981
7732,831,986
7733,835,992
7734,831,997
7735,830,997
7736,828,982
7737,830,973
7738,832,969
7739,833,976
7740,835,987
7741,834,995
7742,834,990
7743,835,974
7744,839,970
7745,843,969
7746,844,980
7747,840,990
7748,834,981
7749,833,965
7750,835,957
7751,839,957
7752,842,963
7753,838,975
7754,840,974
7755,840,966
7756,844,961
7757,845,960
7758,848,965
7759,843,974
7760,837,967
7761,834,955
7762,835,941
7763,834,940
7764,837,949
7765,836,960
7766,834,966
7767,833,958
7768,834,946
7769,838,941
7770,836,946
7771,834,960
7772,829,964
7773,826,954
7774,828,942
7775,830,936
7776,833,941
7777,834,954
7778,831,965
7779,832,964
7780,829,954
7781,828,945
7782,832,943
7783,830,948
7784,828,958
7785,823,960
7786,823,951
7787,826,943
7788,827,941
7789,833,953
7790,831,960
7791,831,963
7792,830,955
7793,831,948
7794,834,947
7795,833,953
7796,827,957
7797,826,949
7798,824,943
7799,825,936
7800,822,946
7801,820,953
7802,817,956
7803,820,948
7804,823,947
7805,823,951
7806,822,955
7807,822,957
7808,816,945
7809,817,938
7810,820,937
7811,820,945
7812,819,956
7813,819,955
7814,821,945
7815,823,938
7816,827,939
7817,830,949
7818,829,959
7819,827,958
7820,822,946
7821,824,937
7822,823,940
7823,822,946
7824,822,953
7825,821,949
7826,823,945
7827,830,942
7828,833,949
7829,832,956
7830,834,956
7831,836,951
7832,839,937
7833,838,936
7834,841,940
7835,838,952
7836,836,959
7837,836,954
7838,841,944
7839,849,935
7840,853,943
7841,858,951
7842,858,957
7843,859,960
7844,858,946
7845,865,940
7846,868,944
7847,863,953
7848,861,966
7849,861,967
7850,864,961
7851,867,954
7852,873,958
7853,872,969
7854,867,977
7855,860,971
7856,861,954
7857,859,944
7858,855,941
7859,856,955
7860,856,962
7861,854,968
7862,852,960
7863,854,948
7864,852,944
7865,849,947
7866,841,953
7867,833,950
7868,828,941
7869,824,935
7870,822,934
7871,819,942
7872,819,949
7873,818,945
7874,821,939
7875,824,939
7876,822,950
7877,823,956
7878,820,953
7879,819,940
7880,819,929
7881,817,933
7882,818,941
7883,817,943
7884,812,943
7885,806,932
7886,805,927
7887,798,932
7888,789,944
7889,779,951
7890,774,948
7891,782,942
7892,796,944
7893,828,962
7894,862,982
7895,902,997
7896,942,1006
7897,981,1001
7898,1025,1002
7899,1064,1011
7900,1093,1016
7901,1120,1010
7902,1138,986
7903,1145,947
7904,1147,918
7905,1140,903
7906,1136,910
7907,1121,918
7908,1104,934
7909,1081,945
7910,1044,959
7911,990,969
7912,928,975
7913,873,964
7914,831,939
7915,814,917
7916,813,905
7917,820,915
7918,831,931
7919,837,939
7920,835,936
7921,829,929
7922,827,924
7923,820,936
7924,813,945
7925,800,948
7926,800,939
7927,799,929
7928,801,922
7929,802,924
7930,802,939
7931,799,945
7932,796,944
7933,796,935
7934,800,929
7935,805,937
7936,807,948
7937,809,955
7938,807,948
7939,806,939
7940,806,931
7941,808,937
7942,803,943
7943,805,946
7944,804,943
7945,802,933
7946,805,935
7947,808,949
7948,809,956
7949,808,953
7950,803,948
7951,806,942
7952,805,941
7953,806,948
7954,801,956
7955,800,950
7956,800,941
7957,805,937
7958,808,947
7959,811,956
7960,813,965
7961,811,967
7962,806,955
7963,811,945
7964,810,942
7965,808,951
7966,806,960
7967,802,965
7968,802,958
7969,805,947
7970,807,947
7971,815,962
7972,817,974
7973,815,975
7974,813,968
7975,818,958
7976,817,953
7977,817,958
7978,817,966
7979,812,971
7980,812,964
7981,814,956
7982,817,953
7983,824,958
7984,824,970
7985,824,975
7986,819,968
7987,820,956
7988,822,943
7989,823,941
7990,822,952
7991,819,955
7992,816,957
7993,822,948
7994,823,939
7995,828,941
7996,829,953
7997,833,959
7998,827,953
7999,826,942
8000,824,927
8001,820,924
8002,823,926
8003,826,940
8004,822,945
8005,823,941
8006,824,930
8007,825,922
8008,827,930
8009,829,940
8010,825,946
8011,825,940
8012,822,928
8013,822,914
8014,822,913
8015,821,924
8016,815,932
8017,817,931
8018,818,922
8019,818,920
8020,824,923
8021,825,933
8022,822,936
8023,817,927
8024,816,918
8025,817,913
8026,817,920
8027,815,927
8028,811,935
8029,812,926
8030,816,915
8031,819,912
8032,821,920
8033,822,932
8034,819,940
8035,812,935
8036,812,921
8037,813,910
8038,812,910
8039,811,918
8040,808,929
8041,806,929
8042,802,919
8043,808,915
8044,811,919
8045,814,927
8046,808,930
8047,804,924
8048,799,913
8049,799,904
8050,804,906
8051,804,919
8052,800,928
8053,799,928
8054,799,918
8055,804,911
8056,807,911
8057,810,920
8058,807,929
8059,800,931
8060,797,919
8061,798,902
8062,799,899
8063,802,907
8064,799,918
8065,798,926
8066,800,921
8067,801,911
8068,807,906
8069,810,913
8070,814,921
8071,809,930
8072,807,924
8073,808,911
8074,810,900
8075,812,901
8076,810,914
8077,812,925
8078,810,927
8079,810,917
8080,818,906
8081,824,907
8082,830,915
8083,833,927
8084,833,926
8085,838,917
8086,840,908
8087,841,907
8088,847,920
8089,843,928
8090,842,929
8091,842,925
8092,841,923
8093,849,925
8094,851,937
8095,850,936
8096,849,928
8097,846,916
8098,845,912
8099,840,921
8100,836,929
8101,831,933
8102,828,924
8103,830,909
8104,828,905
8105,827,911
8106,825,921
8107,815,923
8108,812,914
8109,807,898
8110,808,893
8111,806,895
8112,802,910
8113,795,918
8114,793,917
8115,795,904
8116,800,902
8117,805,908
8118,800,914
8119,799,916
8120,795,910
8121,798,901
8122,798,889
8123,802,895
8124,800,914
8125,795,922
8126,794,916
8127,794,907
8128,794,895
8129,795,895
8130,790,906
8131,778,914
8132,769,920
8133,754,909
8134,748,895
8135,755,888
8136,764,905
8137,789,932
8138,819,953
8139,860,967
8140,901,969
8141,946,969
8142,986,983
8143,1022,1001
8144,1052,1011
8145,1079,1007
8146,1108,985
8147,1128,961
8148,1141,941
8149,1145,931
8150,1142,924
8151,1134,916
8152,1124,907
8153,1111,909
8154,1090,918
8155,1054,947
8156,1003,962
8157,936,963
8158,878,944
8159,831,912
8160,808,893
8161,801,894
8162,804,903
8163,815,912
8164,822,914
8165,830,908
8166,827,908
8167,823,918
8168,812,916
8169,796,917
8170,785,906
8171,782,902
8172,783,906
8173,784,915
8174,783,926
8175,785,924
8176,784,913
8177,791,908
8178,790,913
8179,792,923
8180,790,928
8181,788,926
8182,784,915
8183,786,906
8184,786,902
8185,788,916
8186,789,930
8187,788,932
8188,789,924
8189,792,921
8190,793,916
8191,794,928
8192,789,936
8193,786,931
8194,782,924
8195,783,917
8196,785,920
8197,788,930
8198,789,939
8199,791,934
8200,788,926
8201,792,920
8202,795,924
8203,796,936
8204,791,944
8205,791,940
8206,790,931
8207,793,923
8208,794,924
8209,794,938
8210,792,950
8211,791,952
8212,791,944
8213,795,935
8214,799,934
8215,801,944
8216,799,954
8217,792,955
8218,789,943
8219,784,930
8220,791,928
8221,793,936
8222,795,951
8223,798,956
8224,798,953
8225,802,942
8226,806,937
8227,807,941
8228,805,946
8229,798,951
8230,796,942
8231,796,930
8232,797,926
8233,804,932
8234,805,947
8235,804,949
8236,805,943
8237,810,934
8238,814,933
8239,809,932
8240,805,929
8241,800,922
8242,803,917
8243,808,914
8244,812,925
8245,813,934
8246,811,934
8247,811,924
8248,813,915
8249,816,920
8250,815,925
8251,813,928
8252,808,925
8253,807,916
8254,810,905
8255,808,912
8256,808,923
8257,804,932
8258,802,931
8259,804,924
8260,807,916
8261,815,922
8262,817,928
8263,810,932
8264,805,920
8265,808,910
8266,806,908
8267,810,916
8268,807,922
8269,803,924
8270,800,915
8271,803,911
8272,808,911
8273,813,923
8274,808,935
8275,805,935
8276,802,922
8277,799,907
8278,805,907
8279,807,912
8280,802,922
8281,801,928
8282,802,924
8283,804,915
8284,807,919
8285,812,929
8286,809,933
8287,802,926
8288,801,914
8289,797,904
8290,795,908
8291,794,920
8292,791,929
8293,793,929
8294,793,925
8295,799,917
8296,800,921
8297,806,933
8298,801,940
8299,798,937
8300,798,928
8301,800,915
8302,805,913
8303,807,923
8304,803,932
8305,802,930
8306,801,920
8307,807,917
8308,813,924
8309,816,933
8310,817,937
8311,815,933
8312,820,929
8313,823,923
8314,832,935
8315,836,938
8316,841,939
8317,841,929
8318,845,926
8319,847,935
8320,847,947
8321,848,953
8322,846,949
8323,849,942
8324,851,933
8325,850,945
8326,849,954
8327,846,961
8328,837,955
8329,837,941
8330,838,932
8331,841,934
8332,843,947
8333,843,954
8334,840,950
8335,837,941
8336,837,929
8337,832,926
8338,826,932
8339,820,935
8340,814,937
8341,810,926
8342,812,921
8343,814,929
8344,821,942
8345,821,955
8346,823,954
8347,816,940
8348,811,925
8349,805,920
8350,797,925
8351,792,933
8352,790,935
8353,794,932
8354,802,926
8355,811,928
8356,816,938
8357,819,947
8358,813,942
8359,807,931
8360,799,920
8361,787,921
8362,774,928
8363,763,937
8364,761,940
8365,771,939
8366,798,948
8367,832,967
8368,863,989
8369,900,1000
8370,938,1000
8371,972,993
8372,1014,986
8373,1051,987
8374,1084,980
8375,1105,960
8376,1115,927
8377,1123,894
8378,1120,872
8379,1111,874
8380,1091,882
8381,1065,899
8382,1021,919
8383,967,940
8384,902,951
8385,846,947
8386,809,936
8387,795,916
8388,801,912
8389,818,919
8390,835,939
8391,843,954
8392,839,952
8393,833,944
8394,822,950
8395,810,951
8396,801,955
8397,791,952
8398,788,939
8399,796,930
8400,800,935
8401,808,944
8402,807,957
8403,804,956
8404,804,953
8405,810,948
8406,814,953
8407,818,964
8408,817,972
8409,810,968
8410,811,958
8411,806,946
8412,805,947
8413,805,953
8414,803,964
8415,804,967
8416,806,963
8417,812,956
8418,817,962
8419,821,969
8420,816,976
8421,816,973
8422,811,957
8423,813,953
8424,815,956
8425,814,970
8426,809,980
8427,810,980
8428,811,977
8429,817,971
8430,823,973
8431,824,983
8432,820,988
8433,814,984
8434,814,976
8435,814,970
8436,820,972
8437,821,984
8438,824,994
8439,822,995
8440,824,988
8441,825,983
8442,830,988
8443,832,1000
8444,829,1008
8445,825,1006
8446,822,994
8447,822,979
8448,827,976
8449,827,985
8450,829,999
8451,832,1006
8452,832,1002
8453,833,992
8454,841,983
8455,841,989
8456,834,997
8457,829,1000
8458,824,990
8459,824,981
8460,825,973
8461,827,978
8462,825,990
8463,828,992
8464,833,987
8465,839,976
8466,843,978
8467,845,978
8468,842,986
8469,835,984
8470,829,970
8471,827,952
8472,826,953
8473,833,955
8474,833,973
8475,839,978
8476,835,975
8477,833,967
8478,835,958
8479,833,959
8480,830,963
8481,830,972
8482,827,966
8483,822,955
8484,821,945
8485,817,942
8486,821,952
8487,823,965
8488,827,967
8489,828,961
8490,829,953
8491,832,945
8492,833,953
8493,833,963
8494,827,970
8495,820,966
8496,820,955
8497,821,947
8498,826,946
8499,831,958
8500,832,970
8501,832,970
8502,830,957
8503,831,954
8504,830,950
8505,822,956
8506,821,961
8507,816,959
8508,817,948
8509,824,946
8510,829,946
8511,834,959
8512,830,968
8513,826,972
8514,823,961
8515,824,951
8516,824,947
8517,824,953
8518,824,962
8519,821,964
8520,817,958
8521,820,947
8522,821,945
8523,828,954
8524,829,969
8525,827,976
8526,825,971
8527,822,954
8528,825,948
8529,821,955
8530,821,958
8531,816,964
8532,813,956
8533,818,948
8534,824,948
8535,830,957
8536,834,968
8537,834,971
8538,832,962
8539,831,946
8540,831,944
8541,831,948
8542,832,955
8543,830,964
8544,831,963
8545,834,956
8546,838,950
8547,845,952
8548,846,964
8549,851,975
8550,848,974
8551,848,965
8552,852,951
8553,855,949
8554,858,953
8555,858,959
8556,861,963
8557,863,962
8558,866,961
8559,870,968
8560,871,980
8561,871,992
8562,867,988
8563,864,978
8564,868,964
8565,865,959
8566,868,964
8567,865,976
8568,857,983
8569,853,978
8570,849,965
8571,849,955
8572,852,963
8573,855,970
8574,860,981
8575,855,973
8576,849,960
8577,848,948
8578,845,945
8579,841,951
8580,835,951
8581,828,956
8582,822,949
8583,826,942
8584,830,942
8585,832,955
8586,832,965
8587,827,971
8588,820,959
8589,817,943
8590,821,932
8591,821,933
8592,820,946
8593,822,956
8594,823,955
8595,825,948
8596,823,942
8597,828,940
8598,827,947
8599,822,955
8600,809,955
8601,797,943
8602,788,932
8603,784,931
8604,783,943
8605,791,960
8606,809,974
8607,836,980
8608,869,987
8609,917,996
8610,959,1010
8611,992,1015
8612,1023,1009
8613,1052,990
8614,1074,969
8615,1098,953
8616,1113,943
8617,1120,930
8618,1114,906
8619,1108,879
8620,1103,861
8621,1099,863
8622,1088,885
8623,1064,916
8624,1024,941
8625,976,949
8626,917,945
8627,863,934
8628,826,931
8629,809,934
8630,805,934
8631,817,933
8632,834,935
8633,846,940
8634,852,951
8635,842,961
8636,832,959
8637,814,948
8638,812,935
8639,806,933
8640,806,938
8641,802,951
8642,803,955
8643,803,953
8644,804,944
8645,808,942
8646,809,948
8647,810,956
8648,808,963
8649,804,952
8650,804,939
8651,806,934
8652,812,940
8653,811,952
8654,807,959
8655,804,954
8656,807,949
8657,808,943
8658,812,948
8659,813,958
8660,810,959
8661,808,950
8662,806,941
8663,807,938
8664,806,944
8665,806,958
8666,807,963
8667,809,959
8668,815,950
8669,815,951
8670,816,958
8671,813,966
8672,809,968
8673,804,959
8674,806,952
8675,806,953
8676,809,962
8677,809,971
8678,812,970
8679,812,963
8680,816,964
8681,820,970
8682,819,975
8683,817,977
8684,812,969
8685,812,958
8686,811,955
8687,813,966
8688,810,973
8689,814,971
8690,813,964
8691,819,958
8692,823,963
8693,826,969
8694,826,978
8695,822,976
8696,816,969
8697,816,955
8698,817,951
8699,820,957
8700,818,960
8701,817,965
8702,818,957
8703,821,949
8704,824,947
8705,829,957
8706,826,963
8707,826,959
8708,824,952
8709,822,938
8710,828,933
8711,828,938
8712,823,945
8713,824,944
8714,822,940
8715,824,928
8716,826,928
8717,824,935
8718,822,946
8719,820,952
8720,819,943
8721,817,932
8722,818,918
8723,820,924
8724,815,933
8725,814,938
8726,814,939
8727,814,929
8728,818,924
8729,822,929
8730,823,936
8731,822,938
8732,820,938
8733,813,923
8734,814,914
8735,815,916
8736,817,928
8737,814,935
8738,813,937
8739,814,925
8740,817,920
8741,820,925
8742,821,935
8743,817,941
8744,811,933
8745,813,920
8746,812,916
8747,813,924
8748,810,929
8749,807,931
8750,807,926
8751,810,922
8752,811,929
8753,811,938
8754,808,936
8755,808,928
8756,806,921
8757,804,920
8758,804,926
8759,801,935
8760,801,927
8761,796,920
8762,802,916
8763,807,922
8764,807,934
8765,807,944
8766,802,941
8767,802,930
8768,804,920
8769,802,918
8770,804,926
8771,801,934
8772,800,930
8773,799,920
8774,807,917
8775,808,926
8776,810,938
8777,808,943
8778,810,934
8779,808,923
8780,808,921
8781,811,924
8782,806,932
8783,805,933
8784,804,925
8785,808,912
8786,813,913
8787,815,926
8788,818,933
8789,820,939
8790,820,928
8791,821,923
8792,821,922
8793,825,928
8794,820,933
8795,821,932
8796,822,922
8797,825,914
8798,833,923
8799,844,931
8800,847,939
8801,847,939
8802,850,934
8803,850,931
8804,853,936
8805,851,942
8806,848,949
8807,845,944
8808,842,934
8809,847,925
8810,851,935
8811,847,942
8812,847,953
8813,844,948
8814,841,940
8815,837,934
8816,841,932
8817,839,941
8818,830,941
8819,824,928
8820,819,916
8821,816,911
8822,812,920
8823,811,928
8824,807,929
8825,807,923
8826,806,916
8827,809,916
8828,806,927
8829,799,931
8830,797,929
8831,796,919
8832,796,908
8833,801,912
8834,802,920
8835,802,932
8836,803,932
8837,801,922
8838,804,915
8839,805,913
8840,803,919
8841,799,924
8842,789,918
8843,777,910
8844,768,900
8845,762,904
8846,767,922
8847,775,941
8848,796,954
8849,823,960
8850,855,957
8851,897,964
8852,938,977
8853,975,983
8854,1008,985
8855,1041,971
8856,1069,955
8857,1099,944
8858,1115,935
8859,1123,922
8860,1124,898
8861,1117,869
8862,1114,857
8863,1103,869
8864,1089,895
8865,1069,923
8866,1030,944
8867,976,944
8868,915,927
8869,858,913
8870,818,910
8871,799,911
8872,793,910
8873,798,902
8874,815,901
8875,825,912
8876,828,925
8877,820,932
8878,809,930
8879,799,914
8880,794,902
8881,792,900
8882,792,913
8883,794,928
8884,792,933
8885,791,928
8886,793,921
8887,791,917
8888,795,923
8889,791,931
8890,789,932
8891,786,922
8892,789,919
8893,793,915
8894,796,928
8895,796,939
8896,796,937
8897,796,930
8898,801,925
8899,799,927
8900,799,938
8901,796,940
8902,793,934
8903,794,925
8904,793,924
8905,794,930
8906,795,941
8907,797,948
8908,798,943
8909,798,933
8910,802,928
8911,801,937
8912,803,946
8913,800,953
8914,796,956
8915,796,937
8916,798,929
8917,800,932
8918,805,944
8919,805,955
8920,802,960
8921,802,952
8922,809,941
8923,809,943
8924,806,950
8925,804,957
8926,802,956
8927,804,947
8928,804,940
8929,810,940
8930,813,954
8931,809,964
8932,809,966
8933,809,960
8934,811,951
8935,814,947
8936,818,948
8937,816,958
8938,813,961
8939,811,951
8940,807,941
8941,811,937
8942,816,942
8943,815,952
8944,813,953
8945,813,944
8946,817,935
8947,819,931
8948,822,938
8949,821,942
8950,819,937
8951,815,926
8952,815,918
8953,818,915
8954,817,925
8955,819,935
8956,816,934
8957,816,927
8958,819,914
8959,818,910
8960,822,919
8961,818,928
8962,811,923
8963,808,914
8964,807,904
8965,808,900
8966,810,905
8967,811,917
8968,810,921
8969,813,911
8970,814,907
8971,817,905
8972,818,911
8973,812,913
8974,810,906
8975,809,900
8976,809,898
8977,811,901
8978,813,913
8979,813,919
8980,812,915
8981,814,900
8982,814,898
8983,815,902
8984,815,915
8985,810,918
8986,805,911
8987,805,899
8988,807,894
8989,809,896
8990,809,910
8991,808,916
8992,803,910
8993,802,904
8994,804,893
8995,805,897
8996,805,906
8997,802,912
8998,802,911
8999,800,901
9000,803,893
9001,801,898
9002,800,909
9003,797,919
9004,793,918
9005,792,908
9006,792,897
9007,794,892
9008,801,903
9009,796,915
9010,797,917
9011,796,910
9012,795,898
9013,795,896
9014,802,905
9015,806,911
9016,808,915
9017,808,912
9018,811,905
9019,813,903
9020,814,913
9021,811,918
9022,810,919
9023,808,910
9024,813,896
9025,816,892
9026,820,898
9027,821,915
9028,825,927
9029,825,928
9030,822,913
9031,829,903
9032,835,906
9033,842,916
9034,841,925
9035,842,924
9036,844,918
9037,849,914
9038,855,921
9039,858,931
9040,857,940
9041,853,940
9042,850,931
9043,852,918
9044,854,920
9045,852,931
9046,842,935
9047,838,929
9048,837,916
9049,840,910
9050,847,920
9051,844,934
9052,841,938
9053,837,934
9054,836,920
9055,832,909
9056,826,906
9057,829,913
9058,823,922
9059,818,917
9060,816,905
9061,813,903
9062,817,903
9063,819,913
9064,816,922
9065,814,921
9066,814,913
9067,810,898
9068,810,897
9069,813,905
9070,812,913
9071,809,920
9072,808,911
9073,807,900
9074,808,896
9075,811,901
9076,807,911
9077,807,924
9078,799,922
9079,793,908
9080,787,899
9081,779,896
9082,774,906
9083,772,917
9084,777,923
9085,790,927
9086,818,932
9087,856,948
9088,898,970
9089,937,989
9090,979,992
9091,1010,988
9092,1045,979
9093,1077,978
9094,1105,977
9095,1125,965
9096,1138,938
9097,1143,903
9098,1142,876
9099,1139,874
9100,1132,893
9101,1112,920
9102,1085,944
9103,1045,951
9104,986,944
9105,925,935
9106,872,924
9107,830,915
9108,812,903
9109,804,892
9110,819,893
9111,834,905
9112,845,924
9113,844,936
9114,840,931
9115,832,921
9116,824,909
9117,815,913
9118,800,917
9119,791,920
9120,790,918
9121,787,909
9122,795,910
9123,806,922
9124,809,937
9125,811,943
9126,811,937
9127,813,928
9128,814,924
9129,812,927
9130,807,935
9131,801,932
9132,798,926
9133,800,920
9134,806,923
9135,812,936
9136,811,945
9137,809,949
9138,810,942
9139,809,933
9140,808,929
9141,811,937
9142,808,946
9143,802,940
9144,801,935
9145,803,927
9146,809,931
9147,810,943
9148,811,954
9149,810,960
9150,807,953
9151,811,941
9152,811,941
9153,813,941
9154,814,951
9155,807,951
9156,804,947
9157,805,937
9158,811,941
9159,819,952
9160,821,968
9161,822,972
9162,822,967
9163,819,954
9164,819,951
9165,820,954
9166,819,962
9167,811,965
9168,812,958
9169,814,949
9170,820,949
9171,819,957
9172,821,968
9173,817,971
9174,819,964
9175,819,953
9176,824,949
9177,828,952
9178,828,959
9179,827,963
9180,822,951
9181,822,939
9182,824,935
9183,829,944
9184,830,952
9185,832,959
9186,831,958
9187,833,946
9188,832,942
9189,836,947
9190,830,953
9191,827,949
9192,825,938
9193,825,927
9194,826,925
9195,826,937
9196,829,947
9197,824,948
9198,826,940
9199,830,928
9200,832,924
9201,833,928
9202,831,939
9203,830,936
9204,823,930
9205,819,919
9206,818,915
9207,825,925
9208,828,934
9209,824,941
9210,824,937
9211,826,926
9212,828,920
9213,829,924
9214,830,931
9215,824,938
9216,821,932
9217,819,921
9218,820,915
9219,826,921
9220,830,934
9221,827,944
9222,826,944
9223,821,933
9224,818,922
9225,821,921
9226,824,931
9227,823,936
9228,820,937
9229,815,926
9230,813,916
9231,820,917
9232,824,930
9233,821,936
9234,819,937
9235,817,933
9236,816,924
9237,820,924
9238,821,926
9239,818,933
9240,812,927
9241,803,921
9242,804,917
9243,807,925
9244,812,937
9245,814,947
9246,816,944
9247,818,935
9248,821,928
9249,829,928
9250,829,934
9251,822,942
9252,816,935
9253,810,926
9254,813,919
9255,820,927
9256,826,938
9257,827,944
9258,824,946
9259,828,931
9260,828,929
9261,829,926
9262,825,937
9263,825,940
9264,826,935
9265,832,928
9266,844,932
9267,848,941
