'sample #','MLII','V1'
0,972,982
1,972,982
2,972,982
3,972,982
4,972,982
5,972,982
6,972,982
7,972,982
8,972,985
9,974,987
10,976,989
11,979,990
12,982,988
13,984,988
14,984,986
15,984,990
16,988,988
17,990,987
18,993,987
19,991,986
20,990,985
21,989,985
22,990,989
23,991,991
24,992,992
25,990,983
26,989,972
27,987,965
28,989,965
29,990,973
30,991,976
31,989,975
32,984,972
33,983,965
34,982,964
35,982,966
36,982,968
37,979,967
38,976,967
39,974,969
40,975,971
41,975,975
42,974,975
43,973,973
44,970,973
45,966,975
46,963,978
47,962,981
48,963,984
49,963,986
50,962,984
51,962,987
52,962,988
53,965,991
54,964,989
55,960,992
56,959,993
57,959,998
58,960,999
59,963,996
60,966,993
61,965,993
62,966,992
63,963,996
64,965,1000
65,967,1006
66,965,1001
67,965,998
68,964,997
69,963,999
70,967,1004
71,967,1007
72,968,1005
73,967,1002
74,966,1001
75,965,1005
76,965,1007
77,968,1009
78,969,1011
79,971,1011
80,973,1007
81,972,1007
82,975,1004
83,977,1003
84,977,1002
85,976,996
86,976,993
87,973,991
88,974,989
89,975,986
90,975,984
91,973,982
92,972,978
93,971,980
94,972,981
95,970,983
96,969,985
97,966,983
98,964,978
99,963,977
100,962,980
101,963,981
102,966,977
103,967,972
104,964,971
105,964,971
106,965,975
107,967,979
108,967,980
109,968,978
110,966,972
111,963,972
112,964,975
113,964,978
114,963,979
115,961,977
116,957,978
117,955,984
118,956,990
119,958,993
120,959,995
121,959,995
122,958,991
123,959,989
124,961,989
125,964,993
126,963,994
127,961,995
128,957,1000
129,957,1004
130,959,1009
131,962,1008
132,963,1002
133,960,995
134,958,990
135,958,990
136,962,994
137,963,996
138,962,997
139,960,997
140,957,997
141,958,1001
142,961,1009
143,963,1014
144,971,1014
145,976,1006
146,982,990
147,986,977
148,990,964
149,998,953
150,1008,936
151,1025,917
152,1044,896
153,1061,876
154,1085,856
155,1110,850
156,1140,852
157,1165,855
158,1177,861
159,1191,873
160,1202,899
161,1198,927
162,1174,952
163,1139,969
164,1099,973
165,1054,972
166,1018,968
167,998,968
168,988,971
169,980,973
170,978,978
171,977,983
172,981,989
173,981,989
174,980,992
175,977,989
176,973,989
177,971,991
178,969,995
179,969,999
180,965,1002
181,964,1006
182,963,1010
183,962,1014
184,964,1017
185,961,1020
186,959,1009
187,955,990
188,957,973
189,956,970
190,960,976
191,965,984
192,967,986
193,965,987
194,961,987
195,960,987
196,959,989
197,959,992
198,959,994
199,957,995
200,959,993
201,957,995
202,960,1001
203,960,1003
204,962,1005
205,962,1008
206,964,1007
207,968,1008
208,973,1010
209,977,1011
210,982,1010
211,983,1008
212,984,1008
213,983,1010
214,981,1010
215,985,1015
216,985,1012
217,983,1001
218,982,989
219,981,988
220,982,992
221,985,994
222,989,986
223,991,978
224,989,977
225,991,978
226,992,982
227,992,982
228,992,983
229,991,980
230,990,973
231,987,964
232,984,961
233,986,959
234,988,960
235,989,959
236,991,961
237,989,965
238,990,966
239,991,972
240,990,972
241,989,972
242,986,973
243,985,975
244,983,982
245,985,991
246,982,992
247,983,989
248,981,985
249,979,985
250,979,995
251,980,1003
252,978,1002
253,974,994
254,971,997
255,966,1012
256,967,1025
257,969,1030
258,969,1018
259,964,996
260,958,982
261,957,978
262,962,982
263,968,991
264,971,997
265,973,1001
266,974,1000
267,973,1006
268,970,1008
269,972,1009
270,974,1009
271,976,1006
272,976,1005
273,976,1008
274,981,1009
275,981,1016
276,980,1013
277,977,1008
278,976,1000
279,972,994
280,973,999
281,973,1000
282,972,999
283,973,1001
284,972,1002
285,971,1007
286,973,1011
287,973,1006
288,971,995
289,970,980
290,969,978
291,968,979
292,971,984
293,970,990
294,971,996
295,969,993
296,969,986
297,966,979
298,965,975
299,964,973
300,966,974
301,965,975
302,963,976
303,961,980
304,961,987
305,962,992
306,963,994
307,963,992
308,965,991
309,960,992
310,958,996
311,958,998
312,958,1000
313,957,1008
314,954,1017
315,956,1023
316,959,1025
317,963,1028
318,965,1035
319,964,1033
320,960,1020
321,954,1011
322,952,1015
323,955,1026
324,961,1027
325,966,1018
326,966,1007
327,965,994
328,957,991
329,957,989
330,960,990
331,965,990
332,966,990
333,967,989
334,969,991
335,968,994
336,970,998
337,971,1001
338,967,1006
339,967,1010
340,970,1012
341,969,1010
342,966,1010
343,964,1014
344,962,1009
345,961,994
346,960,981
347,963,975
348,966,984
349,968,995
350,967,1001
351,966,1004
352,966,997
353,966,984
354,965,976
355,963,974
356,962,973
357,966,974
358,970,977
359,973,984
360,974,991
361,968,992
362,961,989
363,954,984
364,951,988
365,952,991
366,955,996
367,957,998
368,955,999
369,959,1007
370,962,1010
371,965,1013
372,964,1019
373,967,1032
374,970,1048
375,971,1054
376,972,1044
377,966,1030
378,966,1015
379,967,1002
380,971,996
381,971,999
382,976,1006
383,978,1001
384,976,987
385,970,977
386,968,973
387,967,977
388,970,978
389,975,979
390,979,982
391,981,981
392,981,978
393,977,978
394,975,981
395,973,984
396,972,985
397,969,986
398,965,988
399,964,995
400,968,998
401,971,999
402,977,993
403,982,976
404,985,954
405,988,935
406,1000,915
407,1016,898
408,1044,877
409,1071,855
410,1094,843
411,1119,853
412,1148,876
413,1171,902
414,1194,915
415,1213,923
416,1220,938
417,1202,964
418,1168,995
419,1124,1020
420,1078,1037
421,1033,1042
422,1000,1026
423,975,1005
424,958,992
425,954,989
426,964,989
427,977,989
428,983,979
429,985,975
430,984,977
431,985,984
432,984,986
433,982,983
434,981,980
435,978,981
436,977,979
437,978,978
438,980,980
439,979,976
440,976,974
441,974,974
442,977,977
443,976,978
444,975,977
445,975,976
446,973,972
447,973,975
448,973,977
449,974,980
450,974,985
451,974,985
452,976,986
453,976,989
454,977,986
455,980,983
456,979,970
457,978,959
458,980,960
459,983,970
460,986,975
461,988,977
462,988,970
463,987,961
464,981,954
465,982,957
466,988,963
467,991,965
468,996,967
469,999,970
470,998,971
471,1000,973
472,1000,975
473,1002,977
474,1002,976
475,1003,975
476,1004,973
477,1005,972
478,1006,976
479,1007,975
480,1009,974
481,1007,972
482,1007,969
483,1006,972
484,1011,973
485,1014,977
486,1015,977
487,1013,976
488,1012,968
489,1012,963
490,1015,961
491,1015,964
492,1019,966
493,1019,966
494,1018,960
495,1019,957
496,1019,955
497,1022,954
498,1023,954
499,1024,952
500,1022,953
501,1023,955
502,1023,960
503,1022,963
504,1021,966
505,1018,963
506,1014,964
507,1009,966
508,1012,968
509,1010,973
510,1010,973
511,1008,972
512,1006,971
513,1002,970
514,1006,975
515,1005,978
516,1005,982
517,1002,983
518,996,980
519,995,981
520,992,982
521,995,982
522,993,982
523,994,983
524,992,984
525,992,983
526,992,982
527,994,985
528,996,985
529,994,986
530,993,985
531,990,987
532,994,987
533,996,991
534,999,992
535,998,990
536,996,989
537,993,989
538,996,992
539,999,992
540,998,989
541,997,987
542,995,985
543,993,987
544,995,986
545,998,988
546,999,987
547,997,983
548,997,981
549,997,984
550,999,991
551,1002,992
552,1002,992
553,1005,993
554,1001,991
555,1001,991
556,1002,988
557,1005,987
558,1003,988
559,1001,991
560,998,992
561,997,988
562,999,987
563,998,983
564,999,983
565,996,983
566,994,982
567,994,983
568,995,985
569,997,983
570,997,978
571,993,975
572,992,975
573,989,977
574,993,983
575,994,985
576,993,985
577,992,984
578,989,981
579,989,985
580,992,989
581,992,988
582,992,990
583,992,988
584,992,987
585,990,987
586,993,990
587,995,989
588,993,986
589,989,985
590,990,982
591,990,982
592,993,983
593,996,985
594,995,983
595,992,979
596,988,978
597,988,977
598,989,980
599,993,982
600,993,981
601,993,979
602,993,978
603,991,981
604,992,984
605,995,984
606,995,985
607,993,983
608,994,982
609,993,987
610,996,988
611,997,988
612,997,984
613,994,980
614,992,978
615,989,984
616,991,986
617,995,990
618,996,990
619,993,984
620,989,982
621,986,984
622,989,985
623,991,985
624,992,984
625,988,984
626,985,985
627,984,988
628,987,991
629,989,993
630,988,990
631,987,985
632,986,981
633,986,984
634,988,982
635,988,989
636,990,990
637,991,989
638,988,988
639,986,990
640,990,995
641,992,997
642,991,995
643,989,993
644,989,988
645,989,987
646,990,989
647,990,991
648,990,990
649,989,986
650,988,985
651,986,986
652,990,986
653,992,988
654,993,984
655,992,981
656,990,980
657,991,982
658,994,984
659,997,984
660,995,984
661,990,983
662,987,977
663,987,977
664,991,980
665,990,979
666,992,980
667,990,977
668,988,979
669,985,985
670,988,995
671,996,1006
672,999,1002
673,1003,986
674,1005,958
675,1009,938
676,1017,924
677,1029,915
678,1047,902
679,1068,883
680,1089,861
681,1112,847
682,1141,843
683,1166,855
684,1188,868
685,1207,883
686,1225,900
687,1235,926
688,1232,953
689,1211,976
690,1176,995
691,1135,1005
692,1090,1008
693,1051,1004
694,1024,996
695,1005,989
696,993,984
697,985,982
698,986,982
699,993,983
700,1001,989
701,1003,990
702,1003,990
703,998,989
704,995,987
705,991,986
706,991,989
707,992,989
708,992,990
709,990,986
710,986,981
711,986,984
712,988,981
713,990,979
714,989,977
715,987,972
716,988,966
717,986,966
718,987,969
719,989,971
720,989,971
721,990,972
722,989,970
723,987,973
724,988,978
725,993,979
726,994,980
727,992,978
728,991,977
729,990,977
730,992,979
731,995,979
732,993,977
733,992,976
734,990,973
735,991,975
736,992,978
737,994,977
738,995,977
739,995,976
740,994,973
741,993,976
742,995,979
743,996,979
744,997,979
745,995,978
746,995,977
747,994,979
748,997,982
749,1000,983
750,999,983
751,999,979
752,997,978
753,996,981
754,999,982
755,1001,983
756,998,983
757,999,979
758,997,972
759,998,973
760,999,975
761,1003,980
762,1004,979
763,1004,979
764,1006,977
765,1008,977
766,1013,977
767,1016,977
768,1018,975
769,1016,976
770,1015,974
771,1016,976
772,1019,976
773,1020,976
774,1022,979
775,1021,978
776,1019,978
777,1017,979
778,1019,979
779,1018,983
780,1016,983
781,1013,982
782,1009,982
783,1007,985
784,1007,989
785,1009,991
786,1006,990
787,1004,988
788,998,987
789,997,990
790,996,996
791,996,998
792,995,997
793,994,994
794,991,986
795,990,983
796,991,982
797,993,983
798,990,987
799,990,988
800,989,988
801,989,991
802,990,992
803,993,995
804,992,995
805,991,992
806,989,991
807,990,992
808,992,994
809,992,995
810,990,993
811,990,991
812,986,988
813,987,991
814,986,992
815,987,994
816,986,990
817,987,988
818,985,985
819,984,984
820,985,982
821,985,984
822,987,983
823,988,981
824,988,979
825,991,981
826,990,985
827,992,984
828,991,987
829,992,982
830,992,978
831,992,983
832,994,986
833,996,987
834,995,985
835,995,983
836,992,983
837,989,985
838,991,987
839,992,988
840,991,985
841,989,983
842,990,973
843,987,975
844,989,977
845,990,980
846,989,980
847,988,980
848,985,976
849,985,977
850,987,974
851,988,975
852,991,975
853,988,977
854,986,974
855,985,977
856,985,980
857,987,983
858,988,984
859,986,984
860,985,981
861,982,984
862,985,987
863,986,988
864,986,988
865,983,988
866,986,988
867,982,990
868,986,993
869,986,994
870,985,996
871,983,996
872,983,993
873,981,995
874,982,997
875,985,998
876,985,996
877,983,997
878,983,995
879,981,996
880,980,1001
881,982,1004
882,980,1003
883,980,997
884,978,992
885,980,993
886,984,995
887,987,997
888,991,997
889,994,994
890,996,987
891,1000,973
892,1004,957
893,1007,940
894,1012,929
895,1024,916
896,1039,902
897,1057,888
898,1078,866
899,1097,848
900,1119,833
901,1144,828
902,1162,837
903,1178,848
904,1194,864
905,1206,884
906,1206,913
907,1191,937
908,1169,951
909,1142,968
910,1110,975
911,1074,975
912,1044,972
913,1024,969
914,1011,969
915,1003,975
916,1000,977
917,1001,980
918,1003,983
919,1002,982
920,997,983
921,993,985
922,991,986
923,990,987
924,991,985
925,988,986
926,985,986
927,984,987
928,984,989
929,984,988
930,982,984
931,981,983
932,982,984
933,981,986
934,981,990
935,982,989
936,979,990
937,979,990
938,976,989
939,976,991
940,975,992
941,976,997
942,976,995
943,974,992
944,972,992
945,972,992
946,974,992
947,973,993
948,973,991
949,971,988
950,969,986
951,966,985
952,967,989
953,967,989
954,965,990
955,962,987
956,961,983
957,964,982
958,971,983
959,974,984
960,977,981
961,977,981
962,977,978
963,979,982
964,983,980
965,988,983
966,990,980
967,990,980
968,989,978
969,988,978
970,991,977
971,995,975
972,994,972
973,995,969
974,997,970
975,996,968
976,996,975
977,997,973
978,999,972
979,999,972
980,1000,971
981,1001,973
982,1001,972
983,1003,973
984,1004,974
985,1003,970
986,1003,970
987,1002,971
988,1004,975
989,1005,973
990,1007,969
991,1004,971
992,1004,969
993,1003,973
994,1005,972
995,1006,974
996,1005,972
997,1003,975
998,1001,973
999,999,974
1000,1000,976
1001,1000,982
1002,996,982
1003,994,982
1004,989,984
1005,987,986
1006,987,988
1007,986,986
1008,982,986
1009,980,983
1010,978,985
1011,978,984
1012,976,987
1013,973,984
1014,972,982
1015,967,983
1016,964,982
1017,966,981
1018,968,978
1019,968,978
1020,971,979
1021,967,978
1022,972,981
1023,979,984
1024,984,984
1025,988,984
1026,991,984
1027,992,984
1028,990,988
1029,992,991
1030,993,990
1031,993,990
1032,993,989
1033,992,986
1034,992,990
1035,994,992
1036,994,994
1037,993,993
1038,991,991
1039,989,990
1040,988,991
1041,992,993
1042,992,994
1043,994,992
1044,991,988
1045,991,987
1046,991,988
1047,990,988
1048,991,990
1049,990,990
1050,988,990
1051,988,986
1052,988,989
1053,990,992
1054,990,993
1055,987,992
1056,984,990
1057,980,986
1058,980,987
1059,980,988
1060,982,990
1061,981,990
1062,979,990
1063,976,989
1064,975,994
1065,977,997
1066,978,996
1067,975,992
1068,971,989
1069,968,985
1070,967,983
1071,967,983
1072,968,981
1073,965,977
1074,963,972
1075,963,968
1076,962,970
1077,965,973
1078,967,976
1079,969,977
1080,971,978
1081,971,978
1082,974,981
1083,979,986
1084,985,987
1085,986,986
1086,985,984
1087,984,983
1088,982,985
1089,982,991
1090,984,997
1091,984,1000
1092,983,1000
1093,981,994
1094,981,987
1095,985,982
1096,984,982
1097,988,979
1098,986,978
1099,986,977
1100,985,982
1101,985,984
1102,985,985
1103,983,986
1104,984,985
1105,982,983
1106,981,987
1107,982,988
1108,983,989
1109,983,990
1110,982,987
1111,979,983
1112,980,987
1113,981,989
1114,983,991
1115,981,990
1116,978,988
1117,978,987
1118,978,990
1119,978,993
1120,978,992
1121,977,994
1122,974,992
1123,971,989
1124,972,989
1125,973,991
1126,974,990
1127,973,987
1128,971,985
1129,969,983
1130,967,983
1131,969,985
1132,970,989
1133,972,989
1134,969,989
1135,968,988
1136,969,989
1137,971,989
1138,974,991
1139,976,993
1140,978,991
1141,980,990
1142,982,992
1143,986,987
1144,988,984
1145,989,980
1146,986,976
1147,988,975
1148,989,975
1149,989,977
1150,990,977
1151,989,978
1152,988,976
1153,987,974
1154,986,975
1155,988,979
1156,989,978
1157,989,978
1158,989,977
1159,984,976
1160,986,977
1161,989,980
1162,990,979
1163,989,979
1164,987,979
1165,988,976
1166,987,978
1167,991,978
1168,992,981
1169,990,985
1170,989,985
1171,988,985
1172,988,989
1173,993,992
1174,997,989
1175,999,978
1176,1004,960
1177,1005,942
1178,1008,930
1179,1017,917
1180,1031,907
1181,1051,895
1182,1072,876
1183,1092,857
1184,1117,848
1185,1146,852
1186,1171,864
1187,1193,881
1188,1212,893
1189,1226,908
1190,1229,934
1191,1212,959
1192,1179,982
1193,1134,1000
1194,1086,1008
1195,1044,1009
1196,1016,1003
1197,997,997
1198,982,989
1199,968,983
1200,961,980
1201,963,979
1202,970,983
1203,977,985
1204,978,988
1205,978,987
1206,977,983
1207,975,980
1208,975,984
1209,975,986
1210,976,983
1211,974,982
1212,974,977
1213,974,976
1214,975,975
1215,977,978
1216,979,981
1217,980,979
1218,978,976
1219,976,975
1220,974,974
1221,975,977
1222,977,979
1223,977,979
1224,974,978
1225,974,977
1226,974,978
1227,977,979
1228,976,981
1229,977,982
1230,978,976
1231,975,975
1232,974,977
1233,977,975
1234,977,977
1235,977,975
1236,978,974
1237,977,973
1238,977,973
1239,980,972
1240,981,973
1241,981,976
1242,979,973
1243,978,971
1244,979,969
1245,981,972
1246,982,972
1247,983,972
1248,982,973
1249,981,972
1250,982,974
1251,985,977
1252,989,979
1253,990,980
1254,989,980
1255,990,979
1256,987,982
1257,993,984
1258,993,984
1259,993,982
1260,993,980
1261,994,977
1262,996,979
1263,997,980
1264,997,981
1265,998,980
1266,996,976
1267,997,973
1268,997,972
1269,998,974
1270,998,976
1271,998,977
1272,997,975
1273,998,974
1274,1001,976
1275,1006,979
1276,1010,976
1277,1011,973
1278,1011,970
1279,1008,966
1280,1007,965
1281,1011,963
1282,1011,961
1283,1011,961
1284,1008,961
1285,1008,958
1286,1008,962
1287,1007,962
1288,1009,963
1289,1007,964
1290,1003,965
1291,1000,965
1292,998,966
1293,1000,970
1294,999,969
1295,997,974
1296,996,975
1297,993,970
1298,991,970
1299,990,973
1300,990,971
1301,991,971
1302,989,970
1303,986,969
1304,983,975
1305,983,978
1306,986,978
1307,983,979
1308,983,978
1309,982,978
1310,982,977
1311,985,982
1312,985,987
1313,985,988
1314,984,990
1315,980,988
1316,977,989
1317,981,991
1318,986,989
1319,988,988
1320,988,988
1321,985,987
1322,984,989
1323,986,991
1324,990,993
1325,992,989
1326,991,987
1327,988,984
1328,989,989
1329,992,989
1330,992,992
1331,991,990
1332,989,986
1333,985,986
1334,984,988
1335,984,991
1336,985,995
1337,984,994
1338,983,992
1339,979,990
1340,978,994
1341,980,996
1342,986,997
1343,988,993
1344,987,990
1345,986,986
1346,984,986
1347,986,985
1348,988,987
1349,988,984
1350,987,982
1351,983,977
1352,982,979
1353,983,980
1354,982,979
1355,981,977
1356,980,972
1357,976,970
1358,975,971
1359,976,973
1360,980,974
1361,980,974
1362,981,972
1363,979,972
1364,978,975
1365,979,978
1366,979,979
1367,980,980
1368,979,980
1369,976,975
1370,975,976
1371,979,979
1372,980,982
1373,981,979
1374,982,980
1375,981,978
1376,977,980
1377,981,983
1378,981,984
1379,982,985
1380,981,984
1381,981,984
1382,980,985
1383,981,986
1384,983,988
1385,986,986
1386,985,986
1387,986,984
1388,983,985
1389,987,987
1390,988,987
1391,987,988
1392,986,984
1393,985,984
1394,983,983
1395,981,985
1396,983,985
1397,982,987
1398,982,986
1399,979,985
1400,981,990
1401,983,990
1402,983,992
1403,983,993
1404,980,996
1405,976,995
1406,976,999
1407,981,999
1408,984,996
1409,988,981
1410,994,960
1411,998,939
1412,1008,924
1413,1023,906
1414,1047,893
1415,1070,872
1416,1087,849
1417,1105,834
1418,1127,828
1419,1154,838
1420,1172,848
1421,1186,860
1422,1202,875
1423,1209,899
1424,1201,929
1425,1177,955
1426,1152,971
1427,1116,980
1428,1075,981
1429,1041,975
1430,1019,973
1431,1007,972
1432,997,978
1433,993,980
1434,995,979
1435,996,979
1436,998,981
1437,1000,983
1438,998,984
1439,993,984
1440,990,983
1441,987,982
1442,984,984
1443,981,983
1444,984,986
1445,983,985
1446,983,983
1447,980,983
1448,979,982
1449,979,986
1450,983,989
1451,981,987
1452,981,985
1453,979,983
1454,979,986
1455,979,988
1456,981,988
1457,981,989
1458,979,989
1459,977,986
1460,974,989
1461,976,989
1462,977,990
1463,978,992
1464,977,989
1465,977,990
1466,974,991
1467,974,992
1468,973,993
1469,974,991
1470,973,992
1471,971,989
1472,970,992
1473,971,993
1474,975,995
1475,975,994
1476,976,993
1477,976,990
1478,976,990
1479,977,987
1480,979,985
1481,982,985
1482,980,984
1483,979,981
1484,980,981
1485,984,981
1486,987,982
1487,991,979
1488,991,974
1489,990,971
1490,994,975
1491,995,975
1492,997,977
1493,997,976
1494,999,975
1495,997,971
1496,997,973
1497,996,975
1498,999,975
1499,1000,976
1500,998,975
1501,996,969
1502,994,970
1503,996,972
1504,1001,975
1505,1003,975
1506,1001,973
1507,1001,972
1508,999,972
1509,1001,975
1510,1002,977
1511,999,977
1512,996,975
1513,994,976
1514,993,975
1515,992,978
1516,990,981
1517,990,982
1518,987,982
1519,984,981
1520,980,983
1521,979,984
1522,979,986
1523,977,987
1524,976,984
1525,973,985
1526,971,986
1527,969,987
1528,970,989
1529,970,988
1530,969,989
1531,967,989
1532,966,990
1533,966,991
1534,968,992
1535,965,991
1536,965,992
1537,963,992
1538,963,994
1539,962,999
1540,966,1001
1541,969,1002
1542,972,1001
1543,971,997
1544,974,997
1545,979,997
1546,981,997
1547,984,991
1548,986,985
1549,984,986
1550,986,988
1551,990,989
1552,993,988
1553,994,983
1554,993,983
1555,990,981
1556,991,983
1557,993,985
1558,994,985
1559,993,985
1560,992,983
1561,989,982
1562,990,980
1563,991,984
1564,990,986
1565,989,984
1566,991,982
1567,991,982
1568,988,984
1569,987,986
1570,990,986
1571,987,985
1572,986,980
1573,984,979
1574,983,980
1575,983,984
1576,981,984
1577,982,985
1578,981,984
1579,980,980
1580,978,982
1581,979,984
1582,980,988
1583,980,986
1584,979,983
1585,977,982
1586,974,983
1587,975,987
1588,976,987
1589,974,987
1590,972,985
1591,969,983
1592,966,983
1593,966,983
1594,967,985
1595,966,983
1596,964,982
1597,963,979
1598,961,981
1599,962,982
1600,962,986
1601,964,988
1602,960,990
1603,961,990
1604,960,994
1605,962,997
1606,967,994
1607,973,979
1608,982,961
1609,989,944
1610,997,932
1611,1009,923
1612,1026,914
1613,1042,901
1614,1056,883
1615,1070,859
1616,1087,844
1617,1108,835
1618,1129,839
1619,1144,847
1620,1156,858
1621,1167,874
1622,1169,902
1623,1164,933
1624,1148,960
1625,1124,973
1626,1089,977
1627,1051,973
1628,1020,971
1629,1005,971
1630,997,976
1631,989,979
1632,982,980
1633,980,982
1634,981,987
1635,983,989
1636,981,988
1637,979,987
1638,974,988
1639,971,987
1640,969,989
1641,969,990
1642,968,993
1643,970,992
1644,967,992
1645,965,990
1646,964,992
1647,964,993
1648,965,994
1649,964,990
1650,960,989
1651,960,986
1652,961,987
1653,964,992
1654,964,991
1655,962,988
1656,962,987
1657,958,985
1658,960,985
1659,961,989
1660,961,988
1661,961,985
1662,960,981
1663,959,977
1664,961,979
1665,960,981
1666,964,980
1667,966,980
1668,964,975
1669,962,973
1670,961,976
1671,964,977
1672,966,976
1673,964,976
1674,965,975
1675,966,973
1676,968,976
1677,973,975
1678,978,978
1679,979,976
1680,977,972
1681,975,970
1682,977,974
1683,980,975
1684,981,975
1685,981,976
1686,979,976
1687,979,974
1688,982,978
1689,984,980
1690,985,979
1691,986,977
1692,985,975
1693,986,972
1694,985,975
1695,986,980
1696,990,981
1697,989,979
1698,991,977
1699,992,975
1700,994,976
1701,998,980
1702,998,981
1703,997,981
1704,998,980
1705,997,982
1706,996,984
1707,999,984
1708,1001,987
1709,1000,984
1710,997,986
1711,994,984
1712,992,985
1713,992,986
1714,991,987
1715,989,989
1716,984,984
1717,982,983
1718,979,986
1719,981,987
1720,982,987
1721,981,986
1722,975,983
1723,972,981
1724,972,982
1725,969,984
1726,971,984
1727,969,981
1728,967,978
1729,965,974
1730,964,977
1731,965,980
1732,967,981
1733,966,979
1734,966,975
1735,965,972
1736,967,973
1737,968,977
1738,972,984
1739,970,987
1740,970,985
1741,967,981
1742,967,982
1743,969,983
1744,970,984
1745,969,985
1746,967,985
1747,964,981
1748,964,983
1749,966,985
1750,969,987
1751,967,987
1752,966,986
1753,965,985
1754,967,986
1755,970,990
1756,971,992
1757,969,992
1758,969,993
1759,968,991
1760,969,994
1761,969,994
1762,972,994
1763,972,992
1764,969,988
1765,966,987
1766,969,991
1767,972,995
1768,973,994
1769,973,994
1770,971,995
1771,970,995
1772,972,997
1773,970,1000
1774,971,1002
1775,972,1001
1776,968,999
1777,965,997
1778,969,998
1779,971,1003
1780,973,1003
1781,972,1000
1782,968,995
1783,964,996
1784,965,995
1785,966,997
1786,968,993
1787,966,993
1788,965,989
1789,963,983
1790,965,983
1791,965,983
1792,969,985
1793,967,984
1794,966,979
1795,965,974
1796,965,975
1797,968,977
1798,968,980
1799,968,979
1800,968,978
1801,968,974
1802,967,977
1803,971,980
1804,973,980
1805,971,979
1806,969,976
1807,966,975
1808,963,977
1809,967,984
1810,968,987
1811,968,985
1812,967,982
1813,966,978
1814,963,977
1815,966,978
1816,969,979
1817,969,979
1818,968,980
1819,967,978
1820,966,978
1821,966,980
1822,970,980
1823,968,979
1824,969,980
1825,967,980
1826,966,981
1827,969,985
1828,971,988
1829,969,988
1830,971,989
1831,970,988
1832,970,989
1833,971,991
1834,972,989
1835,970,991
1836,970,989
1837,967,989
1838,965,991
1839,966,992
1840,966,991
1841,966,994
1842,964,992
1843,963,991
1844,962,991
1845,962,989
1846,962,991
1847,962,990
1848,963,988
1849,961,989
1850,961,990
1851,961,991
1852,962,992
1853,962,993
1854,960,990
1855,960,986
1856,959,987
1857,960,992
1858,961,991
1859,959,989
1860,960,984
1861,957,982
1862,960,984
1863,964,986
1864,966,987
1865,968,987
1866,973,984
1867,970,981
1868,971,980
1869,971,979
1870,973,977
1871,970,977
1872,970,973
1873,967,970
1874,968,973
1875,969,974
1876,970,975
1877,968,974
1878,967,973
1879,966,971
1880,964,969
1881,964,972
1882,964,973
1883,965,974
1884,965,971
1885,964,971
1886,961,974
1887,963,976
1888,964,978
1889,967,979
1890,966,979
1891,965,977
1892,962,977
1893,964,978
1894,966,979
1895,966,979
1896,965,976
1897,964,978
1898,964,979
1899,964,983
1900,964,985
1901,962,984
1902,963,982
1903,961,980
1904,961,982
1905,961,983
1906,962,985
1907,964,984
1908,963,981
1909,962,981
1910,962,982
1911,965,986
1912,965,989
1913,965,988
1914,965,986
1915,964,986
1916,966,988
1917,967,989
1918,970,991
1919,969,991
1920,970,990
1921,968,988
1922,969,988
1923,970,988
1924,969,993
1925,967,992
1926,969,992
1927,969,988
1928,970,985
1929,970,983
1930,971,985
1931,970,986
1932,971,985
1933,972,985
1934,973,982
1935,978,982
1936,980,980
1937,979,979
1938,976,976
1939,975,974
1940,976,975
1941,975,976
1942,977,976
1943,978,979
1944,979,975
1945,980,972
1946,979,976
1947,983,981
1948,984,983
1949,984,983
1950,986,981
1951,988,974
1952,996,966
1953,999,948
1954,1002,930
1955,1008,916
1956,1015,899
1957,1030,886
1958,1049,869
1959,1073,853
1960,1094,834
1961,1117,827
1962,1137,828
1963,1156,839
1964,1172,855
1965,1188,870
1966,1201,892
1967,1199,919
1968,1174,945
1969,1140,965
1970,1098,984
1971,1057,992
1972,1023,991
1973,999,979
1974,983,969
1975,970,965
1976,966,969
1977,967,976
1978,975,978
1979,980,979
1980,980,979
1981,978,980
1982,975,983
1983,975,986
1984,972,988
1985,972,988
1986,966,986
1987,967,985
1988,963,987
1989,964,990
1990,964,988
1991,961,989
1992,957,986
1993,957,986
1994,954,986
1995,952,989
1996,953,992
1997,950,995
1998,950,991
1999,952,991
2000,957,993
2001,964,992
2002,967,992
2003,968,989
2004,969,986
2005,967,983
2006,965,982
2007,966,977
2008,967,973
2009,969,967
2010,967,963
2011,967,960
2012,968,962
2013,967,965
2014,969,965
2015,968,966
2016,970,966
2017,971,963
2018,973,963
2019,974,965
2020,976,966
2021,977,965
2022,975,961
2023,974,960
2024,975,965
2025,978,965
2026,983,968
2027,983,966
2028,984,963
2029,982,961
2030,983,963
2031,983,964
2032,984,966
2033,983,965
2034,982,965
2035,983,962
2036,981,964
2037,983,965
2038,988,967
2039,989,966
2040,988,967
2041,988,968
2042,989,969
2043,990,971
2044,991,970
2045,989,966
2046,988,965
2047,986,962
2048,988,965
2049,992,967
2050,993,968
2051,993,966
2052,994,965
2053,994,962
2054,996,961
2055,997,963
2056,998,965
2057,999,967
2058,996,966
2059,994,965
2060,993,969
2061,994,970
2062,993,974
2063,993,974
2064,991,976
2065,990,976
2066,991,978
2067,996,977
2068,996,972
2069,996,968
2070,994,964
2071,990,961
2072,992,962
2073,989,967
2074,990,968
2075,989,968
2076,986,965
2077,983,965
2078,980,967
2079,982,968
2080,984,970
2081,984,970
2082,982,968
2083,981,970
2084,980,971
2085,982,976
2086,983,977
2087,984,979
2088,981,975
2089,982,976
2090,982,979
2091,984,983
2092,984,982
2093,983,982
2094,981,981
2095,980,980
2096,979,981
2097,979,985
2098,981,986
2099,979,984
2100,978,985
2101,975,986
2102,977,990
2103,979,992
2104,979,992
2105,978,989
2106,978,985
2107,978,986
2108,980,989
2109,981,991
2110,983,993
2111,982,991
2112,980,989
2113,978,985
2114,975,984
2115,977,984
2116,976,984
2117,973,986
2118,971,986
2119,968,985
2120,967,985
2121,968,985
2122,969,987
2123,968,986
2124,969,983
2125,969,983
2126,971,983
2127,973,984
2128,974,985
2129,973,984
2130,972,980
2131,971,979
2132,972,976
2133,975,976
2134,974,976
2135,976,978
2136,975,979
2137,973,981
2138,971,982
2139,976,980
2140,976,976
2141,976,975
2142,977,974
2143,976,972
2144,976,975
2145,975,977
2146,976,976
2147,975,977
2148,973,975
2149,972,974
2150,972,979
2151,973,980
2152,975,984
2153,975,985
2154,976,984
2155,973,984
2156,971,988
2157,972,992
2158,971,995
2159,973,994
2160,972,994
2161,972,992
2162,970,987
2163,972,986
2164,972,986
2165,971,986
2166,969,985
2167,965,985
2168,964,985
2169,965,987
2170,967,988
2171,966,987
2172,965,984
2173,959,984
2174,958,988
2175,959,990
2176,960,992
2177,960,993
2178,962,991
2179,958,988
2180,957,990
2181,963,992
2182,967,990
2183,970,989
2184,969,985
2185,966,982
2186,967,987
2187,969,987
2188,971,989
2189,972,986
2190,971,984
2191,969,981
2192,970,984
2193,972,986
2194,974,986
2195,975,982
2196,975,982
2197,973,978
2198,976,980
2199,977,982
2200,978,983
2201,977,982
2202,976,983
2203,975,982
2204,975,983
2205,977,985
2206,979,987
2207,977,986
2208,976,987
2209,975,984
2210,974,988
2211,977,990
2212,979,988
2213,978,985
2214,977,981
2215,977,982
2216,977,985
2217,976,990
2218,976,993
2219,977,992
2220,978,994
2221,977,994
2222,980,994
2223,981,994
2224,986,987
2225,991,966
2226,994,942
2227,998,921
2228,1007,904
2229,1028,889
2230,1053,869
2231,1075,848
2232,1097,832
2233,1119,833
2234,1143,848
2235,1165,868
2236,1186,888
2237,1197,910
2238,1196,939
2239,1175,962
2240,1139,981
2241,1096,999
2242,1055,1007
2243,1019,1002
2244,991,990
2245,970,980
2246,962,978
2247,964,982
2248,972,985
2249,983,984
2250,986,981
2251,985,980
2252,981,981
2253,980,982
2254,981,985
2255,979,985
2256,977,982
2257,975,983
2258,973,986
2259,976,988
2260,978,986
2261,976,986
2262,973,982
2263,972,981
2264,969,979
2265,971,981
2266,973,983
2267,974,983
2268,971,982
2269,969,977
2270,968,979
2271,970,982
2272,971,981
2273,969,981
2274,967,976
2275,964,976
2276,965,976
2277,968,977
2278,969,980
2279,969,980
2280,969,977
2281,966,976
2282,968,977
2283,969,980
2284,971,983
2285,970,980
2286,969,977
2287,967,976
2288,968,977
2289,970,979
2290,972,977
2291,972,977
2292,972,976
2293,970,975
2294,971,979
2295,974,981
2296,977,983
2297,976,984
2298,977,982
2299,976,985
2300,980,988
2301,982,989
2302,985,988
2303,986,988
2304,987,983
2305,987,981
2306,989,983
2307,991,982
2308,995,982
2309,994,980
2310,995,977
2311,994,974
2312,996,974
2313,998,970
2314,997,969
2315,998,964
2316,997,962
2317,996,960
2318,998,963
2319,1000,966
2320,1002,963
2321,1000,963
2322,998,964
2323,997,963
2324,996,966
2325,996,970
2326,998,971
2327,996,972
2328,993,971
2329,991,969
2330,989,973
2331,988,976
2332,988,976
2333,986,978
2334,984,974
2335,981,974
2336,979,976
2337,979,977
2338,979,976
2339,978,974
2340,975,972
2341,972,970
2342,972,974
2343,974,977
2344,974,976
2345,971,978
2346,969,978
2347,967,978
2348,968,980
2349,971,983
2350,970,980
2351,970,981
2352,966,976
2353,965,977
2354,964,979
2355,965,980
2356,964,982
2357,965,984
2358,963,984
2359,964,981
2360,964,985
2361,965,989
2362,969,991
2363,968,993
2364,968,993
2365,968,994
2366,968,995
2367,969,996
2368,971,995
2369,969,999
2370,970,997
2371,967,998
2372,967,1001
2373,968,1003
2374,970,1002
2375,972,1001
2376,973,998
2377,974,996
2378,974,994
2379,977,995
2380,977,994
2381,976,992
2382,976,990
2383,972,986
2384,972,987
2385,976,983
2386,975,983
2387,975,978
2388,973,976
2389,973,976
2390,971,976
2391,973,979
2392,974,979
2393,973,980
2394,974,977
2395,972,977
2396,972,980
2397,971,980
2398,972,981
2399,971,981
2400,969,981
2401,968,979
2402,968,978
2403,970,980
2404,971,982
2405,970,980
2406,968,981
2407,968,981
2408,967,984
2409,968,982
2410,969,982
2411,968,978
2412,967,975
2413,963,974
2414,962,977
2415,964,979
2416,966,983
2417,966,984
2418,966,982
2419,966,982
2420,962,983
2421,966,986
2422,966,987
2423,965,990
2424,963,987
2425,962,986
2426,963,987
2427,962,990
2428,964,992
2429,963,991
2430,962,989
2431,960,989
2432,958,992
2433,960,993
2434,962,992
2435,963,993
2436,960,992
2437,956,992
2438,954,994
2439,956,996
2440,959,998
2441,957,1002
2442,959,999
2443,961,999
2444,965,997
2445,974,998
2446,979,998
2447,980,995
2448,979,991
2449,976,989
2450,976,992
2451,977,991
2452,980,991
2453,978,986
2454,978,982
2455,976,979
2456,976,979
2457,978,982
2458,979,981
2459,980,980
2460,975,978
2461,976,976
2462,973,979
2463,975,981
2464,977,981
2465,975,982
2466,973,981
2467,973,980
2468,971,982
2469,973,984
2470,972,986
2471,971,984
2472,969,982
2473,968,983
2474,970,983
2475,970,984
2476,973,984
2477,974,983
2478,976,986
2479,975,987
2480,977,993
2481,976,997
2482,981,995
2483,986,983
2484,993,963
2485,995,946
2486,1002,927
2487,1015,914
2488,1036,897
2489,1057,875
2490,1076,849
2491,1094,829
2492,1118,826
2493,1142,835
2494,1158,849
2495,1169,862
2496,1175,877
2497,1174,906
2498,1160,941
2499,1136,971
2500,1109,986
2501,1071,987
2502,1032,980
2503,1005,975
2504,994,977
2505,991,982
2506,990,985
2507,990,983
2508,988,984
2509,989,982
2510,985,987
2511,984,989
2512,983,990
2513,978,985
2514,974,983
2515,970,977
2516,970,981
2517,971,982
2518,971,983
2519,967,983
2520,964,980
2521,963,982
2522,963,984
2523,965,985
2524,968,986
2525,966,988
2526,966,987
2527,965,984
2528,965,983
2529,965,983
2530,967,986
2531,969,985
2532,970,984
2533,967,983
2534,966,985
2535,967,987
2536,969,989
2537,967,989
2538,968,990
2539,968,989
2540,968,989
2541,969,991
2542,970,995
2543,969,995
2544,967,996
2545,965,993
2546,966,993
2547,968,997
2548,969,996
2549,969,991
2550,968,988
2551,967,987
2552,968,983
2553,969,984
2554,971,982
2555,973,977
2556,971,974
2557,973,973
2558,977,971
2559,982,975
2560,985,975
2561,986,971
2562,988,967
2563,987,964
2564,987,966
2565,991,970
2566,993,969
2567,992,970
2568,990,967
2569,989,965
2570,991,967
2571,993,969
2572,995,971
2573,995,973
2574,996,972
2575,996,974
2576,996,979
2577,997,977
2578,999,978
2579,998,978
2580,996,977
2581,991,977
2582,989,979
2583,989,981
2584,988,982
2585,984,982
2586,981,982
2587,978,981
2588,976,987
2589,977,989
2590,977,991
2591,974,992
2592,970,992
2593,970,993
2594,971,995
2595,970,995
2596,969,995
2597,966,993
2598,965,993
2599,966,991
2600,965,992
2601,967,997
2602,969,997
2603,967,998
2604,967,997
2605,965,995
2606,966,995
2607,968,997
2608,968,995
2609,967,994
2610,966,994
2611,966,990
2612,965,992
2613,965,992
2614,966,989
2615,967,988
2616,969,985
2617,969,987
2618,972,985
2619,974,985
2620,977,982
2621,977,981
2622,976,981
2623,976,978
2624,973,979
2625,975,981
2626,975,982
2627,974,982
2628,974,981
2629,975,979
2630,975,982
2631,976,984
2632,977,984
2633,974,983
2634,975,983
2635,973,981
2636,973,981
2637,973,981
2638,974,983
2639,972,982
2640,971,978
2641,970,978
2642,970,980
2643,970,982
2644,970,985
2645,970,987
2646,970,983
2647,970,985
2648,966,989
2649,966,991
2650,970,991
2651,970,993
2652,966,991
2653,967,992
2654,967,994
2655,967,995
2656,968,994
2657,967,991
2658,967,991
2659,965,990
2660,966,992
2661,966,997
2662,967,996
2663,965,998
2664,965,996
2665,963,995
2666,964,995
2667,963,998
2668,965,997
2669,965,994
2670,964,992
2671,961,990
2672,961,990
2673,960,991
2674,962,989
2675,964,990
2676,962,992
2677,963,991
2678,966,992
2679,969,990
2680,971,990
2681,970,986
2682,969,984
2683,968,984
2684,967,981
2685,968,983
2686,969,979
2687,967,977
2688,967,975
2689,966,972
2690,966,976
2691,966,979
2692,968,979
2693,968,979
2694,966,978
2695,963,977
2696,962,976
2697,965,977
2698,968,976
2699,967,976
2700,965,975
2701,964,976
2702,964,980
2703,963,984
2704,966,990
2705,965,993
2706,970,995
2707,971,991
2708,977,986
2709,984,972
2710,988,953
2711,991,938
2712,997,920
2713,1010,908
2714,1028,891
2715,1050,871
2716,1071,847
2717,1094,828
2718,1121,826
2719,1141,838
2720,1160,858
2721,1176,881
2722,1187,916
2723,1176,951
2724,1145,973
2725,1104,991
2726,1056,1000
2727,1016,998
2728,991,989
2729,977,987
2730,967,985
2731,965,986
2732,967,988
2733,974,992
2734,977,992
2735,976,994
2736,971,990
2737,965,988
2738,964,990
2739,965,989
2740,970,988
2741,971,986
2742,971,983
2743,969,980
2744,968,983
2745,970,983
2746,970,981
2747,969,979
2748,968,977
2749,964,975
2750,964,975
2751,962,975
2752,964,974
2753,962,972
2754,960,969
2755,956,968
2756,956,969
2757,959,973
2758,961,973
2759,960,971
2760,960,969
2761,961,969
2762,962,969
2763,965,973
2764,967,975
2765,966,973
2766,965,971
2767,964,973
2768,965,972
2769,966,976
2770,968,976
2771,966,975
2772,966,974
2773,964,971
2774,968,973
2775,969,976
2776,971,976
2777,971,976
2778,971,973
2779,971,971
2780,972,975
2781,974,976
2782,976,979
2783,973,975
2784,973,974
2785,975,971
2786,976,971
2787,978,975
2788,980,972
2789,981,973
2790,981,973
2791,983,972
2792,984,975
2793,985,975
2794,988,974
2795,991,974
2796,994,975
2797,995,971
2798,998,970
2799,1002,974
2800,1003,974
2801,1004,972
2802,1002,968
2803,999,968
2804,996,970
2805,999,972
2806,998,971
2807,998,971
2808,995,972
2809,992,971
2810,989,974
2811,989,975
2812,990,975
2813,986,975
2814,980,974
2815,976,974
2816,975,975
2817,975,977
2818,974,978
2819,973,979
2820,970,978
2821,965,973
2822,965,975
2823,967,977
2824,970,980
2825,969,980
2826,968,979
2827,966,977
2828,964,978
2829,968,982
2830,968,983
2831,968,982
2832,966,982
2833,963,980
2834,963,980
2835,964,986
2836,966,985
2837,965,985
2838,964,982
2839,963,979
2840,962,984
2841,962,985
2842,964,986
2843,963,985
2844,962,984
2845,958,983
2846,957,985
2847,959,986
2848,961,985
2849,961,984
2850,962,979
2851,961,976
2852,961,976
2853,960,979
2854,962,980
2855,960,980
2856,958,978
2857,955,978
2858,955,984
2859,955,989
2860,961,992
2861,961,991
2862,963,992
2863,964,986
2864,967,990
2865,972,988
2866,975,989
2867,974,988
2868,973,985
2869,970,984
2870,970,982
2871,970,983
2872,971,985
2873,970,985
2874,968,983
2875,969,982
2876,970,985
2877,972,987
2878,973,988
2879,971,990
2880,970,986
2881,967,983
2882,967,983
2883,970,985
2884,973,984
2885,973,984
2886,970,984
2887,969,981
2888,969,982
2889,971,986
2890,973,984
2891,972,983
2892,971,978
2893,969,977
2894,969,980
2895,968,983
2896,971,984
2897,970,982
2898,970,980
2899,966,979
2900,966,982
2901,967,984
2902,968,982
2903,967,978
2904,964,980
2905,963,977
2906,961,978
2907,963,980
2908,966,981
2909,966,982
2910,963,981
2911,961,980
2912,963,982
2913,967,986
2914,969,987
2915,968,987
2916,964,982
2917,962,981
2918,963,982
2919,964,985
2920,967,985
2921,965,985
2922,964,982
2923,963,981
2924,962,979
2925,962,979
2926,966,982
2927,968,980
2928,965,979
2929,967,979
2930,969,981
2931,973,981
2932,979,982
2933,978,980
2934,977,976
2935,975,974
2936,975,978
2937,976,982
2938,980,988
2939,980,992
2940,981,989
2941,981,988
2942,983,980
2943,990,964
2944,997,945
2945,1003,926
2946,1011,908
2947,1030,892
2948,1050,876
2949,1075,859
2950,1101,843
2951,1128,836
2952,1152,839
2953,1172,851
2954,1189,868
2955,1207,884
2956,1222,906
2957,1217,935
2958,1194,956
2959,1155,976
2960,1109,994
2961,1062,1001
2962,1023,1000
2963,995,990
2964,977,978
2965,963,973
2966,957,976
2967,959,980
2968,968,982
2969,972,984
2970,975,983
2971,974,981
2972,971,979
2973,972,983
2974,974,981
2975,971,982
2976,969,983
2977,967,982
2978,963,984
2979,965,987
2980,965,987
2981,962,985
2982,963,985
2983,962,985
2984,959,986
2985,959,989
2986,961,989
2987,960,991
2988,960,990
2989,960,990
2990,960,993
2991,960,993
2992,962,992
2993,961,992
2994,962,988
2995,964,985
2996,963,984
2997,966,985
2998,971,981
2999,968,981
3000,967,977
3001,965,974
3002,965,974
3003,969,973
3004,970,971
3005,970,968
3006,971,968
3007,970,967
3008,971,968
3009,972,972
3010,972,969
3011,973,968
3012,971,964
3013,972,960
3014,973,962
3015,974,966
3016,973,964
3017,977,963
3018,976,961
3019,975,960
3020,976,959
3021,977,960
3022,981,959
3023,981,958
3024,981,957
3025,980,957
3026,982,958
3027,985,958
3028,989,959
3029,989,960
3030,989,960
3031,989,961
3032,988,959
3033,991,962
3034,993,964
3035,993,964
3036,994,961
3037,993,961
3038,993,962
3039,993,966
3040,994,964
3041,995,964
3042,995,965
3043,993,964
3044,993,966
3045,993,970
3046,993,970
3047,992,968
3048,990,968
3049,987,968
3050,985,974
3051,984,978
3052,981,979
3053,979,979
3054,978,981
3055,973,983
3056,971,986
3057,970,988
3058,972,991
3059,970,993
3060,969,992
3061,969,989
3062,969,992
3063,973,990
3064,975,989
3065,975,988
3066,975,985
3067,973,982
3068,976,982
3069,977,984
3070,979,981
3071,978,978
3072,975,976
3073,973,973
3074,974,974
3075,974,972
3076,975,971
3077,974,970
3078,974,970
3079,973,970
3080,973,976
3081,973,974
3082,976,976
3083,979,975
3084,977,976
3085,976,976
3086,977,977
3087,980,980
3088,980,979
3089,978,980
3090,976,978
3091,974,978
3092,976,979
3093,978,981
3094,979,979
3095,979,980
3096,976,978
3097,975,979
3098,973,980
3099,976,982
3100,975,983
3101,976,984
3102,974,982
3103,973,981
3104,973,983
3105,976,982
3106,978,983
3107,977,984
3108,975,983
3109,972,981
3110,972,981
3111,974,986
3112,975,986
3113,974,983
3114,971,982
3115,970,980
3116,969,983
3117,969,980
3118,966,982
3119,969,982
3120,964,979
3121,960,977
3122,959,979
3123,960,981
3124,963,982
3125,961,984
3126,957,981
3127,955,983
3128,955,986
3129,960,986
3130,966,986
3131,967,986
3132,967,982
3133,969,981
3134,970,978
3135,974,980
3136,976,978
3137,982,975
3138,984,975
3139,983,977
3140,984,979
3141,986,983
3142,988,984
3143,985,980
3144,982,980
3145,982,978
3146,980,980
3147,980,980
3148,984,981
3149,983,979
3150,978,978
3151,974,975
3152,974,980
3153,976,982
3154,977,982
3155,977,983
3156,975,981
3157,970,976
3158,969,978
3159,970,980
3160,971,981
3161,972,978
3162,970,977
3163,969,977
3164,969,980
3165,971,979
3166,975,978
3167,973,981
3168,971,978
3169,968,975
3170,969,978
3171,970,978
3172,972,980
3173,972,977
3174,971,977
3175,967,974
3176,967,975
3177,969,977
3178,972,978
3179,972,981
3180,971,980
3181,970,983
3182,972,982
3183,978,976
3184,985,959
3185,989,942
3186,993,927
3187,1000,915
3188,1016,900
3189,1037,889
3190,1056,867
3191,1075,841
3192,1093,819
3193,1114,810
3194,1133,814
3195,1146,823
3196,1159,838
3197,1170,858
3198,1173,882
3199,1160,913
3200,1141,943
3201,1116,963
3202,1088,974
3203,1055,978
3204,1027,973
3205,1013,967
3206,1003,969
3207,997,971
3208,998,973
3209,997,977
3210,996,975
3211,993,975
3212,989,977
3213,987,978
3214,987,979
3215,984,977
3216,981,972
3217,977,973
3218,975,976
3219,975,977
3220,976,978
3221,974,978
3222,974,975
3223,968,975
3224,967,974
3225,969,976
3226,969,978
3227,969,978
3228,969,976
3229,967,975
3230,966,976
3231,968,977
3232,969,977
3233,967,972
3234,967,971
3235,965,969
3236,966,970
3237,968,973
3238,967,974
3239,966,972
3240,965,971
3241,965,970
3242,962,972
3243,964,973
3244,968,975
3245,967,975
3246,967,973
3247,966,973
3248,966,972
3249,966,974
3250,969,971
3251,967,972
3252,971,970
3253,969,971
3254,970,972
3255,973,975
3256,976,973
3257,975,974
3258,978,975
3259,977,978
3260,977,977
3261,981,979
3262,983,980
3263,983,979
3264,980,977
3265,975,975
3266,978,978
3267,982,981
3268,983,979
3269,983,978
3270,981,976
3271,982,974
3272,985,976
3273,988,975
3274,991,970
3275,993,969
3276,993,963
3277,996,964
3278,999,965
3279,1003,967
3280,1003,966
3281,1004,965
3282,1001,961
3283,997,963
3284,999,966
3285,1002,966
3286,1004,967
3287,1002,969
3288,1001,965
3289,999,967
3290,998,969
3291,999,971
3292,1001,970
3293,998,971
3294,995,966
3295,992,967
3296,991,969
3297,990,971
3298,991,974
3299,990,973
3300,985,972
3301,981,971
3302,981,974
3303,981,977
3304,980,976
3305,981,977
3306,978,974
3307,976,973
3308,973,975
3309,975,978
3310,975,979
3311,976,979
3312,974,976
3313,971,976
3314,972,978
3315,977,982
3316,979,982
3317,979,984
3318,977,978
3319,972,975
3320,971,978
3321,974,982
3322,976,982
3323,972,982
3324,972,978
3325,970,981
3326,970,978
3327,971,983
3328,974,981
3329,974,978
3330,973,974
3331,970,973
3332,967,972
3333,969,976
3334,971,976
3335,968,976
3336,968,973
3337,967,973
3338,967,974
3339,968,977
3340,970,977
3341,970,976
3342,972,975
3343,973,976
3344,974,978
3345,977,980
3346,980,981
3347,981,981
3348,979,980
3349,976,981
3350,977,982
3351,978,981
3352,980,982
3353,980,981
3354,979,978
3355,976,978
3356,977,977
3357,977,977
3358,980,977
3359,977,975
3360,975,974
3361,975,974
3362,973,980
3363,975,981
3364,978,984
3365,975,983
3366,975,982
3367,973,980
3368,976,983
3369,977,984
3370,978,983
3371,977,983
3372,974,982
3373,973,981
3374,973,981
3375,974,982
3376,975,981
3377,976,979
3378,972,975
3379,971,974
3380,968,974
3381,970,976
3382,970,977
3383,969,975
3384,968,973
3385,968,973
3386,968,973
3387,968,975
3388,970,976
3389,968,974
3390,967,969
3391,966,969
3392,967,970
3393,967,971
3394,968,974
3395,968,969
3396,967,968
3397,965,966
3398,965,965
3399,968,969
3400,970,966
3401,970,967
3402,968,966
3403,967,964
3404,970,968
3405,970,972
3406,972,974
3407,971,976
3408,971,974
3409,971,975
3410,970,976
3411,971,976
3412,973,976
3413,973,976
3414,971,974
3415,969,974
3416,971,975
3417,970,978
3418,972,979
3419,972,979
3420,970,978
3421,969,978
3422,971,980
3423,974,983
3424,979,984
3425,977,985
3426,975,983
3427,970,982
3428,972,984
3429,972,983
3430,975,984
3431,974,983
3432,973,981
3433,968,979
3434,969,981
3435,969,982
3436,971,982
3437,968,982
3438,967,979
3439,966,981
3440,967,981
3441,969,985
3442,970,984
3443,971,980
3444,966,978
3445,965,975
3446,964,976
3447,966,979
3448,970,978
3449,969,978
3450,966,977
3451,965,974
3452,966,977
3453,970,985
3454,973,985
3455,974,980
3456,978,965
3457,980,949
3458,984,931
3459,992,920
3460,998,906
3461,1012,890
3462,1029,874
3463,1045,854
3464,1063,834
3465,1083,817
3466,1108,806
3467,1134,805
3468,1151,811
3469,1159,820
3470,1173,837
3471,1183,862
3472,1181,896
3473,1163,926
3474,1136,948
3475,1102,958
3476,1062,964
3477,1032,964
3478,1013,963
3479,1004,963
3480,997,962
3481,988,964
3482,985,970
3483,987,974
3484,991,974
3485,991,975
3486,987,971
3487,982,973
3488,980,976
3489,980,981
3490,979,980
3491,977,979
3492,977,979
3493,973,975
3494,971,979
3495,972,980
3496,972,982
3497,972,982
3498,970,980
3499,966,981
3500,967,980
3501,967,982
3502,968,981
3503,965,981
3504,965,980
3505,961,977
3506,962,982
3507,963,980
3508,964,978
3509,965,978
3510,963,976
3511,961,975
3512,962,978
3513,962,976
3514,964,978
3515,964,975
3516,966,974
3517,962,970
3518,962,970
3519,964,970
3520,966,968
3521,968,967
3522,967,967
3523,965,965
3524,969,966
3525,971,966
3526,974,965
3527,975,963
3528,974,960
3529,975,958
3530,975,961
3531,976,961
3532,979,961
3533,981,962
3534,984,962
3535,984,964
3536,990,967
3537,990,970
3538,992,970
3539,992,970
3540,993,969
3541,992,966
3542,994,966
3543,996,967
3544,997,965
3545,998,966
3546,995,964
3547,996,965
3548,997,967
3549,999,970
3550,1000,968
3551,999,967
3552,998,967
3553,996,967
3554,1000,970
3555,1000,972
3556,1001,971
3557,1002,969
3558,999,967
3559,998,967
3560,999,970
3561,1000,972
3562,1001,972
3563,1002,971
3564,998,971
3565,994,970
3566,995,971
3567,995,974
3568,996,976
3569,994,975
3570,991,972
3571,986,973
3572,985,974
3573,984,974
3574,985,976
3575,984,977
3576,981,976
3577,980,975
3578,979,977
3579,981,977
3580,980,978
3581,980,975
3582,979,971
3583,978,970
3584,977,970
3585,978,973
3586,979,974
3587,980,972
3588,978,973
3589,975,970
3590,976,971
3591,978,971
3592,979,971
3593,979,969
3594,976,967
3595,974,970
3596,974,970
3597,974,972
3598,975,971
3599,975,972
3600,972,971
3601,970,972
3602,972,975
3603,973,978
3604,975,976
3605,974,977
3606,973,977
3607,970,978
3608,972,980
3609,974,983
3610,975,980
3611,975,980
3612,973,980
3613,971,980
3614,973,983
3615,972,986
3616,974,986
3617,972,986
3618,974,986
3619,971,988
3620,972,988
3621,971,986
3622,972,984
3623,972,984
3624,971,981
3625,967,979
3626,969,982
3627,971,982
3628,972,981
3629,973,981
3630,973,978
3631,973,977
3632,973,981
3633,977,983
3634,980,984
3635,979,981
3636,978,979
3637,975,980
3638,978,980
3639,979,982
3640,980,981
3641,980,979
3642,978,975
3643,975,974
3644,976,974
3645,978,976
3646,978,975
3647,978,973
3648,978,971
3649,975,970
3650,975,973
3651,976,975
3652,977,974
3653,977,972
3654,975,971
3655,972,972
3656,969,971
3657,970,973
3658,974,974
3659,974,974
3660,972,971
3661,970,975
3662,969,976
3663,971,977
3664,971,979
3665,972,979
3666,968,976
3667,964,977
3668,966,978
3669,970,982
3670,972,982
3671,971,983
3672,968,980
3673,964,977
3674,967,980
3675,967,980
3676,971,981
3677,970,982
3678,970,981
3679,968,981
3680,968,981
3681,968,983
3682,969,983
3683,969,981
3684,968,978
3685,965,980
3686,966,983
3687,969,985
3688,972,987
3689,971,989
3690,971,988
3691,971,987
3692,972,988
3693,974,988
3694,976,987
3695,974,986
3696,973,980
3697,973,980
3698,974,982
3699,976,982
3700,977,983
3701,978,983
3702,977,979
3703,975,978
3704,975,977
3705,976,980
3706,977,979
3707,975,978
3708,973,974
3709,970,973
3710,970,972
3711,969,975
3712,971,974
3713,970,973
3714,967,970
3715,966,970
3716,968,972
3717,970,977
3718,971,977
3719,970,977
3720,970,975
3721,969,974
3722,971,978
3723,976,978
3724,976,977
3725,973,978
3726,972,974
3727,970,975
3728,971,975
3729,973,977
3730,973,977
3731,973,975
3732,971,974
3733,969,972
3734,968,973
3735,968,974
3736,969,975
3737,969,975
3738,968,971
3739,965,974
3740,965,975
3741,967,976
3742,968,976
3743,968,978
3744,967,978
3745,964,980
3746,967,982
3747,968,985
3748,972,984
3749,972,986
3750,971,984
3751,968,987
3752,972,988
3753,974,990
3754,976,987
3755,975,982
3756,976,979
3757,972,977
3758,973,980
3759,975,982
3760,977,983
3761,976,979
3762,975,978
3763,976,975
3764,977,978
3765,979,975
3766,978,976
3767,977,975
3768,973,971
3769,973,971
3770,975,969
3771,978,970
3772,979,969
3773,977,966
3774,977,964
3775,972,964
3776,975,968
3777,977,971
3778,980,970
3779,979,970
3780,978,971
3781,976,976
3782,975,981
3783,979,981
3784,986,985
3785,989,972
3786,996,955
3787,996,934
3788,1002,917
3789,1011,904
3790,1029,890
3791,1051,874
3792,1071,854
3793,1089,836
3794,1113,825
3795,1140,828
3796,1161,836
3797,1180,853
3798,1195,865
3799,1209,885
3800,1209,916
3801,1193,945
3802,1162,967
3803,1118,985
3804,1073,992
3805,1032,994
3806,1003,988
3807,984,979
3808,975,972
3809,965,969
3810,961,970
3811,966,970
3812,973,974
3813,978,978
3814,977,980
3815,978,979
3816,973,977
3817,969,978
3818,970,980
3819,970,982
3820,968,984
3821,968,985
3822,970,982
3823,968,985
3824,968,989
3825,971,990
3826,974,991
3827,974,991
3828,975,984
3829,972,980
3830,973,978
3831,975,980
3832,976,979
3833,976,976
3834,975,971
3835,972,971
3836,973,971
3837,974,974
3838,976,972
3839,974,969
3840,972,963
3841,971,962
3842,972,961
3843,972,962
3844,975,963
3845,974,963
3846,973,960
3847,970,962
3848,971,961
3849,973,963
3850,974,963
3851,976,962
3852,973,961
3853,971,959
3854,973,959
3855,974,961
3856,975,959
3857,973,956
3858,975,954
3859,974,954
3860,974,957
3861,976,957
3862,979,960
3863,981,957
3864,980,956
3865,979,954
3866,983,957
3867,985,960
3868,988,960
3869,987,961
3870,986,957
3871,986,957
3872,987,958
3873,989,958
3874,992,956
3875,991,956
3876,990,954
3877,990,951
3878,993,956
3879,994,958
3880,996,963
3881,995,962
3882,994,960
3883,994,962
3884,995,965
3885,998,966
3886,999,965
3887,999,964
3888,998,963
3889,995,966
3890,994,970
3891,999,974
3892,1003,976
3893,1004,977
3894,1003,975
3895,1000,974
3896,1002,977
3897,1002,975
3898,1002,974
3899,999,971
3900,996,968
3901,991,969
3902,989,970
3903,988,971
3904,990,968
3905,986,971
3906,984,966
3907,980,968
3908,980,969
3909,982,970
3910,982,968
3911,978,969
3912,977,965
3913,975,966
3914,975,970
3915,976,972
3916,974,968
3917,973,967
3918,971,964
3919,968,963
3920,970,966
3921,971,969
3922,972,970
3923,975,971
3924,971,970
3925,972,971
3926,973,974
3927,974,976
3928,974,975
3929,974,975
3930,973,972
3931,970,973
3932,968,974
3933,971,977
3934,973,976
3935,970,977
3936,971,974
3937,967,975
3938,970,977
3939,971,980
3940,973,978
3941,971,976
3942,972,974
3943,967,975
3944,967,976
3945,967,977
3946,969,977
3947,969,977
3948,969,980
3949,964,986
3950,969,988
3951,973,995
3952,977,993
3953,977,989
3954,978,985
3955,977,984
3956,980,986
3957,981,989
3958,982,987
3959,983,985
3960,980,982
3961,980,981
3962,982,984
3963,983,986
3964,984,983
3965,983,983
3966,981,981
3967,978,980
3968,980,981
3969,982,984
3970,982,984
3971,978,983
3972,977,979
3973,974,977
3974,977,978
3975,977,978
3976,979,976
3977,978,976
3978,975,973
3979,973,975
3980,974,978
3981,973,982
3982,974,981
3983,978,979
3984,978,980
3985,977,979
3986,979,982
3987,980,985
3988,981,984
3989,978,983
3990,975,980
3991,973,978
3992,974,979
3993,973,981
3994,974,981
3995,973,979
3996,969,977
3997,967,978
3998,968,978
3999,969,979
4000,969,977
4001,967,975
4002,964,973
4003,962,974
4004,962,973
4005,963,978
4006,963,978
4007,962,979
4008,958,977
4009,958,979
4010,959,982
4011,961,981
4012,966,981
4013,971,982
4014,972,978
4015,971,978
4016,973,979
4017,973,981
4018,976,982
4019,976,983
4020,975,981
4021,969,982
4022,973,983
4023,975,984
4024,975,985
4025,974,980
4026,972,978
4027,969,977
4028,969,978
4029,972,980
4030,972,979
4031,973,981
4032,969,978
4033,965,976
4034,967,977
4035,968,979
4036,969,978
4037,967,980
4038,966,980
4039,965,983
4040,968,987
4041,968,990
4042,973,990
4043,972,985
4044,972,985
4045,969,981
4046,968,987
4047,970,989
4048,971,987
4049,968,987
4050,967,984
4051,966,983
4052,967,986
4053,969,988
4054,970,988
4055,971,984
4056,968,984
4057,966,982
4058,967,985
4059,969,987
4060,970,989
4061,969,985
4062,968,983
4063,966,984
4064,967,985
4065,968,989
4066,968,984
4067,967,981
4068,966,982
4069,967,980
4070,967,984
4071,968,984
4072,970,980
4073,969,977
4074,967,973
4075,967,969
4076,968,972
4077,968,976
4078,970,977
4079,970,977
4080,967,974
4081,969,973
4082,970,976
4083,972,978
4084,974,977
4085,972,975
4086,971,973
4087,969,973
4088,969,974
4089,974,973
4090,973,973
4091,972,973
4092,971,974
4093,973,980
4094,976,985
4095,982,986
4096,987,978
4097,993,958
4098,996,940
4099,999,926
4100,1009,912
4101,1026,901
4102,1047,885
4103,1066,865
4104,1080,841
4105,1099,826
4106,1121,823
4107,1144,827
4108,1162,837
4109,1176,849
4110,1186,868
4111,1190,899
4112,1177,935
4113,1146,965
4114,1110,978
4115,1063,982
4116,1024,974
4117,999,968
4118,989,969
4119,979,971
4120,980,974
4121,981,977
4122,983,979
4123,979,979
4124,981,980
4125,979,981
4126,978,982
4127,976,982
4128,974,984
4129,972,982
4130,972,985
4131,972,986
4132,974,988
4133,972,989
4134,973,985
4135,972,987
4136,974,989
4137,972,987
4138,973,985
4139,973,984
4140,972,981
4141,967,980
4142,969,981
4143,968,981
4144,970,980
4145,970,983
4146,970,981
4147,968,982
4148,969,985
4149,969,984
4150,972,983
4151,971,983
4152,969,983
4153,967,982
4154,967,983
4155,967,983
4156,969,980
4157,968,980
4158,969,974
4159,967,974
4160,968,976
4161,970,975
4162,973,976
4163,972,974
4164,971,974
4165,969,974
4166,970,976
4167,973,981
4168,973,979
4169,976,978
4170,975,976
4171,972,974
4172,974,974
4173,975,978
4174,977,977
4175,979,975
4176,978,972
4177,977,972
4178,976,974
4179,979,975
4180,981,977
4181,982,976
4182,980,975
4183,980,974
4184,981,977
4185,986,980
4186,987,982
4187,988,979
4188,989,978
4189,987,979
4190,989,985
4191,992,989
4192,997,988
4193,999,992
4194,1003,988
4195,1004,989
4196,1005,991
4197,1007,995
4198,1008,993
4199,1008,993
4200,1005,991
4201,1000,992
4202,1001,991
4203,999,991
4204,996,986
4205,994,982
4206,990,976
4207,985,975
4208,985,977
4209,981,978
4210,982,977
4211,978,977
4212,971,975
4213,969,975
4214,970,973
4215,972,975
4216,972,975
4217,971,973
4218,966,971
4219,965,971
4220,965,972
4221,968,977
4222,966,975
4223,965,975
4224,965,971
4225,962,971
4226,965,974
4227,964,976
4228,966,975
4229,964,976
4230,962,973
4231,961,976
4232,962,978
4233,963,979
4234,964,978
4235,964,976
4236,962,974
4237,962,976
4238,966,981
4239,966,982
4240,967,983
4241,967,984
4242,967,985
4243,967,986
4244,969,989
4245,971,991
4246,974,992
4247,975,994
4248,974,993
4249,975,994
4250,974,996
4251,974,997
4252,973,996
4253,973,997
4254,969,993
4255,967,993
4256,966,993
4257,966,996
4258,965,997
4259,963,999
4260,962,996
4261,961,996
4262,963,999
4263,966,1001
4264,972,1000
4265,975,996
4266,977,991
4267,976,987
4268,976,985
4269,979,988
4270,981,985
4271,981,982
4272,979,983
4273,976,979
4274,975,980
4275,974,982
4276,976,980
4277,974,979
4278,972,974
4279,970,975
4280,971,975
4281,971,977
4282,971,977
4283,971,975
4284,968,970
4285,965,972
4286,967,975
4287,966,980
4288,969,980
4289,967,982
4290,967,980
4291,967,983
4292,971,986
4293,973,988
4294,974,988
4295,970,987
4296,968,985
4297,970,986
4298,974,990
4299,973,995
4300,974,993
4301,973,992
4302,971,991
4303,969,988
4304,971,991
4305,971,992
4306,972,990
4307,969,990
4308,966,989
4309,965,990
4310,965,990
4311,966,992
4312,965,991
4313,964,989
4314,960,988
4315,960,989
4316,961,992
4317,960,990
4318,961,985
4319,958,986
4320,957,984
4321,955,984
4322,955,984
4323,956,985
4324,955,986
4325,956,986
4326,955,982
4327,953,980
4328,957,983
4329,962,984
4330,968,985
4331,971,985
4332,973,985
4333,973,983
4334,975,984
4335,975,988
4336,977,991
4337,978,991
4338,977,990
4339,982,983
4340,987,968
4341,995,954
4342,998,938
4343,1006,922
4344,1019,907
4345,1036,890
4346,1056,868
4347,1077,844
4348,1097,823
4349,1124,813
4350,1146,817
4351,1155,829
4352,1170,847
4353,1183,870
4354,1187,899
4355,1170,931
4356,1142,952
4357,1104,967
4358,1063,975
4359,1028,976
4360,1008,974
4361,998,975
4362,989,978
4363,981,980
4364,979,982
4365,979,986
4366,981,987
4367,980,987
4368,974,985
4369,969,986
4370,965,989
4371,965,993
4372,965,991
4373,964,987
4374,962,983
4375,959,982
4376,959,982
4377,962,984
4378,964,985
4379,963,982
4380,959,982
4381,958,979
4382,958,979
4383,960,979
4384,962,980
4385,961,981
4386,959,978
4387,959,977
4388,962,980
4389,967,981
4390,969,980
4391,970,976
4392,966,974
4393,965,978
4394,966,983
4395,972,988
4396,973,989
4397,974,988
4398,972,988
4399,970,988
4400,973,988
4401,973,988
4402,972,987
4403,972,984
4404,969,981
4405,965,981
4406,969,983
4407,971,985
4408,972,982
4409,973,978
4410,970,977
4411,971,975
4412,973,976
4413,973,979
4414,974,976
4415,976,975
4416,974,974
4417,972,972
4418,976,976
4419,978,976
4420,978,975
4421,982,974
4422,979,973
4423,978,969
4424,981,971
4425,983,974
4426,984,972
4427,986,969
4428,985,969
4429,984,969
4430,986,971
4431,989,974
4432,991,971
4433,992,970
4434,991,967
4435,992,970
4436,994,973
4437,997,974
4438,997,972
4439,996,972
4440,992,971
4441,989,973
4442,990,976
4443,989,979
4444,988,978
4445,985,980
4446,984,982
4447,980,984
4448,982,989
4449,981,993
4450,981,992
4451,981,990
4452,980,986
4453,977,985
4454,974,989
4455,974,989
4456,973,992
4457,970,992
4458,966,991
4459,965,992
4460,965,992
4461,966,993
4462,964,991
4463,964,987
4464,963,986
4465,958,984
4466,958,986
4467,960,988
4468,960,988
4469,961,986
4470,959,984
4471,959,984
4472,960,987
4473,963,985
4474,964,986
4475,963,984
4476,961,985
4477,960,984
4478,962,986
4479,962,986
4480,965,982
4481,964,980
4482,962,979
4483,961,980
4484,962,980
4485,963,981
4486,965,979
4487,964,979
4488,964,976
4489,962,975
4490,963,975
4491,964,976
4492,966,977
4493,964,976
4494,964,977
4495,963,979
4496,965,981
4497,967,983
4498,966,984
4499,967,984
4500,967,984
4501,963,983
4502,964,985
4503,966,986
4504,967,986
4505,967,986
4506,966,987
4507,965,988
4508,965,991
4509,966,994
4510,968,996
4511,968,994
4512,968,993
4513,965,995
4514,965,997
4515,966,999
4516,967,998
4517,967,996
4518,965,994
4519,964,994
4520,966,995
4521,966,998
4522,969,998
4523,967,996
4524,966,996
4525,963,992
4526,964,992
4527,967,994
4528,966,991
4529,966,989
4530,964,985
4531,963,984
4532,964,986
4533,963,988
4534,965,987
4535,966,987
4536,964,982
4537,960,983
4538,962,983
4539,963,985
4540,964,984
4541,967,983
4542,963,984
4543,962,983
4544,963,983
4545,966,982
4546,967,980
4547,966,979
4548,965,978
4549,962,977
4550,964,979
4551,964,981
4552,967,980
4553,968,978
4554,963,979
4555,963,980
4556,963,984
4557,965,985
4558,966,985
4559,965,985
4560,964,984
4561,963,985
4562,964,991
4563,964,995
4564,965,996
4565,966,994
4566,966,990
4567,967,992
4568,970,993
4569,969,994
4570,970,995
4571,972,996
4572,969,995
4573,967,998
4574,966,1002
4575,969,1007
4576,973,1004
4577,976,993
4578,979,977
4579,981,953
4580,985,932
4581,995,917
4582,1011,902
4583,1029,884
4584,1046,862
4585,1064,839
4586,1089,824
4587,1117,822
4588,1142,834
4589,1164,848
4590,1181,864
4591,1194,885
4592,1198,918
4593,1183,954
4594,1149,978
4595,1105,993
4596,1060,998
4597,1017,992
4598,991,987
4599,972,978
4600,964,972
4601,958,970
4602,956,970
4603,960,974
4604,967,977
4605,970,980
4606,969,980
4607,967,979
4608,966,977
4609,965,977
4610,963,978
4611,963,984
4612,963,985
4613,962,985
4614,959,986
4615,957,987
4616,958,990
4617,960,994
4618,961,992
4619,960,991
4620,960,988
4621,956,986
4622,957,987
4623,956,988
4624,958,988
4625,957,985
4626,954,982
4627,950,984
4628,952,983
4629,954,985
4630,954,982
4631,954,979
4632,956,978
4633,954,979
4634,954,983
4635,955,984
4636,958,982
4637,958,976
4638,960,973
4639,955,969
4640,956,970
4641,960,972
4642,964,970
4643,962,967
4644,961,963
4645,959,962
4646,964,962
4647,965,963
4648,970,964
4649,969,962
4650,967,960
4651,968,959
4652,973,962
4653,973,965
4654,978,964
4655,980,963
4656,977,959
4657,977,960
4658,979,961
4659,981,964
4660,986,962
4661,987,960
4662,988,958
4663,985,959
4664,988,962
4665,990,965
4666,994,967
4667,994,967
4668,994,968
4669,996,969
4670,996,970
4671,1001,969
4672,1001,968
4673,999,968
4674,995,967
4675,994,966
4676,995,969
4677,995,972
4678,994,972
4679,993,974
4680,990,974
4681,987,974
4682,986,976
4683,987,980
4684,984,981
4685,981,981
4686,978,978
4687,973,979
4688,973,982
4689,971,985
4690,972,984
4691,972,983
4692,969,980
4693,965,978
4694,964,978
4695,963,978
4696,963,974
4697,961,976
4698,961,971
4699,958,971
4700,958,972
4701,959,974
4702,961,974
4703,960,974
4704,960,971
4705,957,972
4706,957,976
4707,959,978
4708,961,979
4709,961,977
4710,961,977
4711,958,978
4712,960,980
4713,960,983
4714,961,981
4715,960,979
4716,959,975
4717,958,976
4718,959,977
4719,960,984
4720,963,987
4721,963,987
4722,962,985
4723,959,987
4724,961,987
4725,964,990
4726,966,992
4727,964,992
4728,963,990
4729,960,992
4730,961,992
4731,963,993
4732,964,993
4733,963,993
4734,960,991
4735,959,990
4736,960,994
4737,961,996
4738,961,993
4739,958,993
4740,959,990
4741,958,993
4742,958,994
4743,959,998
4744,964,999
4745,963,1000
4746,962,998
4747,962,999
4748,962,1001
4749,963,1002
4750,966,1002
4751,964,998
4752,963,996
4753,959,994
4754,960,993
4755,963,995
4756,966,994
4757,966,991
4758,965,989
4759,964,988
4760,966,991
4761,967,991
4762,968,990
4763,969,988
4764,966,984
4765,966,982
4766,966,983
4767,966,984
4768,966,981
4769,966,978
4770,962,975
4771,961,975
4772,958,976
4773,960,975
4774,961,975
4775,962,976
4776,960,977
4777,958,978
4778,959,982
4779,961,985
4780,963,986
4781,961,986
4782,961,982
4783,959,980
4784,957,982
4785,959,983
4786,961,983
4787,959,979
4788,957,978
4789,954,976
4790,954,980
4791,956,981
4792,956,981
4793,954,980
4794,951,979
4795,951,978
4796,951,980
4797,953,986
4798,956,986
4799,955,983
4800,953,981
4801,950,981
4802,951,983
4803,954,985
4804,955,985
4805,954,984
4806,952,980
4807,951,982
4808,951,981
4809,954,984
4810,955,982
4811,956,983
4812,952,981
4813,952,981
4814,955,985
4815,957,989
4816,957,987
4817,956,992
4818,954,991
4819,955,994
4820,955,995
4821,959,997
4822,961,995
4823,964,994
4824,963,993
4825,965,992
4826,970,992
4827,971,991
4828,974,990
4829,973,992
4830,969,994
4831,970,1001
4832,978,1005
4833,984,1006
4834,990,996
4835,995,977
4836,997,955
4837,998,931
4838,1007,913
4839,1025,897
4840,1044,878
4841,1065,853
4842,1083,829
4843,1106,817
4844,1133,823
4845,1157,840
4846,1176,853
4847,1193,872
4848,1201,897
4849,1189,932
4850,1158,963
4851,1118,982
4852,1076,992
4853,1030,991
4854,997,980
4855,975,971
4856,960,969
4857,954,971
4858,958,973
4859,964,972
4860,968,972
4861,965,973
4862,966,975
4863,964,978
4864,964,979
4865,962,977
4866,958,975
4867,957,975
4868,956,975
4869,955,978
4870,954,978
4871,953,980
4872,953,980
4873,952,979
4874,952,984
4875,954,985
4876,956,985
4877,957,990
4878,956,990
4879,954,992
4880,956,996
4881,959,998
4882,961,998
4883,962,999
4884,962,997
4885,959,998
4886,960,1001
4887,961,1004
4888,962,1004
4889,964,1004
4890,963,1002
4891,964,998
4892,967,999
4893,969,999
4894,972,996
4895,972,992
4896,970,991
4897,968,990
4898,969,989
4899,973,984
4900,975,980
4901,975,975
4902,975,972
4903,973,970
4904,974,972
4905,975,973
4906,978,971
4907,978,968
4908,977,967
4909,977,966
4910,977,967
4911,977,968
4912,980,967
4913,978,966
4914,979,963
4915,977,960
4916,980,962
4917,980,963
4918,981,964
4919,982,963
4920,984,960
4921,980,961
4922,984,962
4923,985,963
4924,988,967
4925,989,967
4926,988,965
4927,988,966
4928,989,969
4929,995,972
4930,996,975
4931,995,975
4932,993,976
4933,990,979
4934,989,986
4935,988,988
4936,984,989
4937,984,987
4938,982,986
4939,978,987
4940,977,990
4941,977,992
4942,976,994
4943,974,993
4944,969,991
4945,966,993
4946,967,997
4947,971,999
4948,972,997
4949,969,996
4950,970,995
4951,969,997
4952,969,998
4953,973,999
4954,973,996
4955,971,993
4956,970,991
4957,969,987
4958,970,990
4959,972,988
4960,973,982
4961,971,979
4962,970,976
4963,970,976
4964,971,976
4965,970,976
4966,971,974
4967,971,975
4968,969,973
4969,968,973
4970,970,974
4971,971,977
4972,973,973
4973,972,971
4974,975,970
4975,976,968
4976,981,964
4977,988,952
4978,992,931
4979,998,913
4980,1005,899
4981,1019,892
4982,1045,887
4983,1070,879
4984,1092,866
4985,1108,852
4986,1130,839
4987,1153,839
4988,1175,845
4989,1188,859
4990,1188,875
4991,1176,895
4992,1153,919
4993,1126,951
4994,1095,970
4995,1057,975
4996,1023,976
4997,1000,982
4998,994,987
4999,989,987
5000,981,991
5001,974,992
5002,973,991
5003,970,996
5004,969,995
5005,967,995
5006,967,995
5007,967,998
5008,967,998
5009,965,995
5010,961,994
5011,961,994
5012,960,994
5013,961,996
5014,962,992
5015,961,991
5016,961,988
5017,959,988
5018,962,992
5019,963,991
5020,964,988
5021,964,987
5022,963,983
5023,961,984
5024,963,983
5025,963,984
5026,964,983
5027,963,985
5028,961,983
5029,961,983
5030,962,987
5031,964,987
5032,965,987
5033,965,985
5034,962,985
5035,962,984
5036,962,990
5037,964,990
5038,966,989
5039,966,989
5040,963,984
5041,962,986
5042,965,987
5043,968,991
5044,968,989
5045,967,989
5046,968,987
5047,963,988
5048,965,992
5049,965,990
5050,968,989
5051,969,987
5052,969,986
5053,968,987
5054,971,989
5055,974,992
5056,974,990
5057,976,990
5058,973,986
5059,973,985
5060,976,985
5061,977,988
5062,979,984
5063,979,983
5064,978,979
5065,978,980
5066,979,981
5067,980,985
5068,982,986
5069,980,987
5070,980,985
5071,980,986
5072,983,992
5073,987,994
5074,990,992
5075,992,992
5076,993,990
5077,989,989
5078,991,990
5079,993,991
5080,993,992
5081,993,992
5082,991,990
5083,988,987
5084,986,988
5085,990,987
5086,990,986
5087,988,983
5088,982,979
5089,979,981
5090,979,981
5091,978,986
5092,977,984
5093,976,984
5094,974,982
5095,973,980
5096,973,980
5097,973,985
5098,973,986
5099,973,985
5100,970,981
5101,969,982
5102,968,984
5103,968,985
5104,969,986
5105,971,985
5106,968,983
5107,966,984
5108,966,986
5109,966,987
5110,968,987
5111,967,984
5112,966,983
5113,964,984
5114,964,988
5115,967,986
5116,966,988
5117,968,987
5118,966,985
5119,964,984
5120,964,986
5121,968,992
5122,966,991
5123,967,992
5124,966,991
5125,963,993
5126,966,994
5127,967,994
5128,968,993
5129,967,990
5130,966,989
5131,962,986
5132,961,989
5133,962,993
5134,963,991
5135,959,992
5136,957,990
5137,954,992
5138,955,999
5139,957,1004
5140,962,1001
5141,968,1003
5142,969,999
5143,967,997
5144,970,996
5145,971,998
5146,972,996
5147,972,993
5148,968,993
5149,967,989
5150,967,992
5151,969,993
5152,968,990
5153,971,987
5154,967,986
5155,965,983
5156,968,986
5157,967,987
5158,968,986
5159,964,984
5160,962,977
5161,959,977
5162,960,979
5163,960,983
5164,961,981
5165,959,980
5166,956,979
5167,955,979
5168,955,980
5169,956,983
5170,958,982
5171,958,981
5172,955,976
5173,955,976
5174,956,978
5175,958,983
5176,961,982
5177,960,982
5178,958,981
5179,954,982
5180,954,985
5181,955,990
5182,955,987
5183,955,986
5184,953,986
5185,950,985
5186,950,990
5187,951,994
5188,954,992
5189,952,992
5190,950,988
5191,946,989
5192,945,992
5193,945,994
5194,947,996
5195,949,994
5196,944,994
5197,944,993
5198,946,999
5199,953,1005
5200,959,1008
5201,960,1009
5202,960,1006
5203,962,1006
5204,965,1010
5205,969,1011
5206,974,1012
5207,978,1004
5208,981,989
5209,984,969
5210,990,950
5211,999,937
5212,1014,916
5213,1035,895
5214,1055,871
5215,1074,845
5216,1098,823
5217,1125,814
5218,1150,818
5219,1165,830
5220,1176,841
5221,1187,866
5222,1188,901
5223,1173,933
5224,1147,952
5225,1113,963
5226,1072,967
5227,1036,965
5228,1013,965
5229,1000,966
5230,991,971
5231,983,974
5232,978,974
5233,977,973
5234,979,979
5235,979,983
5236,979,979
5237,973,981
5238,969,981
5239,966,981
5240,966,981
5241,963,983
5242,963,981
5243,962,978
5244,958,978
5245,955,977
5246,956,983
5247,955,985
5248,954,985
5249,951,985
5250,949,983
5251,947,984
5252,950,984
5253,952,988
5254,954,988
5255,952,989
5256,949,989
5257,950,988
5258,951,992
5259,951,994
5260,952,993
5261,950,993
5262,947,994
5263,946,996
5264,947,1001
5265,947,1001
5266,950,1001
5267,949,1001
5268,953,1001
5269,954,1003
5270,961,1003
5271,966,1002
5272,968,999
5273,968,994
5274,968,991
5275,966,992
5276,970,993
5277,972,993
5278,975,991
5279,975,987
5280,972,985
5281,973,985
5282,975,986
5283,976,982
5284,977,979
5285,976,972
5286,975,969
5287,972,967
5288,973,968
5289,975,970
5290,974,967
5291,975,967
5292,973,964
5293,972,964
5294,974,967
5295,975,967
5296,975,966
5297,975,964
5298,973,965
5299,973,965
5300,978,966
5301,977,967
5302,978,965
5303,979,962
5304,980,960
5305,981,963
5306,981,965
5307,981,971
5308,982,970
5309,980,971
5310,979,970
5311,978,970
5312,977,970
5313,978,975
5314,978,976
5315,975,978
5316,976,976
5317,974,978
5318,974,983
5319,974,985
5320,974,985
5321,970,985
5322,968,985
5323,967,986
5324,966,992
5325,969,994
5326,969,991
5327,969,990
5328,966,988
5329,965,990
5330,966,991
5331,966,992
5332,967,990
5333,969,987
5334,969,987
5335,968,987
5336,973,988
5337,976,989
5338,979,989
5339,978,985
5340,978,983
5341,977,979
5342,978,980
5343,980,984
5344,979,979
5345,979,977
5346,977,973
5347,976,970
5348,977,973
5349,979,974
5350,978,971
5351,979,971
5352,975,971
5353,972,966
5354,973,970
5355,974,969
5356,975,966
5357,973,965
5358,971,963
5359,967,966
5360,970,970
5361,972,975
5362,971,973
5363,970,972
5364,968,970
5365,968,974
5366,967,976
5367,968,976
5368,968,977
5369,966,977
5370,964,977
5371,963,978
5372,962,980
5373,962,983
5374,965,983
5375,964,985
5376,962,983
5377,959,985
5378,962,987
5379,962,990
5380,966,991
5381,965,991
5382,963,989
5383,962,988
5384,963,991
5385,964,995
5386,966,994
5387,965,994
5388,963,992
5389,965,991
5390,966,995
5391,968,995
5392,969,995
5393,968,991
5394,966,990
5395,964,990
5396,965,995
5397,968,998
5398,972,1000
5399,972,998
5400,973,996
5401,973,994
5402,975,995
5403,977,993
5404,978,991
5405,978,988
5406,975,985
5407,973,983
5408,972,983
5409,972,981
5410,972,977
5411,971,973
5412,970,971
5413,966,968
5414,967,968
5415,966,969
5416,965,970
5417,965,970
5418,963,968
5419,962,969
5420,961,971
5421,961,973
5422,963,972
5423,964,972
5424,962,971
5425,961,972
5426,963,972
5427,962,976
5428,964,976
5429,961,974
5430,961,974
5431,962,974
5432,961,976
5433,961,977
5434,963,975
5435,962,975
5436,961,974
5437,960,976
5438,960,977
5439,959,980
5440,962,982
5441,962,981
5442,961,980
5443,961,978
5444,963,981
5445,963,982
5446,966,982
5447,966,982
5448,965,981
5449,965,984
5450,964,986
5451,966,988
5452,966,984
5453,966,983
5454,965,984
5455,963,983
5456,965,985
5457,966,986
5458,968,985
5459,966,988
5460,966,990
5461,965,994
5462,968,995
5463,973,995
5464,977,984
5465,979,968
5466,981,946
5467,985,924
5468,997,908
5469,1015,891
5470,1038,872
5471,1063,845
5472,1086,822
5473,1108,811
5474,1134,813
5475,1160,827
5476,1176,839
5477,1192,856
5478,1203,874
5479,1202,905
5480,1187,938
5481,1157,963
5482,1119,980
5483,1074,991
5484,1030,990
5485,997,979
5486,978,970
5487,967,970
5488,961,969
5489,959,970
5490,961,973
5491,967,975
5492,972,979
5493,972,980
5494,969,979
5495,968,979
5496,966,979
5497,961,981
5498,963,986
5499,964,989
5500,965,989
5501,964,990
5502,964,986
5503,963,985
5504,962,986
5505,963,987
5506,964,985
5507,962,985
5508,961,983
5509,961,983
5510,961,982
5511,961,984
5512,962,979
5513,960,976
5514,959,972
5515,959,975
5516,958,972
5517,960,973
5518,959,972
5519,959,972
5520,959,969
5521,958,970
5522,960,971
5523,960,971
5524,960,968
5525,960,966
5526,960,964
5527,961,964
5528,963,964
5529,963,965
5530,964,962
5531,964,964
5532,964,963
5533,963,966
5534,966,966
5535,968,970
5536,971,971
5537,973,968
5538,974,970
5539,974,969
5540,974,968
5541,978,970
5542,980,968
5543,979,966
5544,976,963
5545,974,965
5546,976,967
5547,976,968
5548,978,969
5549,979,967
5550,974,969
5551,977,970
5552,981,971
5553,982,976
5554,985,971
5555,984,969
5556,984,967
5557,983,966
5558,986,968
5559,988,971
5560,990,970
5561,992,968
5562,990,966
5563,991,966
5564,992,969
5565,991,969
5566,994,968
5567,992,967
5568,990,967
5569,990,965
5570,989,964
5571,990,964
5572,989,965
5573,987,965
5574,980,964
5575,979,961
5576,979,964
5577,978,966
5578,979,967
5579,977,965
5580,974,965
5581,974,968
5582,973,969
5583,974,971
5584,973,968
5585,972,968
5586,970,964
5587,965,967
5588,967,971
5589,967,976
5590,968,973
5591,967,972
5592,966,969
5593,968,974
5594,969,978
5595,970,982
5596,971,981
5597,969,981
5598,969,981
5599,968,982
5600,968,986
5601,969,984
5602,973,981
5603,970,983
5604,967,981
5605,965,984
5606,966,985
5607,966,990
5608,968,988
5609,968,988
5610,968,987
5611,966,989
5612,970,988
5613,971,989
5614,973,989
5615,972,986
5616,971,984
5617,970,984
5618,971,985
5619,972,987
5620,972,983
5621,969,984
5622,969,982
5623,968,983
5624,971,984
5625,971,988
5626,972,986
5627,971,983
5628,969,978
5629,968,978
5630,970,978
5631,971,978
5632,973,978
5633,971,978
5634,967,974
5635,965,973
5636,966,976
5637,967,974
5638,968,974
5639,967,970
5640,966,968
5641,966,970
5642,967,973
5643,972,976
5644,973,975
5645,974,974
5646,971,969
5647,969,969
5648,969,970
5649,969,973
5650,971,974
5651,971,972
5652,968,968
5653,967,971
5654,967,974
5655,969,979
5656,971,981
5657,970,980
5658,968,979
5659,966,981
5660,968,982
5661,971,986
5662,972,989
5663,970,986
5664,968,986
5665,967,989
5666,971,990
5667,973,994
5668,975,994
5669,975,999
5670,973,1000
5671,973,1002
5672,977,1004
5673,980,1000
5674,984,983
5675,981,961
5676,985,940
5677,988,924
5678,999,912
5679,1016,901
5680,1034,885
5681,1051,865
5682,1068,845
5683,1089,837
5684,1116,839
5685,1139,854
5686,1159,869
5687,1180,887
5688,1193,905
5689,1195,933
5690,1182,963
5691,1156,986
5692,1120,999
5693,1077,1004
5694,1034,999
5695,1001,990
5696,978,979
5697,965,971
5698,956,969
5699,955,969
5700,962,968
5701,968,967
5702,975,970
5703,977,973
5704,973,973
5705,971,973
5706,967,972
5707,965,971
5708,964,972
5709,963,973
5710,965,974
5711,962,972
5712,961,972
5713,961,972
5714,962,976
5715,962,977
5716,962,979
5717,962,978
5718,961,976
5719,960,976
5720,960,976
5721,960,981
5722,961,979
5723,959,980
5724,957,979
5725,955,980
5726,960,980
5727,960,984
5728,962,983
5729,962,983
5730,960,984
5731,960,988
5732,961,989
5733,962,992
5734,965,989
5735,965,987
5736,964,987
5737,964,988
5738,966,988
5739,967,992
5740,968,990
5741,968,990
5742,967,989
5743,966,986
5744,967,987
5745,969,989
5746,969,987
5747,970,984
5748,969,983
5749,967,984
5750,971,987
5751,973,992
5752,975,987
5753,976,987
5754,974,984
5755,973,981
5756,975,983
5757,977,983
5758,977,984
5759,978,983
5760,977,981
5761,979,982
5762,981,984
5763,984,986
5764,985,985
5765,983,987
5766,981,984
5767,977,985
5768,979,986
5769,981,985
5770,982,983
5771,982,982
5772,981,979
5773,980,977
5774,981,981
5775,982,983
5776,984,979
5777,982,978
5778,978,976
5779,976,974
5780,978,977
5781,978,979
5782,979,977
5783,976,973
5784,975,974
5785,973,974
5786,975,976
5787,975,976
5788,975,974
5789,974,969
5790,971,969
5791,967,967
5792,969,973
5793,969,975
5794,971,970
5795,969,968
5796,965,964
5797,962,965
5798,963,966
5799,965,971
5800,964,975
5801,965,973
5802,967,973
5803,967,975
5804,967,976
5805,970,981
5806,974,979
5807,973,979
5808,972,980
5809,969,979
5810,968,979
5811,972,982
5812,970,978
5813,970,977
5814,968,976
5815,968,977
5816,969,979
5817,970,984
5818,970,984
5819,972,982
5820,970,979
5821,969,979
5822,971,982
5823,973,983
5824,976,983
5825,972,982
5826,970,979
5827,969,982
5828,969,982
5829,970,986
5830,969,984
5831,970,983
5832,970,980
5833,970,981
5834,972,985
5835,973,988
5836,973,987
5837,972,985
5838,971,984
5839,968,980
5840,968,982
5841,968,987
5842,971,985
5843,971,984
5844,969,980
5845,965,979
5846,966,982
5847,968,984
5848,967,984
5849,968,981
5850,965,981
5851,964,983
5852,964,984
5853,967,985
5854,967,983
5855,969,981
5856,966,978
5857,965,980
5858,965,981
5859,965,984
5860,966,981
5861,966,978
5862,964,978
5863,962,976
5864,964,975
5865,965,977
5866,967,973
5867,967,969
5868,967,966
5869,966,966
5870,967,967
5871,968,974
5872,969,974
5873,970,976
5874,969,977
5875,969,978
5876,975,981
5877,979,985
5878,978,985
5879,975,983
5880,973,982
5881,968,983
5882,972,982
5883,972,986
5884,972,984
5885,971,981
5886,971,980
5887,971,980
5888,971,983
5889,973,985
5890,974,985
5891,975,983
5892,972,980
5893,972,981
5894,974,984
5895,977,984
5896,977,982
5897,976,982
5898,974,980
5899,973,979
5900,972,983
5901,975,986
5902,975,988
5903,974,988
5904,973,981
5905,975,972
5906,981,956
5907,986,943
5908,991,930
5909,998,916
5910,1015,900
5911,1035,886
5912,1052,864
5913,1072,843
5914,1094,821
5915,1117,812
5916,1138,816
5917,1150,824
5918,1165,839
5919,1179,861
5920,1184,889
5921,1174,914
5922,1152,933
5923,1127,947
5924,1092,955
5925,1055,958
5926,1026,953
5927,1008,952
5928,994,954
5929,988,961
5930,982,964
5931,980,968
5932,982,971
5933,982,973
5934,979,975
5935,977,980
5936,977,983
5937,975,985
5938,975,985
5939,975,985
5940,973,985
5941,972,987
5942,974,992
5943,974,993
5944,976,991
5945,975,986
5946,973,986
5947,971,984
5948,975,989
5949,977,990
5950,978,989
5951,976,984
5952,972,979
5953,971,980
5954,974,982
5955,975,984
5956,973,985
5957,973,983
5958,971,981
5959,972,982
5960,973,983
5961,975,987
5962,975,984
5963,972,984
5964,970,980
5965,968,980
5966,970,981
5967,971,985
5968,972,985
5969,970,982
5970,969,981
5971,966,980
5972,968,983
5973,968,986
5974,970,984
5975,967,981
5976,966,978
5977,963,978
5978,964,979
5979,966,982
5980,964,978
5981,962,975
5982,963,973
5983,962,970
5984,966,970
5985,967,971
5986,968,969
5987,967,967
5988,965,965
5989,967,962
5990,967,966
5991,971,967
5992,975,966
5993,975,965
5994,976,960
5995,976,962
5996,977,962
5997,979,963
5998,982,963
5999,983,965
6000,981,963
6001,980,963
6002,987,967
6003,990,972
6004,995,973
6005,996,975
6006,997,975
6007,995,973
6008,997,977
6009,1002,979
6010,1003,978
6011,1002,979
6012,998,979
6013,998,979
6014,997,983
6015,998,984
6016,999,980
6017,997,980
6018,995,979
6019,992,977
6020,991,979
6021,991,984
6022,992,982
6023,988,982
6024,985,979
6025,984,979
6026,982,981
6027,982,982
6028,981,983
6029,978,984
6030,975,984
6031,972,982
6032,972,987
6033,971,988
6034,970,988
6035,969,987
6036,967,986
6037,966,987
6038,966,986
6039,967,987
6040,967,985
6041,967,982
6042,965,979
6043,963,983
6044,964,984
6045,965,987
6046,966,986
6047,965,984
6048,966,985
6049,967,986
6050,968,987
6051,971,988
6052,971,987
6053,971,985
6054,970,983
6055,969,983
6056,973,986
6057,974,984
6058,976,981
6059,975,977
6060,975,974
6061,977,969
6062,977,969
6063,981,970
6064,984,970
6065,983,969
6066,981,966
6067,981,972
6068,981,971
6069,984,972
6070,985,973
6071,982,974
6072,981,974
6073,982,977
6074,984,982
6075,985,985
6076,987,984
6077,986,982
6078,985,979
6079,985,981
6080,986,982
6081,987,982
6082,989,980
6083,988,978
6084,985,976
6085,984,977
6086,986,979
6087,986,978
6088,989,972
6089,991,959
6090,991,940
6091,998,925
6092,1006,913
6093,1018,900
6094,1037,886
6095,1052,871
6096,1067,855
6097,1080,835
6098,1098,821
6099,1117,814
6100,1136,814
6101,1151,821
6102,1160,832
6103,1166,854
6104,1166,882
6105,1156,914
6106,1134,941
6107,1101,963
6108,1064,972
6109,1029,974
6110,1005,974
6111,996,974
6112,995,976
6113,992,980
6114,987,980
6115,982,986
6116,982,989
6117,984,989
6118,984,991
6119,981,988
6120,978,987
6121,974,986
6122,972,988
6123,971,987
6124,972,984
6125,970,982
6126,968,977
6127,969,976
6128,969,976
6129,974,977
6130,974,979
6131,974,979
6132,969,981
6133,967,982
6134,970,987
6135,971,988
6136,973,985
6137,970,983
6138,969,982
6139,965,981
6140,966,984
6141,968,983
6142,965,983
6143,965,982
6144,962,981
6145,960,983
6146,962,986
6147,965,988
6148,965,986
6149,964,986
6150,963,983
6151,960,984
6152,964,987
6153,966,988
6154,966,987
6155,966,983
6156,964,977
6157,962,973
6158,967,975
6159,966,974
6160,967,975
6161,967,973
6162,964,972
6163,965,973
6164,969,975
6165,972,975
6166,975,974
6167,975,972
6168,976,972
6169,976,973
6170,979,975
6171,981,977
6172,983,978
6173,983,974
6174,981,971
6175,981,969
6176,983,969
6177,986,966
6178,990,965
6179,991,961
6180,991,961
6181,992,963
6182,993,966
6183,997,969
6184,998,968
6185,999,966
6186,996,967
6187,997,970
6188,999,978
6189,1002,980
6190,1003,981
6191,1002,981
6192,1001,979
6193,999,981
6194,998,985
6195,998,988
6196,996,988
6197,995,985
6198,991,986
6199,989,987
6200,988,987
6201,987,989
6202,987,987
6203,984,985
6204,980,984
6205,978,988
6206,978,990
6207,979,990
6208,978,989
6209,975,986
6210,973,984
6211,971,984
6212,972,985
6213,972,987
6214,972,984
6215,971,983
6216,969,981
6217,970,983
6218,971,986
6219,972,987
6220,974,985
6221,971,982
6222,971,978
6223,969,979
6224,972,984
6225,973,989
6226,973,987
6227,973,985
6228,973,981
6229,969,981
6230,973,982
6231,974,984
6232,974,984
6233,972,978
6234,971,976
6235,971,976
6236,973,976
6237,977,977
6238,977,976
6239,979,975
6240,975,974
6241,974,980
6242,977,983
6243,979,983
6244,979,983
6245,977,982
6246,975,983
6247,973,986
6248,975,989
6249,974,990
6250,975,989
6251,975,992
6252,974,988
6253,973,991
6254,975,992
6255,975,990
6256,975,989
6257,973,985
6258,973,982
6259,970,984
6260,973,984
6261,976,986
6262,973,986
6263,971,983
6264,971,981
6265,967,982
6266,971,985
6267,970,986
6268,970,987
6269,966,982
6270,965,981
6271,964,985
6272,966,987
6273,967,989
6274,968,990
6275,967,986
6276,965,982
6277,963,983
6278,964,984
6279,966,985
6280,966,985
6281,964,982
6282,963,979
6283,962,983
6284,966,986
6285,967,987
6286,967,987
6287,964,989
6288,964,986
6289,964,988
6290,965,986
6291,968,987
6292,968,986
6293,966,984
6294,967,982
6295,964,982
6296,965,983
6297,968,985
6298,968,984
6299,966,982
6300,966,979
6301,968,978
6302,970,980
6303,973,981
6304,974,981
6305,974,979
6306,978,980
6307,977,983
6308,979,985
6309,981,985
6310,980,985
6311,976,985
6312,975,982
6313,975,986
6314,975,988
6315,976,992
6316,976,994
6317,975,990
6318,974,987
6319,974,987
6320,977,991
6321,976,993
6322,976,992
6323,976,990
6324,974,986
6325,976,990
6326,979,991
6327,980,992
6328,978,991
6329,975,987
6330,974,987
6331,974,985
6332,972,990
6333,976,988
6334,977,982
6335,972,981
6336,971,976
6337,968,979
6338,967,980
6339,971,980
6340,971,980
6341,969,975
6342,966,975
6343,965,976
6344,966,979
6345,968,980
6346,968,981
6347,967,980
6348,968,976
6349,968,976
6350,971,977
6351,972,980
6352,974,978
6353,974,976
6354,972,975
6355,970,975
6356,972,976
6357,972,978
6358,973,976
6359,970,975
6360,968,972
6361,967,973
6362,971,975
6363,973,976
6364,975,975
6365,974,972
6366,977,969
6367,976,973
6368,978,976
6369,981,980
6370,983,980
6371,982,978
6372,983,977
6373,983,984
6374,988,991
6375,989,998
6376,990,999
6377,992,994
6378,994,985
6379,999,971
6380,1005,946
6381,1010,925
6382,1022,906
6383,1037,887
6384,1057,864
6385,1078,844
6386,1105,831
6387,1132,826
6388,1157,837
6389,1178,853
6390,1196,865
6391,1212,888
6392,1218,916
6393,1206,947
6394,1173,972
6395,1127,989
6396,1079,999
6397,1036,1000
6398,1004,994
6399,984,984
6400,970,972
6401,959,965
6402,954,962
6403,958,964
6404,967,967
6405,974,972
6406,973,970
6407,970,969
6408,968,969
6409,965,972
6410,966,974
6411,965,974
6412,967,974
6413,965,972
6414,961,969
6415,959,971
6416,961,973
6417,961,974
6418,963,976
6419,962,974
6420,960,972
6421,957,973
6422,958,971
6423,962,976
6424,962,974
6425,963,972
6426,962,970
6427,962,970
6428,965,973
6429,967,974
6430,967,978
6431,967,978
6432,969,979
6433,970,981
6434,973,984
6435,977,988
6436,977,987
6437,976,985
6438,974,984
6439,974,985
6440,976,988
6441,978,987
6442,977,984
6443,978,980
6444,977,978
6445,977,979
6446,980,979
6447,980,979
6448,981,975
6449,981,970
6450,977,969
6451,977,968
6452,981,968
6453,983,967
6454,984,964
6455,982,963
6456,980,957
6457,978,958
6458,981,958
6459,983,957
6460,983,955
6461,982,954
6462,979,954
6463,978,956
6464,981,956
6465,985,960
6466,984,959
6467,987,958
6468,989,957
6469,988,958
6470,991,959
6471,993,959
6472,994,957
6473,994,955
6474,994,955
6475,994,956
6476,998,955
6477,1001,958
6478,1000,956
6479,1001,955
6480,999,951
6481,998,954
6482,1002,958
6483,1003,963
6484,1002,963
6485,1001,964
6486,994,964
6487,995,970
6488,996,978
6489,1000,979
6490,1000,978
6491,998,976
6492,998,975
6493,994,976
6494,993,979
6495,996,979
6496,994,983
6497,991,980
6498,989,977
6499,987,980
6500,988,983
6501,988,982
6502,986,984
6503,984,980
6504,982,979
6505,982,980
6506,982,979
6507,983,981
6508,984,980
6509,984,977
6510,983,976
6511,981,975
6512,981,976
6513,982,975
6514,983,974
6515,985,973
6516,982,970
6517,983,972
6518,984,975
6519,985,976
6520,987,979
6521,990,979
6522,987,975
6523,986,974
6524,986,975
6525,985,978
6526,985,978
6527,984,977
6528,983,974
6529,981,973
6530,983,975
6531,983,976
6532,983,977
6533,981,977
6534,979,978
6535,979,980
6536,981,982
6537,982,984
6538,983,984
6539,981,981
6540,980,980
6541,981,981
6542,983,985
6543,986,986
6544,988,986
6545,986,984
6546,981,980
6547,979,979
6548,981,983
6549,980,984
6550,980,983
6551,983,981
6552,981,977
6553,978,978
6554,980,979
6555,981,981
6556,981,983
6557,982,982
6558,981,981
6559,978,980
6560,979,984
6561,981,984
6562,983,986
6563,980,981
6564,978,976
6565,974,975
6566,979,979
6567,979,981
6568,978,982
6569,976,981
6570,974,978
6571,974,982
6572,978,982
6573,980,982
6574,979,980
6575,975,977
6576,974,974
6577,972,975
6578,972,976
6579,973,976
6580,972,978
6581,971,976
6582,969,975
6583,968,976
6584,969,980
6585,969,981
6586,972,983
6587,971,980
6588,970,980
6589,969,982
6590,970,987
6591,970,988
6592,971,986
6593,968,988
6594,967,984
6595,966,985
6596,970,986
6597,968,986
6598,968,985
6599,966,983
6600,965,980
6601,962,983
6602,963,987
6603,965,989
6604,967,987
6605,969,984
6606,969,982
6607,970,980
6608,971,978
6609,973,976
6610,976,974
6611,976,975
6612,977,971
6613,975,967
6614,975,972
6615,979,972
6616,980,974
6617,980,974
6618,980,977
6619,982,982
6620,985,990
6621,988,996
6622,991,993
6623,996,986
6624,998,966
6625,997,946
6626,1002,928
6627,1012,916
6628,1027,898
6629,1049,877
6630,1067,855
6631,1088,838
6632,1114,828
6633,1144,833
6634,1170,847
6635,1191,862
6636,1210,875
6637,1225,902
6638,1226,935
6639,1209,964
6640,1168,986
6641,1122,998
6642,1075,1001
6643,1035,995
6644,1005,990
6645,990,981
6646,978,975
6647,973,975
6648,975,975
6649,982,979
6650,987,985
6651,987,989
6652,983,989
6653,979,985
6654,979,981
6655,974,980
6656,973,979
6657,972,981
6658,970,981
6659,967,979
6660,964,980
6661,962,978
6662,962,983
6663,966,983
6664,965,983
6665,961,980
6666,958,978
6667,958,979
6668,961,980
6669,962,981
6670,962,980
6671,960,975
6672,961,970
6673,963,973
6674,966,976
6675,972,979
6676,973,978
6677,972,976
6678,972,972
6679,972,974
6680,974,974
6681,975,975
6682,974,973
6683,972,975
6684,968,973
6685,970,975
6686,971,979
6687,974,980
6688,974,979
6689,978,977
6690,977,975
6691,978,975
6692,980,979
6693,983,978
6694,982,978
6695,983,975
6696,981,971
6697,981,974
6698,983,976
6699,982,978
6700,984,979
6701,984,976
6702,982,978
6703,986,977
6704,987,980
6705,988,984
6706,991,983
6707,989,981
6708,988,977
6709,987,979
6710,988,982
6711,990,982
6712,990,982
6713,989,981
6714,987,980
6715,987,979
6716,989,980
6717,989,981
6718,988,981
6719,989,979
6720,989,976
6721,988,975
6722,988,979
6723,989,979
6724,989,977
6725,989,975
6726,988,973
6727,986,973
6728,989,972
6729,989,974
6730,988,973
6731,984,971
6732,984,967
6733,983,969
6734,984,968
6735,986,968
6736,983,970
6737,982,971
6738,981,970
6739,979,973
6740,979,973
6741,981,975
6742,980,974
6743,979,973
6744,978,973
6745,978,972
6746,979,972
6747,979,974
6748,979,972
6749,978,970
6750,977,966
6751,976,972
6752,979,972
6753,978,977
6754,980,975
6755,980,976
6756,977,974
6757,976,974
6758,979,976
6759,982,979
6760,982,984
6761,981,979
6762,979,979
6763,977,980
6764,979,982
6765,982,982
6766,983,983
6767,981,982
6768,978,981
6769,977,982
6770,978,982
6771,979,985
6772,980,985
6773,979,986
6774,977,984
6775,977,987
6776,977,990
6777,979,994
6778,981,995
6779,980,995
6780,978,991
6781,979,995
6782,983,997
6783,985,999
6784,986,997
6785,983,996
6786,980,990
6787,979,989
6788,981,990
6789,982,990
6790,983,986
6791,981,979
6792,981,973
6793,979,971
6794,977,970
6795,979,970
6796,977,971
6797,974,968
6798,973,966
6799,973,967
6800,974,970
6801,976,974
6802,977,968
6803,974,967
6804,971,967
6805,971,969
6806,973,970
6807,974,975
6808,974,971
6809,974,969
6810,971,969
6811,973,972
6812,974,973
6813,978,975
6814,979,974
6815,977,970
6816,974,970
6817,974,974
6818,973,975
6819,977,976
6820,977,979
6821,976,980
6822,978,977
6823,980,972
6824,983,959
6825,988,945
6826,991,929
6827,996,916
6828,1009,901
6829,1028,886
6830,1051,865
6831,1072,843
6832,1094,825
6833,1120,823
6834,1144,832
6835,1162,851
6836,1179,877
6837,1189,907
6838,1183,938
6839,1161,961
6840,1128,972
6841,1083,978
6842,1043,978
6843,1017,978
6844,1002,982
6845,994,983
6846,986,984
6847,985,986
6848,987,988
6849,990,989
6850,990,988
6851,987,986
6852,979,982
6853,977,979
6854,977,980
6855,976,978
6856,974,975
6857,972,970
6858,971,967
6859,968,967
6860,971,968
6861,973,969
6862,974,971
6863,972,969
6864,970,967
6865,969,970
6866,970,972
6867,972,972
6868,969,971
6869,970,969
6870,967,967
6871,967,970
6872,968,972
6873,972,973
6874,972,974
6875,971,971
6876,969,971
6877,969,973
6878,972,975
6879,974,979
6880,974,977
6881,972,976
6882,971,973
6883,971,974
6884,974,976
6885,974,977
6886,976,977
6887,975,973
6888,973,970
6889,971,972
6890,975,974
6891,976,976
6892,978,975
6893,978,971
6894,976,970
6895,976,974
6896,977,975
6897,979,974
6898,981,973
6899,980,970
6900,981,970
6901,980,971
6902,982,977
6903,983,975
6904,985,975
6905,983,971
6906,982,970
6907,983,975
6908,987,978
6909,991,980
6910,991,977
6911,994,974
6912,996,972
6913,999,970
6914,1001,972
6915,1003,971
6916,1002,972
6917,1000,967
6918,999,967
6919,997,968
6920,997,971
6921,998,971
6922,996,972
6923,995,973
6924,994,973
6925,990,974
6926,990,978
6927,988,979
6928,987,982
6929,984,980
6930,980,977
6931,978,979
6932,979,980
6933,977,984
6934,976,982
6935,975,981
6936,974,979
6937,970,980
6938,972,981
6939,970,984
6940,973,982
6941,971,978
6942,971,978
6943,969,978
6944,968,980
6945,969,979
6946,971,982
6947,970,978
6948,970,976
6949,966,978
6950,970,977
6951,973,977
6952,976,978
6953,975,975
6954,974,975
6955,973,977
6956,976,978
6957,978,980
6958,979,983
6959,981,980
6960,979,978
6961,979,979
6962,980,979
6963,983,981
6964,980,983
6965,979,979
6966,979,977
6967,980,977
6968,980,980
6969,983,979
6970,983,978
6971,981,974
6972,980,975
6973,979,977
6974,981,981
6975,979,983
6976,980,979
6977,978,981
6978,976,979
6979,975,985
6980,977,986
6981,978,986
6982,977,986
6983,976,984
6984,975,983
6985,975,983
6986,976,984
6987,977,981
6988,973,981
6989,971,979
6990,970,979
6991,970,980
6992,971,983
6993,972,983
6994,971,982
6995,971,983
6996,969,984
6997,968,984
6998,972,984
6999,973,983
7000,975,981
7001,976,980
7002,974,976
7003,973,978
7004,974,980
7005,974,981
7006,975,981
7007,975,981
7008,974,980
7009,976,982
7010,973,982
7011,974,980
7012,974,973
7013,975,973
7014,974,969
7015,972,971
7016,974,973
7017,977,972
7018,978,971
7019,977,967
7020,974,967
7021,973,967
7022,974,966
7023,975,969
7024,974,971
7025,976,977
7026,974,975
7027,975,976
7028,976,975
7029,977,976
7030,978,976
7031,978,973
7032,975,973
7033,974,975
7034,978,976
7035,976,978
7036,977,980
7037,977,978
7038,978,978
7039,976,981
7040,978,982
7041,977,985
7042,978,986
7043,978,985
7044,975,985
7045,975,985
7046,975,987
7047,978,988
7048,977,988
7049,977,987
7050,975,984
7051,974,987
7052,976,992
7053,978,994
7054,980,992
7055,982,983
7056,986,966
7057,990,947
7058,994,927
7059,1000,914
7060,1010,897
7061,1027,877
7062,1046,858
7063,1066,836
7064,1083,814
7065,1107,804
7066,1130,804
7067,1150,813
7068,1164,822
7069,1178,843
7070,1190,876
7071,1188,911
7072,1168,941
7073,1135,960
7074,1099,967
7075,1060,971
7076,1029,968
7077,1012,968
7078,1000,967
7079,992,967
7080,987,966
7081,989,969
7082,991,968
7083,991,974
7084,988,973
7085,983,974
7086,979,973
7087,977,972
7088,976,979
7089,976,980
7090,974,980
7091,971,979
7092,970,978
7093,968,982
7094,970,983
7095,970,985
7096,970,985
7097,970,981
7098,970,980
7099,970,982
7100,971,984
7101,972,985
7102,972,982
7103,970,981
7104,969,979
7105,968,982
7106,969,984
7107,972,983
7108,972,984
7109,971,981
7110,972,978
7111,971,976
7112,975,977
7113,977,974
7114,978,973
7115,977,970
7116,974,969
7117,975,970
7118,979,971
7119,982,972
7120,983,971
7121,982,967
7122,981,965
7123,980,965
7124,983,965
7125,983,965
7126,982,965
7127,982,963
7128,980,964
7129,981,965
7130,982,967
7131,983,966
7132,980,965
7133,980,965
7134,981,964
7135,982,968
7136,985,972
7137,988,975
7138,987,971
7139,987,971
7140,988,968
7141,988,971
7142,990,975
7143,994,975
7144,992,975
7145,992,972
7146,991,968
7147,993,969
7148,993,971
7149,998,970
7150,998,970
7151,998,967
7152,996,965
7153,998,965
7154,1000,970
7155,1002,971
7156,1004,972
7157,1003,969
7158,1001,970
7159,1000,976
7160,1001,980
7161,1003,981
7162,1001,978
7163,999,974
7164,995,976
7165,994,977
7166,994,980
7167,992,981
7168,993,980
7169,993,976
7170,990,976
7171,989,977
7172,991,975
7173,991,976
7174,990,974
7175,988,974
7176,986,973
7177,985,974
7178,982,972
7179,983,973
7180,984,973
7181,982,968
7182,979,968
7183,979,968
7184,978,969
7185,981,971
7186,980,969
7187,978,968
7188,977,968
7189,975,972
7190,978,974
7191,978,974
7192,978,974
7193,977,974
7194,977,974
7195,977,978
7196,979,979
7197,981,983
7198,981,982
7199,980,983
7200,981,980
7201,982,983
7202,984,985
7203,986,985
7204,986,986
7205,982,983
7206,983,982
7207,983,983
7208,986,986
7209,988,988
7210,988,984
7211,986,986
7212,985,984
7213,985,989
7214,988,987
7215,988,988
7216,986,986
7217,985,984
7218,982,982
7219,982,985
7220,986,990
7221,989,990
7222,988,985
7223,984,979
7224,980,976
7225,984,973
7226,983,974
7227,986,976
7228,986,977
7229,983,973
7230,982,972
7231,982,973
7232,984,973
7233,987,975
7234,987,971
7235,984,971
7236,982,968
7237,983,970
7238,983,971
7239,984,975
7240,984,971
7241,981,970
7242,980,967
7243,979,966
7244,979,964
7245,978,970
7246,980,970
7247,978,969
7248,976,971
7249,974,971
7250,974,974
7251,974,975
7252,975,978
7253,974,977
7254,972,977
7255,972,977
7256,975,982
7257,975,982
7258,976,982
7259,976,983
7260,973,982
7261,973,983
7262,975,986
7263,978,987
7264,979,986
7265,977,983
7266,975,980
7267,975,980
7268,975,984
7269,977,985
7270,978,987
7271,979,981
7272,978,982
7273,979,984
7274,980,986
7275,981,992
7276,984,990
7277,983,988
7278,983,983
7279,980,983
7280,981,984
7281,982,984
7282,984,981
7283,982,981
7284,980,980
7285,979,978
7286,979,981
7287,982,981
7288,980,979
7289,980,979
7290,978,975
7291,977,978
7292,979,974
7293,982,975
7294,982,976
7295,982,973
7296,979,972
7297,979,971
7298,980,974
7299,980,978
7300,978,978
7301,977,977
7302,975,978
7303,976,979
7304,980,983
7305,980,988
7306,982,995
7307,982,991
7308,984,990
7309,987,987
7310,992,977
7311,997,959
7312,1001,937
7313,1007,917
7314,1016,903
7315,1029,886
7316,1054,870
7317,1074,855
7318,1095,838
7319,1118,825
7320,1143,826
7321,1167,839
7322,1191,856
7323,1211,873
7324,1228,892
7325,1232,922
7326,1213,952
7327,1175,976
7328,1130,994
7329,1083,1001
7330,1039,1000
7331,1006,986
7332,988,974
7333,974,969
7334,972,971
7335,977,974
7336,983,976
7337,990,973
7338,991,973
7339,989,973
7340,988,976
7341,987,977
7342,986,975
7343,980,974
7344,979,973
7345,978,973
7346,977,976
7347,977,975
7348,976,977
7349,976,975
7350,974,975
7351,975,978
7352,975,978
7353,976,980
7354,976,979
7355,974,976
7356,973,975
7357,973,977
7358,975,980
7359,975,980
7360,973,979
7361,974,978
7362,972,976
7363,970,979
7364,970,981
7365,971,980
7366,970,978
7367,969,976
7368,967,975
7369,969,977
7370,970,975
7371,974,976
7372,973,974
7373,975,972
7374,975,971
7375,977,973
7376,978,976
7377,982,976
7378,982,975
7379,983,974
7380,982,971
7381,983,972
7382,983,973
7383,985,973
7384,986,972
7385,986,969
7386,985,965
7387,983,967
7388,986,969
7389,987,968
7390,989,966
7391,987,963
7392,986,961
7393,987,964
7394,988,966
7395,991,964
7396,991,961
7397,991,959
7398,990,955
7399,988,959
7400,990,959
7401,991,959
7402,992,957
7403,991,955
7404,990,955
7405,990,957
7406,992,961
7407,993,961
7408,995,963
7409,996,960
7410,993,956
7411,995,960
7412,997,962
7413,999,966
7414,1000,967
7415,1000,965
7416,997,963
7417,997,964
7418,999,970
7419,999,969
7420,999,972
7421,998,970
7422,992,970
7423,991,970
7424,993,972
7425,990,975
7426,992,976
7427,986,975
7428,984,974
7429,984,976
7430,985,977
7431,985,979
7432,985,980
7433,982,979
7434,981,977
7435,979,978
7436,980,980
7437,980,979
7438,977,979
7439,974,978
7440,975,976
7441,973,980
7442,975,979
7443,977,981
7444,977,982
7445,976,978
7446,976,979
7447,975,981
7448,978,983
7449,980,982
7450,982,983
7451,981,980
7452,981,979
7453,981,981
7454,984,985
7455,984,982
7456,982,983
7457,982,979
7458,980,980
7459,979,983
7460,984,986
7461,983,987
7462,981,987
7463,981,987
7464,979,984
7465,980,984
7466,982,985
7467,984,985
7468,985,984
7469,984,982
7470,982,980
7471,982,982
7472,985,984
7473,985,985
7474,985,984
7475,984,982
7476,981,980
7477,981,984
7478,981,987
7479,984,989
7480,984,987
7481,983,985
7482,979,986
7483,979,985
7484,980,989
7485,979,989
7486,980,991
7487,978,989
7488,977,988
7489,978,989
7490,978,990
7491,981,989
7492,981,988
7493,981,982
7494,979,981
7495,978,981
7496,977,982
7497,980,981
7498,980,979
7499,977,976
7500,974,975
7501,975,978
7502,977,981
7503,980,982
7504,979,983
7505,976,980
7506,976,982
7507,976,984
7508,977,984
7509,980,984
7510,978,983
7511,978,982
7512,976,980
7513,975,981
7514,977,983
7515,979,983
7516,979,983
7517,977,982
7518,976,980
7519,974,983
7520,976,984
7521,977,986
7522,977,985
7523,977,982
7524,975,979
7525,975,980
7526,974,980
7527,976,982
7528,978,983
7529,976,979
7530,976,979
7531,973,980
7532,975,984
7533,977,982
7534,978,982
7535,977,982
7536,976,981
7537,972,981
7538,974,983
7539,975,983
7540,978,984
7541,975,982
7542,974,982
7543,974,983
7544,976,985
7545,976,985
7546,974,985
7547,974,985
7548,974,984
7549,973,983
7550,974,985
7551,975,983
7552,976,981
7553,974,979
7554,973,974
7555,974,979
7556,976,980
7557,976,979
7558,975,979
7559,974,974
7560,975,973
7561,974,973
7562,975,975
7563,977,976
7564,975,978
7565,975,979
7566,975,979
7567,973,978
7568,975,980
7569,977,981
7570,978,980
7571,976,977
7572,977,977
7573,979,981
7574,980,982
7575,981,982
7576,980,980
7577,979,979
7578,980,976
7579,979,977
7580,982,980
7581,980,981
7582,980,982
7583,980,980
7584,978,977
7585,978,977
7586,979,982
7587,979,981
7588,980,980
7589,978,981
7590,977,980
7591,975,982
7592,976,980
7593,978,981
7594,979,983
7595,977,986
7596,978,987
7597,978,988
7598,980,992
7599,985,988
7600,989,976
7601,995,957
7602,996,942
7603,1001,925
7604,1014,915
7605,1034,901
7606,1055,880
7607,1076,858
7608,1098,835
7609,1120,826
7610,1145,827
7611,1166,836
7612,1185,845
7613,1198,857
7614,1209,875
7615,1209,909
7616,1193,939
7617,1171,958
7618,1140,971
7619,1104,977
7620,1065,977
7621,1032,974
7622,1011,971
7623,1003,970
7624,993,970
7625,991,974
7626,992,976
7627,997,983
7628,1001,984
7629,999,983
7630,994,981
7631,990,978
7632,987,975
7633,985,974
7634,985,977
7635,983,975
7636,981,975
7637,978,971
7638,974,970
7639,974,972
7640,972,974
7641,975,974
7642,970,973
7643,970,971
7644,968,972
7645,966,975
7646,967,976
7647,969,976
7648,968,978
7649,967,979
7650,963,979
7651,962,981
7652,965,982
7653,969,981
7654,971,979
7655,972,978
7656,970,976
7657,971,979
7658,972,982
7659,974,981
7660,974,981
7661,973,978
7662,970,978
7663,971,980
7664,975,982
7665,975,981
7666,977,978
7667,976,976
7668,977,973
7669,977,975
7670,981,974
7671,983,972
7672,981,970
7673,983,968
7674,982,967
7675,984,967
7676,984,970
7677,987,970
7678,984,968
7679,983,965
7680,984,961
7681,984,963
7682,988,965
7683,990,965
7684,990,964
7685,989,963
7686,987,962
7687,988,962
7688,990,966
7689,991,964
7690,989,963
7691,987,961
7692,983,960
7693,985,963
7694,988,968
7695,992,972
7696,991,969
7697,990,967
7698,992,969
7699,995,971
7700,1000,974
7701,1005,977
7702,1004,977
7703,1003,975
7704,1003,976
7705,1002,979
7706,1004,982
7707,1006,984
7708,1006,983
7709,1003,982
7710,1001,980
7711,1000,981
7712,1002,983
7713,1003,983
7714,1002,983
7715,1000,982
7716,999,983
7717,998,986
7718,999,987
7719,1000,988
7720,1000,985
7721,997,982
7722,994,977
7723,992,978
7724,993,979
7725,998,978
7726,995,976
7727,994,972
7728,990,969
7729,991,971
7730,990,974
7731,992,973
7732,991,974
7733,988,970
7734,982,969
7735,983,970
7736,985,973
7737,985,972
7738,985,970
7739,982,968
7740,980,964
7741,980,968
7742,981,970
7743,980,975
7744,982,975
7745,980,974
7746,978,976
7747,979,976
7748,979,978
7749,980,980
7750,980,982
7751,981,980
7752,979,979
7753,976,982
7754,977,984
7755,979,983
7756,978,984
7757,978,982
7758,975,980
7759,975,982
7760,975,987
7761,974,989
7762,976,988
7763,976,988
7764,975,987
7765,977,988
7766,979,992
7767,982,992
7768,982,988
7769,982,987
7770,981,987
7771,980,987
7772,981,989
7773,985,989
7774,986,985
7775,986,983
7776,984,981
7777,986,982
7778,989,983
7779,990,982
7780,990,980
7781,990,979
7782,990,976
7783,990,977
7784,992,977
7785,990,977
7786,990,975
7787,988,973
7788,988,971
7789,988,973
7790,990,976
7791,990,972
7792,987,972
7793,988,970
7794,988,971
7795,987,977
7796,987,974
7797,987,975
7798,986,973
7799,985,970
7800,983,971
7801,983,974
7802,988,978
7803,990,979
7804,992,972
7805,996,956
7806,998,942
7807,1001,930
7808,1007,921
7809,1019,912
7810,1035,899
7811,1050,884
7812,1063,864
7813,1076,845
7814,1091,833
7815,1115,826
7816,1134,831
7817,1145,836
7818,1154,847
7819,1165,864
7820,1173,889
7821,1172,920
7822,1154,947
7823,1130,958
7824,1100,964
7825,1063,968
7826,1034,970
7827,1017,970
7828,1007,970
7829,997,973
7830,991,972
7831,986,978
7832,986,982
7833,989,983
7834,988,983
7835,986,984
7836,982,983
7837,979,980
7838,981,980
7839,980,979
7840,982,979
7841,982,978
7842,982,977
7843,980,981
7844,980,984
7845,983,986
7846,981,985
7847,980,981
7848,982,981
7849,980,983
7850,981,984
7851,981,986
7852,978,985
7853,976,982
7854,976,986
7855,974,987
7856,977,988
7857,977,991
7858,976,986
7859,976,982
7860,974,984
7861,974,984
7862,974,987
7863,977,988
7864,976,987
7865,977,987
7866,976,983
7867,977,986
7868,978,988
7869,978,988
7870,978,988
7871,981,985
7872,979,983
7873,977,987
7874,980,989
7875,981,988
7876,980,987
7877,981,983
7878,980,981
7879,981,979
7880,983,981
7881,984,982
7882,983,980
7883,983,977
7884,982,976
7885,983,976
7886,986,977
7887,987,977
7888,985,978
7889,985,975
7890,984,976
7891,987,974
7892,989,975
7893,992,974
7894,993,970
7895,993,968
7896,993,967
7897,995,969
7898,998,969
7899,1000,967
7900,1000,966
7901,998,965
7902,998,963
7903,998,963
7904,1002,965
7905,1001,967
7906,1001,964
7907,1000,964
7908,999,966
7909,998,970
7910,1001,975
7911,1003,977
7912,1002,982
7913,1002,980
7914,1000,979
7915,1001,983
7916,1000,985
7917,1000,988
7918,997,989
7919,994,989
7920,992,988
7921,992,990
7922,992,994
7923,994,993
7924,991,992
7925,988,991
7926,986,990
7927,985,994
7928,984,995
7929,986,994
7930,982,995
7931,979,992
7932,978,992
7933,979,993
7934,980,995
7935,980,995
7936,978,994
7937,974,992
7938,973,990
7939,974,992
7940,975,993
7941,976,994
7942,974,992
7943,971,989
7944,971,991
7945,973,990
7946,976,991
7947,977,991
7948,976,989
7949,974,987
7950,974,980
7951,974,979
7952,979,979
7953,982,975
7954,982,973
7955,984,971
7956,983,969
7957,981,974
7958,983,974
7959,985,975
7960,981,973
7961,981,972
7962,982,972
7963,981,973
7964,982,977
7965,982,980
7966,981,984
7967,982,983
7968,983,986
7969,983,988
7970,988,990
7971,989,990
7972,985,991
7973,985,992
7974,983,991
7975,983,993
7976,985,995
7977,985,995
7978,984,996
7979,983,992
7980,982,993
7981,981,996
7982,983,996
7983,983,995
7984,981,994
7985,980,993
7986,979,992
7987,978,995
7988,979,997
7989,981,997
7990,976,997
7991,977,992
7992,975,995
7993,975,996
7994,975,997
7995,975,998
7996,975,996
7997,974,997
7998,972,995
7999,972,996
8000,973,998
8001,977,999
8002,976,998
8003,975,996
8004,971,998
8005,973,998
8006,975,998
8007,978,998
8008,975,1000
8009,974,997
8010,972,996
8011,972,1001
8012,972,999
8013,975,996
8014,975,998
8015,975,995
8016,973,993
8017,971,992
8018,970,991
8019,972,990
8020,975,986
8021,975,982
8022,976,977
8023,976,978
8024,978,979
8025,980,980
8026,982,978
8027,985,977
8028,985,977
8029,984,976
8030,989,976
8031,988,976
8032,987,980
8033,987,975
8034,986,973
8035,985,973
8036,985,974
8037,986,975
8038,987,975
8039,987,974
8040,984,973
8041,985,973
8042,987,974
8043,989,975
8044,988,976
8045,988,978
8046,987,978
8047,986,980
8048,985,980
8049,988,982
8050,988,979
8051,986,978
8052,986,978
8053,984,984
8054,988,988
8055,988,989
8056,990,989
8057,994,983
8058,994,966
8059,999,946
8060,1001,926
8061,1009,905
8062,1022,890
8063,1040,870
8064,1059,852
8065,1079,829
8066,1102,818
8067,1127,820
8068,1151,833
8069,1169,848
8070,1184,864
8071,1198,888
8072,1205,918
8073,1197,949
8074,1173,977
8075,1140,994
8076,1102,1004
8077,1060,1009
8078,1030,1003
8079,1010,992
8080,997,984
8081,987,979
8082,984,979
8083,988,982
8084,996,985
8085,1003,982
8086,1003,985
8087,999,983
8088,995,979
8089,994,983
8090,993,985
8091,993,982
8092,992,980
8093,992,976
8094,990,977
8095,989,976
8096,990,978
8097,992,977
8098,990,975
8099,988,975
8100,985,974
8101,983,974
8102,984,978
8103,984,976
8104,980,975
8105,981,972
8106,980,974
8107,979,975
8108,981,976
8109,981,977
8110,981,979
8111,980,976
8112,978,976
8113,980,980
8114,980,981
8115,983,978
8116,983,977
8117,981,975
8118,979,971
8119,979,975
8120,980,978
8121,981,979
8122,982,978
8123,980,978
8124,980,978
8125,981,980
8126,986,982
8127,986,980
8128,987,978
8129,987,978
8130,987,976
8131,987,977
8132,988,977
8133,989,975
8134,987,975
8135,985,973
8136,984,972
8137,984,974
8138,990,972
8139,992,972
8140,990,969
8141,990,966
8142,991,963
8143,993,964
8144,995,965
8145,998,963
8146,996,961
8147,996,957
8148,994,954
8149,995,957
8150,999,959
8151,1002,960
8152,1001,956
8153,1000,954
8154,999,953
8155,1001,956
8156,1004,957
8157,1006,956
8158,1005,955
8159,1006,954
8160,1002,952
8161,1004,956
8162,1008,962
8163,1009,962
8164,1009,965
8165,1006,962
8166,1006,963
8167,1005,967
8168,1006,972
8169,1007,974
8170,1007,975
8171,1006,972
8172,1002,971
8173,1002,976
8174,1004,979
8175,1004,981
8176,1001,982
8177,999,982
8178,996,983
8179,996,985
8180,998,993
8181,999,991
8182,998,993
8183,996,989
8184,994,989
8185,991,990
8186,993,992
8187,994,992
8188,994,990
8189,992,988
8190,989,989
8191,987,991
8192,988,993
8193,989,991
8194,987,988
8195,983,983
8196,984,983
8197,985,984
8198,984,988
8199,989,984
8200,987,984
8201,986,980
8202,984,976
8203,984,973
8204,985,974
8205,989,973
8206,988,971
8207,985,971
8208,982,970
8209,983,970
8210,985,974
8211,985,974
8212,984,972
8213,982,970
8214,982,970
8215,983,971
8216,986,973
8217,989,971
8218,988,970
8219,987,969
8220,986,969
8221,987,971
8222,990,975
8223,993,975
8224,991,978
8225,991,977
8226,990,977
8227,991,981
8228,994,982
8229,997,986
8230,995,988
8231,994,986
8232,990,984
8233,991,987
8234,992,988
8235,991,988
8236,991,988
8237,989,985
8238,986,988
8239,987,990
8240,986,990
8241,989,989
8242,988,990
8243,987,986
8244,988,985
8245,986,985
8246,989,983
8247,989,982
8248,989,979
8249,987,977
8250,986,976
8251,986,978
8252,987,979
8253,988,978
8254,988,979
8255,987,977
8256,984,975
8257,982,979
8258,983,980
8259,983,978
8260,981,978
8261,980,975
8262,980,974
8263,980,978
8264,981,980
8265,985,980
8266,985,979
8267,985,975
8268,985,974
8269,985,974
8270,985,977
8271,986,977
8272,986,978
8273,984,979
8274,983,979
8275,986,979
8276,988,979
8277,991,980
8278,991,981
8279,989,982
8280,988,978
8281,987,983
8282,987,984
8283,988,986
8284,989,983
8285,988,984
8286,987,986
8287,987,992
8288,990,996
8289,993,993
8290,996,987
8291,999,969
8292,999,948
8293,1004,929
8294,1011,913
8295,1029,898
8296,1051,879
8297,1074,855
8298,1092,837
8299,1118,829
8300,1146,839
8301,1173,853
8302,1194,870
8303,1212,886
8304,1219,911
8305,1216,944
8306,1192,970
8307,1157,987
8308,1114,1000
8309,1070,999
8310,1029,989
8311,1002,978
8312,988,972
8313,980,969
8314,977,968
8315,978,968
8316,982,967
8317,989,971
8318,990,974
8319,986,977
8320,986,977
8321,982,979
8322,981,976
8323,981,979
8324,983,982
8325,983,982
8326,986,980
8327,984,977
8328,981,978
8329,979,978
8330,981,978
8331,984,978
8332,980,978
8333,977,976
8334,977,974
8335,976,978
8336,978,980
8337,978,982
8338,978,981
8339,977,978
8340,975,975
8341,979,978
8342,979,980
8343,983,981
8344,983,978
8345,980,975
8346,977,975
8347,978,981
8348,981,985
8349,983,983
8350,984,982
8351,982,977
8352,980,976
8353,980,977
8354,983,979
8355,986,979
8356,985,976
8357,985,970
8358,983,969
8359,983,967
8360,986,969
8361,988,967
8362,987,966
8363,987,963
8364,985,959
8365,987,963
8366,989,962
8367,992,960
8368,993,960
8369,990,959
8370,989,960
8371,991,965
8372,996,967
8373,998,965
8374,999,966
8375,1000,966
8376,997,963
8377,997,965
8378,1001,968
8379,1002,968
8380,1000,966
8381,999,965
8382,996,964
8383,1000,966
8384,1001,968
8385,1004,966
8386,1002,966
8387,1002,964
8388,1001,963
8389,1002,963
8390,1001,964
8391,1001,965
8392,1001,961
8393,998,962
8394,995,961
8395,995,964
8396,999,966
8397,999,967
8398,999,970
8399,996,971
8400,995,974
8401,995,976
8402,995,978
8403,997,980
8404,996,978
8405,993,976
8406,991,976
8407,991,979
8408,991,979
8409,991,978
8410,992,979
8411,988,978
8412,986,977
8413,987,980
8414,985,983
8415,989,981
8416,988,979
8417,985,976
8418,984,976
8419,984,978
8420,986,980
8421,989,981
8422,988,981
8423,988,978
8424,988,979
8425,989,981
8426,991,985
8427,990,985
8428,990,982
8429,987,982
8430,986,980
8431,983,981
8432,986,983
8433,987,982
8434,985,982
8435,982,980
8436,981,981
8437,983,983
8438,985,983
8439,987,982
8440,985,979
8441,983,976
8442,982,975
8443,981,976
8444,986,978
8445,986,979
8446,989,976
8447,986,974
8448,985,971
8449,986,973
8450,987,975
8451,988,974
8452,990,973
8453,987,972
8454,985,972
8455,985,971
8456,988,970
8457,989,969
8458,989,968
8459,988,966
8460,986,966
8461,985,968
8462,988,973
8463,991,972
8464,989,972
8465,986,971
8466,983,971
8467,985,969
8468,986,971
8469,987,972
8470,986,971
8471,987,971
8472,986,971
8473,987,974
8474,986,976
8475,990,977
8476,990,978
8477,991,975
8478,989,975
8479,988,976
8480,990,976
8481,990,976
8482,989,975
8483,985,975
8484,984,975
8485,984,978
8486,985,979
8487,988,978
8488,987,977
8489,985,976
8490,984,975
8491,984,979
8492,987,982
8493,988,982
8494,988,979
8495,988,979
8496,986,981
8497,987,985
8498,992,989
8499,995,989
8500,998,984
8501,999,968
8502,999,948
8503,1003,932
8504,1010,919
8505,1021,906
8506,1035,889
8507,1054,868
8508,1071,845
8509,1092,822
8510,1115,810
8511,1137,807
8512,1160,813
8513,1174,824
8514,1186,842
8515,1199,871
8516,1197,902
8517,1181,928
8518,1154,946
8519,1121,957
8520,1077,959
8521,1042,960
8522,1022,959
8523,1012,964
8524,1006,967
8525,999,969
8526,994,973
8527,997,977
8528,998,980
8529,1000,983
8530,995,981
8531,990,983
8532,986,982
8533,986,986
8534,985,989
8535,983,987
8536,982,986
8537,981,984
8538,980,985
8539,979,986
8540,981,989
8541,979,990
8542,980,991
8543,978,990
8544,976,988
8545,975,989
8546,977,991
8547,980,992
8548,980,990
8549,980,988
8550,977,984
8551,977,985
8552,979,981
8553,982,980
8554,984,978
8555,983,972
8556,981,969
8557,984,968
8558,982,972
8559,987,972
8560,988,970
8561,986,964
8562,985,966
8563,984,968
8564,985,971
8565,985,970
8566,985,967
8567,983,964
8568,981,961
8569,982,959
8570,984,962
8571,988,963
8572,989,964
8573,987,960
8574,987,958
8575,988,963
8576,990,965
8577,990,965
8578,994,967
8579,994,965
8580,993,967
8581,996,970
8582,1001,970
8583,1001,969
8584,1003,970
8585,1001,966
8586,999,972
8587,1000,974
8588,1003,976
8589,1006,976
8590,1005,975
8591,1004,974
8592,1005,973
8593,1006,975
8594,1009,977
8595,1007,976
8596,1004,976
8597,1003,975
8598,1001,977
8599,1003,975
8600,1003,975
8601,1003,974
8602,1001,971
8603,998,970
8604,998,967
8605,998,969
8606,1001,969
8607,998,970
8608,997,970
8609,994,966
8610,992,965
8611,990,965
8612,990,968
8613,991,966
8614,988,967
8615,987,964
8616,985,964
8617,986,967
8618,985,969
8619,988,970
8620,986,968
8621,985,969
8622,984,968
8623,984,971
8624,986,974
8625,991,971
8626,992,972
8627,992,970
8628,991,969
8629,991,974
8630,992,977
8631,995,977
8632,996,981
8633,995,977
8634,994,977
8635,995,982
8636,996,983
8637,998,985
8638,999,980
8639,995,978
8640,990,975
8641,992,976
8642,994,977
8643,996,978
8644,993,976
8645,991,975
8646,985,975
8647,985,980
8648,986,980
8649,986,981
8650,988,978
8651,989,977
8652,990,972
8653,992,969
8654,996,957
8655,1001,935
8656,1006,913
8657,1011,897
8658,1021,886
8659,1040,874
8660,1066,865
8661,1088,846
8662,1106,824
8663,1127,801
8664,1148,798
8665,1173,805
8666,1194,822
8667,1201,841
8668,1204,867
8669,1188,899
8670,1159,931
8671,1123,952
8672,1086,958
8673,1050,955
8674,1024,951
8675,1013,950
8676,1009,954
8677,1008,961
8678,1007,963
8679,1004,966
8680,1003,968
8681,998,967
8682,993,968
8683,992,971
8684,990,976
8685,990,979
8686,988,979
8687,985,975
8688,982,972
8689,981,975
8690,983,977
8691,981,978
8692,980,977
8693,977,975
8694,973,974
8695,975,976
8696,975,980
8697,974,981
8698,974,980
8699,971,975
8700,968,976
8701,970,979
8702,971,982
8703,971,983
8704,971,981
8705,969,979
8706,966,978
8707,967,984
8708,969,986
8709,973,986
8710,971,983
8711,971,980
8712,971,979
8713,972,979
8714,973,982
8715,974,986
8716,973,984
8717,972,982
8718,972,981
8719,973,982
8720,977,984
8721,978,982
8722,977,984
8723,977,978
8724,977,975
8725,977,972
8726,978,971
8727,980,969
8728,978,967
8729,980,964
8730,981,960
8731,983,961
8732,988,960
8733,994,959
8734,998,956
8735,999,955
8736,1000,953
8737,1004,954
8738,1007,953
8739,1007,951
8740,1006,949
8741,1005,947
8742,1006,945
8743,1006,949
8744,1006,950
8745,1011,952
8746,1011,950
8747,1011,951
8748,1010,952
8749,1011,954
8750,1012,957
8751,1013,959
8752,1011,959
8753,1009,958
8754,1007,960
8755,1005,962
8756,1004,966
8757,1004,968
8758,1002,970
8759,998,968
8760,993,971
8761,993,975
8762,992,978
8763,992,980
8764,989,982
8765,988,981
8766,986,981
8767,986,982
8768,984,982
8769,985,980
8770,984,980
8771,983,979
8772,983,980
8773,982,979
8774,984,981
8775,984,981
8776,983,980
8777,982,979
8778,982,977
8779,983,980
8780,983,984
8781,982,986
8782,981,984
8783,981,985
8784,981,985
8785,984,989
8786,987,990
8787,984,991
8788,982,992
8789,980,989
8790,977,987
8791,979,989
8792,981,991
8793,982,990
8794,983,988
8795,985,983
8796,985,979
8797,985,976
8798,988,977
8799,989,976
8800,990,975
8801,988,973
8802,988,972
8803,988,973
8804,989,976
8805,988,975
8806,986,973
8807,984,970
8808,983,971
8809,983,973
8810,984,975
8811,983,972
8812,983,972
8813,981,974
8814,979,971
8815,980,974
8816,979,976
8817,979,977
8818,978,978
8819,977,978
8820,975,978
8821,976,979
8822,976,980
8823,975,979
8824,975,976
8825,977,975
8826,973,975
8827,973,976
8828,972,979
8829,974,979
8830,976,980
8831,975,977
8832,974,975
8833,976,977
8834,978,976
8835,979,977
8836,977,979
8837,975,979
8838,974,978
8839,977,980
8840,978,981
8841,978,980
8842,979,980
8843,977,978
8844,974,977
8845,976,980
8846,976,981
8847,977,982
8848,977,983
8849,977,980
8850,976,982
8851,975,985
8852,973,988
8853,976,989
8854,976,992
8855,973,987
8856,972,986
8857,973,990
8858,977,992
8859,980,990
8860,982,988
8861,981,984
8862,982,981
8863,985,979
8864,986,982
8865,985,981
8866,987,975
8867,985,972
8868,984,971
8869,982,970
8870,985,972
8871,987,973
8872,987,973
8873,984,974
8874,983,973
8875,983,975
8876,984,975
8877,987,978
8878,988,973
8879,986,969
8880,983,968
8881,983,972
8882,986,973
8883,988,973
8884,988,973
8885,987,972
8886,987,969
8887,988,969
8888,990,973
8889,990,973
8890,991,974
8891,991,972
8892,988,972
8893,989,976
8894,991,976
8895,992,977
8896,993,974
8897,990,974
8898,988,975
8899,990,978
8900,990,977
8901,991,978
8902,991,980
8903,988,979
8904,987,979
8905,987,985
8906,989,990
8907,991,991
8908,994,983
8909,997,965
8910,998,944
8911,1001,923
8912,1006,907
8913,1018,891
8914,1034,873
8915,1053,852
8916,1072,832
8917,1096,819
8918,1122,824
8919,1145,837
8920,1165,856
8921,1180,870
8922,1195,892
8923,1205,921
8924,1199,951
8925,1171,973
8926,1131,989
8927,1083,991
8928,1039,990
8929,1011,980
8930,996,971
8931,984,966
8932,979,964
8933,981,963
8934,985,962
8935,994,966
8936,996,969
8937,996,966
8938,992,967
8939,990,967
8940,988,969
8941,988,971
8942,988,974
8943,985,971
8944,982,973
8945,981,973
8946,980,972
8947,979,972
8948,980,974
8949,982,975
8950,979,975
8951,979,973
8952,977,976
8953,977,975
8954,977,976
8955,978,974
8956,976,976
8957,974,974
8958,971,973
8959,972,972
8960,971,972
8961,970,971
8962,971,971
8963,972,969
8964,971,969
8965,970,972
8966,971,971
8967,972,971
8968,972,972
8969,971,972
8970,969,970
8971,971,973
8972,972,972
8973,975,970
8974,976,971
8975,975,969
8976,973,969
8977,973,968
8978,974,969
8979,976,972
8980,977,973
8981,981,973
8982,982,972
8983,985,973
8984,989,976
8985,993,975
8986,997,976
8987,998,972
8988,1000,973
8989,1001,973
8990,1004,972
8991,1009,969
8992,1008,966
8993,1009,963
8994,1008,958
8995,1009,955
8996,1011,955
8997,1013,955
8998,1013,956
8999,1013,953
9000,1009,952
9001,1012,954
9002,1015,954
9003,1014,954
9004,1015,952
9005,1015,950
9006,1012,949
9007,1012,949
9008,1013,951
9009,1014,953
9010,1016,954
9011,1015,953
9012,1011,954
9013,1010,954
9014,1008,958
9015,1009,958
9016,1008,960
9017,1004,955
9018,1002,958
9019,1000,962
9020,1000,963
9021,999,964
9022,999,966
9023,994,965
9024,992,966
9025,992,968
9026,993,969
9027,994,970
9028,992,970
9029,989,970
9030,985,969
9031,986,971
9032,988,975
9033,990,977
9034,991,980
9035,991,977
9036,988,975
9037,988,977
9038,991,978
9039,992,980
9040,993,981
9041,990,979
9042,988,979
9043,989,985
9044,990,987
9045,993,990
9046,992,991
9047,994,989
9048,992,989
9049,992,985
9050,994,983
9051,995,981
9052,995,977
9053,995,972
9054,994,970
9055,995,973
9056,995,973
9057,995,973
9058,995,973
9059,993,968
9060,992,966
9061,993,966
9062,995,969
9063,994,968
9064,992,968
9065,990,965
9066,987,965
9067,988,969
9068,989,971
9069,991,972
9070,992,972
9071,989,968
9072,988,970
9073,987,969
9074,989,970
9075,991,969
9076,991,971
9077,991,968
9078,987,968
9079,985,968
9080,986,971
9081,988,973
9082,988,975
9083,988,974
9084,983,975
9085,984,977
9086,986,980
9087,989,982
9088,991,980
9089,991,979
9090,987,977
9091,987,976
9092,987,979
9093,988,979
9094,988,976
9095,986,976
9096,983,975
9097,984,980
9098,987,983
9099,988,986
9100,988,989
9101,986,989
9102,983,987
9103,986,981
9104,992,964
9105,997,942
9106,999,921
9107,1003,909
9108,1016,895
9109,1037,884
9110,1058,864
9111,1077,849
9112,1099,840
9113,1116,843
9114,1136,857
9115,1159,876
9116,1181,893
9117,1198,915
9118,1200,941
9119,1183,966
9120,1149,983
9121,1105,998
9122,1064,1001
9123,1030,995
9124,1003,980
9125,985,966
9126,971,961
9127,970,962
9128,980,964
9129,988,965
9130,996,964
9131,993,961
9132,987,963
9133,984,966
9134,986,970
9135,985,973
9136,986,973
9137,983,973
9138,982,971
9139,981,973
9140,984,977
9141,985,977
9142,984,978
9143,983,975
9144,979,974
9145,979,977
9146,980,979
9147,981,978
9148,981,978
9149,978,975
9150,975,975
9151,975,977
9152,977,978
9153,980,977
9154,980,977
9155,977,974
9156,974,973
9157,973,975
9158,977,977
9159,977,976
9160,979,975
9161,976,972
9162,974,973
9163,973,974
9164,976,977
9165,978,975
9166,978,976
9167,975,974
9168,975,976
9169,975,974
9170,977,975
9171,975,976
9172,977,975
9173,975,976
9174,974,973
9175,974,974
9176,974,976
9177,977,975
9178,975,975
9179,972,971
9180,971,973
9181,972,976
9182,976,979
9183,978,978
9184,982,978
9185,985,977
9186,985,979
9187,988,981
9188,992,978
9189,997,976
9190,997,974
9191,998,967
9192,997,967
9193,999,967
9194,999,966
9195,1000,966
9196,1001,964
9197,1001,964
9198,1000,962
9199,999,965
9200,999,969
9201,1000,971
9202,1000,971
9203,997,968
9204,996,968
9205,997,971
9206,997,975
9207,995,975
9208,993,974
9209,989,971
9210,985,971
9211,985,971
9212,986,975
9213,987,976
