'sample #','MLII','V1'
0,972,1037
1,972,1037
2,972,1037
3,972,1037
4,972,1037
5,972,1037
6,972,1037
7,972,1037
8,995,1037
9,989,1046
10,969,1049
11,948,1049
12,943,1046
13,947,1045
14,962,1046
15,976,1042
16,973,1036
17,959,1036
18,949,1039
19,955,1046
20,978,1049
21,1000,1049
22,1012,1046
23,1000,1047
24,980,1048
25,954,1056
26,951,1064
27,957,1065
28,972,1065
29,989,1068
30,1003,1068
31,996,1070
32,984,1075
33,977,1076
34,965,1077
35,945,1075
36,926,1075
37,929,1077
38,945,1077
39,961,1073
40,972,1070
41,982,1067
42,984,1060
43,992,1058
44,1005,1050
45,1016,1044
46,1020,1032
47,1017,1027
48,1006,1023
49,990,1025
50,976,1032
51,968,1031
52,964,1033
53,967,1028
54,969,1024
55,975,1027
56,987,1032
57,1004,1035
58,1013,1033
59,998,1023
60,965,1018
61,944,1016
62,955,1018
63,970,1019
64,973,1019
65,973,1023
66,981,1027
67,989,1029
68,993,1031
69,989,1023
70,977,1021
71,961,1017
72,957,1018
73,962,1025
74,972,1028
75,972,1030
76,963,1031
77,956,1036
78,968,1040
79,983,1052
80,992,1065
81,981,1072
82,956,1073
83,956,1068
84,991,1062
85,1032,1059
86,1060,1053
87,1070,1041
88,1076,1027
89,1075,1013
90,1079,1008
91,1110,1006
92,1164,997
93,1224,982
94,1281,967
95,1317,953
96,1330,942
97,1320,940
98,1301,940
99,1293,941
100,1295,932
101,1298,923
102,1289,922
103,1276,927
104,1258,938
105,1229,944
106,1190,953
107,1155,963
108,1128,973
109,1108,992
110,1096,1005
111,1072,1012
112,1024,1022
113,973,1030
114,945,1037
115,944,1044
116,966,1045
117,987,1044
118,991,1044
119,967,1042
120,938,1040
121,925,1036
122,927,1034
123,941,1016
124,951,1003
125,956,996
126,950,997
127,930,1007
128,917,1014
129,911,1020
130,917,1023
131,924,1021
132,936,1020
133,942,1022
134,942,1020
135,923,1017
136,893,1012
137,870,1013
138,869,1018
139,900,1025
140,934,1030
141,943,1030
142,931,1031
143,917,1034
144,909,1044
145,914,1055
146,920,1057
147,922,1045
148,926,1034
149,933,1021
150,922,1018
151,896,1022
152,886,1029
153,901,1030
154,925,1029
155,936,1026
156,943,1030
157,952,1030
158,956,1036
159,939,1036
160,910,1038
161,901,1043
162,919,1049
163,939,1056
164,940,1058
165,938,1063
166,944,1059
167,953,1063
168,951,1068
169,945,1073
170,944,1080
171,953,1081
172,958,1077
173,956,1072
174,958,1074
175,961,1078
176,969,1078
177,981,1074
178,997,1065
179,1009,1061
180,1008,1063
181,1013,1062
182,1018,1064
183,1020,1061
184,1017,1056
185,1015,1055
186,1014,1062
187,1010,1068
188,1011,1077
189,996,1077
190,982,1073
191,974,1067
192,983,1060
193,1022,1056
194,1049,1050
195,1040,1037
196,1014,1025
197,990,1012
198,979,1003
199,968,998
200,956,1003
201,960,1003
202,973,1000
203,994,1003
204,1015,1011
205,1022,1025
206,1022,1035
207,1031,1034
208,1027,1027
209,993,1020
210,933,1015
211,893,1015
212,896,1015
213,931,1012
214,966,1010
215,975,1011
216,972,1010
217,969,1019
218,969,1027
219,968,1029
220,960,1030
221,943,1029
222,936,1030
223,948,1028
224,979,1029
225,997,1027
226,989,1022
227,974,1026
228,960,1030
229,958,1040
230,972,1050
231,993,1050
232,1000,1043
233,988,1035
234,962,1035
235,950,1034
236,958,1039
237,964,1039
238,944,1037
239,924,1040
240,916,1040
241,922,1045
242,946,1051
243,980,1048
244,999,1045
245,991,1047
246,964,1056
247,949,1069
248,950,1073
249,948,1071
250,944,1064
251,947,1060
252,956,1054
253,960,1056
254,963,1057
255,974,1051
256,989,1044
257,995,1035
258,990,1032
259,974,1028
260,960,1025
261,955,1020
262,960,1013
263,984,1008
264,1010,1010
265,1010,1016
266,983,1020
267,960,1020
268,960,1019
269,977,1017
270,993,1017
271,993,1023
272,978,1030
273,972,1027
274,981,1026
275,990,1022
276,998,1019
277,1004,1019
278,1002,1023
279,990,1023
280,978,1022
281,970,1021
282,971,1023
283,978,1025
284,987,1033
285,992,1035
286,990,1034
287,986,1033
288,987,1037
289,992,1045
290,989,1050
291,981,1044
292,973,1037
293,965,1029
294,964,1029
295,981,1029
296,996,1032
297,1002,1032
298,994,1027
299,982,1027
300,975,1029
301,988,1032
302,1007,1034
303,1015,1033
304,999,1030
305,968,1032
306,937,1036
307,929,1043
308,944,1047
309,971,1046
310,989,1040
311,988,1034
312,978,1031
313,981,1030
314,996,1029
315,1002,1022
316,991,1015
317,975,1011
318,966,1004
319,966,1008
320,968,1004
321,969,1004
322,979,1000
323,984,996
324,982,993
325,971,990
326,968,986
327,977,981
328,985,972
329,987,970
330,984,973
331,987,982
332,999,992
333,1014,993
334,1028,994
335,1024,995
336,1006,999
337,990,1004
338,983,1008
339,988,1011
340,1006,1012
341,1019,1015
342,1012,1022
343,989,1030
344,981,1034
345,989,1029
346,993,1026
347,995,1018
348,1008,1013
349,1027,1013
350,1026,1017
351,1004,1015
352,988,1015
353,988,1015
354,1002,1021
355,999,1027
356,983,1033
357,977,1029
358,986,1023
359,999,1016
360,1000,1014
361,998,1018
362,1003,1024
363,1017,1026
364,1018,1029
365,992,1024
366,959,1031
367,958,1043
368,976,1057
369,987,1065
370,983,1066
371,986,1056
372,993,1046
373,994,1036
374,993,1032
375,986,1026
376,988,1023
377,999,1021
378,1005,1022
379,1003,1020
380,1013,1018
381,1020,1012
382,1011,1005
383,995,998
384,983,998
385,987,1001
386,997,1004
387,999,1003
388,993,1000
389,987,996
390,996,996
391,1008,1001
392,1020,1003
393,1022,1009
394,1018,1011
395,1017,1011
396,1021,1012
397,1023,1015
398,1020,1018
399,1003,1016
400,984,1016
401,977,1024
402,987,1033
403,993,1043
404,995,1047
405,1009,1045
406,1018,1041
407,1013,1031
408,1007,1023
409,1006,1021
410,1014,1027
411,1030,1025
412,1051,1026
413,1062,1026
414,1061,1030
415,1058,1031
416,1058,1026
417,1056,1027
418,1049,1023
419,1047,1023
420,1073,1025
421,1118,1023
422,1162,1020
423,1196,1008
424,1232,996
425,1277,981
426,1321,966
427,1358,952
428,1376,950
429,1387,949
430,1384,939
431,1367,928
432,1350,916
433,1351,906
434,1349,897
435,1331,892
436,1299,880
437,1266,878
438,1237,881
439,1204,893
440,1160,905
441,1090,916
442,1031,923
443,1008,933
444,1008,944
445,1007,950
446,1009,955
447,1010,953
448,1000,950
449,970,951
450,935,960
451,914,967
452,911,980
453,930,986
454,964,985
455,980,987
456,963,991
457,924,998
458,895,1004
459,892,1007
460,907,1008
461,924,1013
462,935,1016
463,933,1020
464,931,1027
465,931,1028
466,924,1029
467,930,1028
468,938,1026
469,944,1025
470,937,1023
471,929,1014
472,932,1010
473,935,1014
474,929,1020
475,914,1031
476,896,1040
477,893,1048
478,902,1049
479,915,1050
480,929,1055
481,939,1057
482,945,1063
483,942,1065
484,941,1069
485,932,1071
486,929,1073
487,931,1080
488,937,1089
489,943,1091
490,948,1093
491,949,1090
492,948,1093
493,945,1097
494,940,1099
495,933,1098
496,926,1091
497,922,1079
498,929,1074
499,941,1071
500,953,1063
501,956,1051
502,955,1032
503,954,1020
504,964,1013
505,984,1009
506,1003,1003
507,1015,997
508,1011,992
509,991,991
510,974,994
511,967,999
512,981,1003
513,1010,1005
514,1036,1004
515,1043,1000
516,1017,1006
517,994,1012
518,1006,1018
519,1036,1022
520,1051,1020
521,1036,1019
522,1002,1023
523,981,1018
524,991,1020
525,1008,1013
526,1016,1008
527,1013,1004
528,1018,1010
529,1019,1021
530,1016,1027
531,1017,1033
532,1008,1029
533,1004,1028
534,1014,1025
535,1035,1026
536,1039,1026
537,1024,1022
538,997,1018
539,984,1020
540,994,1029
541,1010,1036
542,1020,1044
543,1026,1044
544,1027,1035
545,1032,1030
546,1021,1031
547,1005,1037
548,987,1043
549,986,1050
550,993,1050
551,1004,1051
552,1012,1057
553,1019,1061
554,1023,1063
555,1027,1060
556,1030,1058
557,1029,1057
558,1028,1062
559,1021,1057
560,1015,1053
561,1008,1040
562,1007,1031
563,1006,1027
564,1007,1023
565,1008,1023
566,1003,1019
567,1004,1011
568,1006,1007
569,1019,1005
570,1022,1009
571,1016,1012
572,1006,1013
573,1003,1010
574,1013,1008
575,1022,1007
576,1019,1008
577,1006,1015
578,996,1016
579,986,1017
580,979,1016
581,982,1010
582,1002,1014
583,1014,1017
584,1013,1021
585,1010,1022
586,1015,1025
587,1009,1023
588,1000,1026
589,999,1027
590,1019,1034
591,1044,1031
592,1059,1030
593,1041,1026
594,1005,1029
595,984,1032
596,980,1035
597,992,1034
598,1005,1033
599,1013,1032
600,1010,1039
601,1009,1051
602,1009,1057
603,999,1054
604,984,1048
605,972,1038
606,988,1036
607,1011,1034
608,1027,1036
609,1028,1031
610,1014,1032
611,993,1033
612,981,1036
613,989,1040
614,1013,1032
615,1038,1028
616,1046,1020
617,1026,1016
618,1002,1016
619,986,1022
620,984,1020
621,990,1016
622,1005,1006
623,1013,995
624,1014,990
625,1014,986
626,1012,990
627,1007,988
628,999,992
629,998,989
630,1003,997
631,1014,1005
632,1025,1012
633,1022,1014
634,1010,1021
635,1000,1030
636,999,1043
637,1017,1053
638,1037,1057
639,1043,1051
640,1040,1042
641,1027,1033
642,1012,1029
643,1008,1033
644,1030,1038
645,1064,1039
646,1086,1041
647,1091,1042
648,1091,1054
649,1104,1059
650,1120,1059
651,1142,1051
652,1173,1044
653,1219,1035
654,1267,1029
655,1304,1019
656,1320,1005
657,1316,989
658,1308,975
659,1309,964
660,1315,957
661,1326,950
662,1333,940
663,1332,922
664,1292,908
665,1238,902
666,1194,907
667,1171,919
668,1152,930
669,1105,946
670,1043,958
671,995,972
672,985,983
673,990,994
674,991,1003
675,977,1003
676,957,995
677,946,994
678,951,1000
679,953,1007
680,950,1016
681,940,1021
682,933,1019
683,932,1014
684,939,1002
685,943,997
686,948,995
687,951,993
688,951,990
689,951,997
690,949,1005
691,942,1013
692,935,1017
693,937,1014
694,948,1007
695,953,1005
696,951,1005
697,951,1009
698,963,1015
699,960,1017
700,932,1019
701,906,1022
702,897,1025
703,911,1032
704,925,1038
705,930,1041
706,928,1049
707,931,1051
708,940,1062
709,950,1070
710,947,1082
711,944,1085
712,929,1082
713,917,1076
714,920,1073
715,936,1069
716,955,1065
717,975,1061
718,987,1052
719,979,1049
720,966,1047
721,960,1051
722,967,1053
723,974,1056
724,971,1059
725,958,1057
726,952,1058
727,962,1061
728,993,1067
729,1011,1067
730,993,1067
731,960,1060
732,957,1060
733,977,1057
734,1000,1055
735,1008,1047
736,995,1041
737,978,1038
738,970,1035
739,985,1036
740,1016,1032
741,1035,1027
742,1034,1022
743,1014,1015
744,1001,1008
745,995,1011
746,1006,1018
747,1017,1028
748,1024,1035
749,1021,1035
750,1020,1032
751,1016,1028
752,1005,1017
753,995,1012
754,998,1008
755,1000,1004
756,997,1013
757,999,1022
758,1004,1031
759,997,1036
760,981,1040
761,969,1043
762,977,1047
763,993,1047
764,995,1045
765,983,1043
766,953,1043
767,933,1049
768,941,1051
769,967,1063
770,984,1066
771,979,1068
772,965,1066
773,955,1066
774,951,1077
775,952,1083
776,955,1093
777,960,1089
778,960,1082
779,960,1072
780,963,1066
781,976,1065
782,985,1064
783,977,1059
784,958,1050
785,949,1040
786,955,1033
787,971,1027
788,988,1029
789,994,1026
790,985,1022
791,978,1019
792,975,1025
793,963,1028
794,952,1027
795,948,1022
796,954,1013
797,975,1008
798,987,1001
799,989,995
800,987,998
801,976,999
802,967,1004
803,963,1008
804,963,1013
805,977,1021
806,987,1021
807,986,1021
808,977,1014
809,977,1011
810,993,1013
811,1011,1017
812,1008,1027
813,990,1040
814,968,1046
815,960,1047
816,960,1047
817,963,1039
818,975,1030
819,989,1025
820,994,1021
821,989,1029
822,977,1041
823,962,1055
824,956,1065
825,960,1057
826,970,1051
827,978,1042
828,969,1038
829,950,1045
830,947,1053
831,961,1057
832,974,1057
833,974,1064
834,971,1072
835,976,1081
836,984,1083
837,981,1069
838,966,1056
839,957,1041
840,966,1036
841,975,1038
842,978,1041
843,978,1038
844,976,1038
845,981,1036
846,990,1038
847,997,1042
848,1021,1043
849,1042,1047
850,1061,1048
851,1061,1049
852,1061,1054
853,1072,1054
854,1089,1048
855,1125,1034
856,1188,1021
857,1244,1009
858,1262,995
859,1254,988
860,1241,981
861,1240,977
862,1253,970
863,1268,962
864,1280,954
865,1275,935
866,1244,928
867,1191,916
868,1135,913
869,1085,918
870,1054,927
871,1043,942
872,1042,957
873,1035,969
874,1006,981
875,966,994
876,937,1007
877,931,1023
878,937,1032
879,951,1038
880,967,1038
881,971,1039
882,955,1042
883,933,1052
884,917,1061
885,920,1067
886,935,1073
887,948,1078
888,932,1083
889,901,1078
890,888,1074
891,891,1061
892,908,1052
893,914,1048
894,917,1053
895,914,1061
896,918,1063
897,919,1057
898,915,1047
899,911,1036
900,907,1035
901,908,1032
902,911,1032
903,918,1029
904,926,1026
905,932,1024
906,928,1025
907,910,1029
908,904,1031
909,911,1025
910,930,1023
911,935,1021
912,932,1027
913,925,1030
914,931,1028
915,949,1023
916,963,1020
917,951,1025
918,928,1029
919,906,1033
920,903,1038
921,918,1033
922,923,1025
923,939,1025
924,955,1027
925,964,1030
926,960,1036
927,949,1035
928,944,1038
929,938,1044
930,934,1052
931,946,1058
932,967,1061
933,973,1058
934,961,1056
935,961,1055
936,968,1062
937,972,1071
938,969,1082
939,972,1087
940,987,1085
941,1000,1077
942,995,1069
943,984,1064
944,983,1063
945,992,1061
946,998,1059
947,989,1061
948,972,1061
949,961,1070
950,965,1074
951,975,1075
952,986,1066
953,999,1060
954,1005,1057
955,1000,1056
956,978,1058
957,955,1055
958,956,1049
959,969,1052
960,971,1046
961,967,1043
962,966,1037
963,975,1026
964,976,1018
965,975,1013
966,984,1013
967,1003,1014
968,1018,1013
969,1007,1010
970,970,1007
971,945,1008
972,964,1012
973,1004,1012
974,1010,1015
975,979,1013
976,950,1013
977,956,1016
978,987,1021
979,1022,1030
980,1035,1038
981,1016,1046
982,982,1055
983,962,1064
984,949,1081
985,940,1100
986,932,1115
987,933,1121
988,948,1118
989,958,1101
990,954,1077
991,955,1049
992,978,1023
993,1013,999
994,1039,985
995,1058,983
996,1075,975
997,1093,970
998,1104,960
999,1148,955
1000,1183,948
1001,1197,946
1002,1187,947
1003,1177,958
1004,1171,958
1005,1145,958
1006,1104,954
1007,1067,956
1008,1043,961
1009,1021,964
1010,988,973
1011,963,978
1012,951,987
1013,949,996
1014,943,1005
1015,937,1015
1016,923,1017
1017,907,1022
1018,896,1025
1019,899,1033
1020,922,1037
1021,943,1040
1022,954,1033
1023,946,1030
1024,923,1031
1025,907,1035
1026,901,1040
1027,903,1046
1028,897,1044
1029,886,1041
1030,885,1038
1031,894,1039
1032,904,1041
1033,910,1052
1034,908,1057
1035,912,1063
1036,909,1064
1037,904,1061
1038,910,1058
1039,917,1055
1040,917,1052
1041,915,1055
1042,917,1059
1043,932,1067
1044,957,1071
1045,960,1072
1046,937,1065
1047,912,1063
1048,893,1066
1049,892,1074
1050,912,1083
1051,928,1091
1052,933,1094
1053,935,1094
1054,943,1097
1055,958,1099
1056,970,1102
1057,969,1106
1058,958,1100
1059,949,1088
1060,950,1079
1061,950,1071
1062,945,1070
1063,953,1067
1064,969,1061
1065,982,1052
1066,983,1052
1067,985,1055
1068,986,1058
1069,979,1067
1070,965,1068
1071,946,1066
1072,938,1061
1073,939,1055
1074,947,1051
1075,958,1049
1076,971,1043
1077,973,1038
1078,965,1040
1079,960,1046
1080,962,1052
1081,966,1056
1082,968,1055
1083,961,1051
1084,957,1051
1085,950,1054
1086,950,1061
1087,954,1063
1088,965,1065
1089,976,1062
1090,974,1058
1091,970,1050
1092,962,1048
1093,942,1049
1094,913,1050
1095,902,1053
1096,919,1062
1097,937,1066
1098,939,1075
1099,942,1082
1100,946,1085
1101,950,1081
1102,950,1070
1103,947,1061
1104,940,1057
1105,936,1055
1106,938,1056
1107,941,1058
1108,937,1065
1109,941,1068
1110,954,1069
1111,960,1063
1112,945,1053
1113,922,1044
1114,916,1043
1115,938,1040
1116,951,1047
1117,942,1048
1118,929,1046
1119,916,1045
1120,915,1042
1121,924,1046
1122,941,1049
1123,943,1056
1124,938,1052
1125,932,1054
1126,927,1054
1127,920,1051
1128,926,1052
1129,934,1059
1130,940,1059
1131,938,1062
1132,932,1061
1133,928,1055
1134,936,1057
1135,940,1053
1136,925,1041
1137,910,1032
1138,914,1035
1139,920,1044
1140,910,1051
1141,901,1060
1142,909,1059
1143,924,1063
1144,932,1065
1145,933,1070
1146,921,1075
1147,913,1076
1148,909,1072
1149,919,1064
1150,920,1061
1151,932,1060
1152,939,1064
1153,938,1076
1154,921,1078
1155,907,1082
1156,906,1079
1157,907,1078
1158,916,1073
1159,931,1069
1160,933,1058
1161,928,1047
1162,927,1039
1163,927,1036
1164,919,1038
1165,905,1044
1166,905,1039
1167,932,1031
1168,967,1020
1169,966,1017
1170,925,1015
1171,889,1022
1172,877,1025
1173,884,1031
1174,897,1035
1175,903,1042
1176,896,1045
1177,898,1049
1178,907,1046
1179,911,1041
1180,923,1037
1181,930,1039
1182,922,1042
1183,915,1052
1184,930,1059
1185,944,1061
1186,918,1064
1187,879,1072
1188,871,1072
1189,894,1071
1190,902,1065
1191,901,1057
1192,907,1054
1193,910,1053
1194,916,1055
1195,924,1061
1196,917,1060
1197,889,1061
1198,865,1059
1199,853,1066
1200,852,1072
1201,864,1073
1202,892,1073
1203,907,1075
1204,909,1074
1205,908,1077
1206,899,1084
1207,900,1088
1208,902,1084
1209,903,1082
1210,907,1072
1211,909,1075
1212,918,1073
1213,922,1071
1214,928,1069
1215,925,1069
1216,920,1067
1217,919,1064
1218,928,1062
1219,932,1053
1220,923,1041
1221,922,1031
1222,924,1024
1223,913,1027
1224,890,1032
1225,883,1036
1226,903,1036
1227,931,1037
1228,946,1035
1229,932,1040
1230,900,1043
1231,874,1044
1232,871,1048
1233,898,1046
1234,927,1050
1235,933,1049
1236,925,1059
1237,912,1061
1238,905,1058
1239,902,1055
1240,896,1051
1241,891,1054
1242,902,1055
1243,920,1058
1244,940,1058
1245,942,1057
1246,930,1062
1247,907,1068
1248,893,1068
1249,891,1072
1250,897,1068
1251,907,1062
1252,907,1067
1253,901,1075
1254,913,1083
1255,931,1089
1256,941,1088
1257,949,1082
1258,963,1082
1259,983,1081
1260,1002,1080
1261,1031,1074
1262,1078,1065
1263,1118,1056
1264,1147,1049
1265,1208,1047
1266,1282,1037
1267,1317,1022
1268,1303,1008
1269,1266,997
1270,1249,984
1271,1258,972
1272,1287,960
1273,1311,948
1274,1288,930
1275,1223,924
1276,1159,925
1277,1112,931
1278,1064,937
1279,1010,944
1280,960,949
1281,938,958
1282,916,969
1283,886,987
1284,875,1005
1285,894,1018
1286,900,1022
1287,882,1022
1288,859,1028
1289,856,1031
1290,865,1036
1291,862,1040
1292,849,1039
1293,837,1044
1294,836,1047
1295,846,1049
1296,864,1059
1297,870,1072
1298,854,1079
1299,817,1084
1300,788,1085
1301,788,1081
1302,806,1079
1303,818,1070
1304,814,1064
1305,808,1061
1306,815,1063
1307,827,1068
1308,838,1074
1309,837,1079
1310,831,1082
1311,819,1085
1312,807,1089
1313,803,1095
1314,807,1100
1315,813,1100
1316,816,1099
1317,827,1097
1318,834,1095
1319,838,1097
1320,837,1103
1321,837,1111
1322,846,1110
1323,852,1106
1324,843,1102
1325,831,1104
1326,829,1107
1327,845,1109
1328,860,1108
1329,856,1103
1330,835,1102
1331,816,1100
1332,823,1100
1333,841,1092
1334,859,1082
1335,867,1076
1336,862,1076
1337,849,1083
1338,838,1091
1339,845,1094
1340,862,1088
1341,883,1082
1342,896,1075
1343,895,1073
1344,878,1074
1345,865,1077
1346,866,1079
1347,880,1081
1348,894,1083
1349,910,1086
1350,928,1091
1351,945,1096
1352,953,1092
1353,939,1080
1354,915,1072
1355,900,1074
1356,894,1079
1357,886,1088
1358,879,1096
1359,880,1107
1360,888,1116
1361,897,1120
1362,896,1121
1363,895,1114
1364,906,1104
1365,925,1093
1366,935,1088
1367,929,1085
1368,919,1087
1369,916,1089
1370,917,1090
1371,916,1088
1372,915,1089
1373,915,1095
1374,922,1092
1375,929,1087
1376,941,1079
1377,956,1073
1378,959,1068
1379,957,1067
1380,948,1071
1381,935,1082
1382,920,1086
1383,918,1088
1384,935,1084
1385,943,1077
1386,920,1065
1387,897,1047
1388,896,1027
1389,916,1014
1390,933,1005
1391,945,1010
1392,948,1016
1393,942,1026
1394,931,1034
1395,927,1038
1396,930,1040
1397,929,1044
1398,927,1048
1399,933,1047
1400,946,1041
1401,963,1033
1402,975,1027
1403,989,1032
1404,980,1039
1405,946,1052
1406,911,1059
1407,892,1064
1408,889,1065
1409,888,1074
1410,890,1072
1411,909,1076
1412,926,1070
1413,935,1074
1414,933,1083
1415,925,1091
1416,924,1097
1417,919,1090
1418,915,1078
1419,912,1070
1420,918,1064
1421,936,1062
1422,944,1066
1423,938,1074
1424,938,1081
1425,959,1086
1426,982,1084
1427,980,1078
1428,959,1076
1429,940,1071
1430,928,1068
1431,931,1067
1432,948,1069
1433,964,1074
1434,962,1076
1435,948,1078
1436,935,1075
1437,927,1070
1438,924,1066
1439,936,1065
1440,953,1061
1441,954,1054
1442,939,1041
1443,918,1023
1444,914,1013
1445,930,1013
1446,949,1017
1447,949,1024
1448,936,1035
1449,927,1043
1450,934,1049
1451,937,1051
1452,942,1050
1453,950,1049
1454,974,1043
1455,998,1040
1456,1007,1040
1457,982,1040
1458,946,1045
1459,919,1048
1460,920,1045
1461,942,1042
1462,969,1050
1463,980,1064
1464,993,1086
1465,1011,1102
1466,1016,1103
1467,990,1092
1468,952,1077
1469,959,1065
1470,1005,1060
1471,1053,1056
1472,1072,1059
1473,1065,1065
1474,1063,1065
1475,1083,1067
1476,1122,1057
1477,1182,1048
1478,1246,1031
1479,1295,1017
1480,1305,1004
1481,1295,1005
1482,1296,1007
1483,1317,1003
1484,1336,982
1485,1334,960
1486,1297,942
1487,1233,948
1488,1196,959
1489,1183,964
1490,1153,968
1491,1094,975
1492,1036,982
1493,998,994
1494,981,1011
1495,965,1026
1496,941,1034
1497,921,1037
1498,913,1042
1499,922,1046
1500,934,1053
1501,935,1068
1502,918,1086
1503,904,1100
1504,914,1107
1505,939,1102
1506,951,1089
1507,935,1072
1508,916,1066
1509,912,1069
1510,914,1080
1511,919,1088
1512,922,1087
1513,916,1080
1514,914,1070
1515,911,1052
1516,902,1031
1517,902,1007
1518,915,991
1519,936,980
1520,933,976
1521,908,985
1522,887,999
1523,892,1018
1524,905,1026
1525,907,1020
1526,902,1002
1527,909,987
1528,915,981
1529,917,985
1530,925,995
1531,941,1001
1532,946,1001
1533,944,1001
1534,938,1002
1535,940,1008
1536,947,1016
1537,964,1025
1538,982,1022
1539,973,1019
1540,952,1016
1541,951,1025
1542,966,1042
1543,967,1051
1544,958,1051
1545,962,1039
1546,984,1026
1547,1003,1026
1548,996,1037
1549,978,1052
1550,974,1069
1551,981,1070
1552,990,1052
1553,989,1036
1554,995,1028
1555,1013,1029
1556,1026,1025
1557,1028,1027
1558,1020,1033
1559,1020,1044
1560,1016,1057
1561,1005,1064
1562,990,1067
1563,991,1063
1564,997,1063
1565,995,1064
1566,993,1063
1567,999,1057
1568,1012,1051
1569,1023,1051
1570,1016,1061
1571,1006,1066
1572,996,1065
1573,995,1058
1574,989,1049
1575,987,1041
1576,993,1038
1577,997,1034
1578,995,1030
1579,1000,1022
1580,1010,1014
1581,1019,1011
1582,1012,1008
1583,994,1008
1584,979,1006
1585,972,1000
1586,982,990
1587,987,981
1588,992,974
1589,984,979
1590,976,989
1591,977,1002
1592,991,1012
1593,1000,1026
1594,1003,1035
1595,1000,1036
1596,981,1032
1597,969,1023
1598,976,1008
1599,997,1004
1600,1001,1003
1601,995,1012
1602,991,1023
1603,996,1028
1604,1004,1026
1605,1010,1022
1606,1000,1021
1607,980,1024
1608,975,1034
1609,994,1044
1610,1003,1058
1611,998,1068
1612,1004,1078
1613,1018,1079
1614,1033,1068
1615,1043,1047
1616,1048,1022
1617,1044,1006
1618,1014,1002
1619,971,1017
1620,958,1030
1621,976,1026
1622,990,1017
1623,991,1004
1624,995,1001
1625,1008,1007
1626,1017,1013
1627,1017,1021
1628,1009,1022
1629,994,1021
1630,986,1020
1631,996,1023
1632,1008,1026
1633,1010,1021
1634,1004,1012
1635,1004,1003
1636,1012,996
1637,1023,992
1638,1020,990
1639,1012,986
1640,1008,985
1641,1009,990
1642,1011,1000
1643,1022,1014
1644,1040,1020
1645,1059,1011
1646,1056,992
1647,1030,976
1648,1013,965
1649,1018,967
1650,1034,978
1651,1048,985
1652,1032,993
1653,1001,1000
1654,995,1007
1655,1010,1016
1656,1027,1019
1657,1041,1024
1658,1039,1030
1659,1031,1039
1660,1032,1050
1661,1041,1055
1662,1049,1055
1663,1050,1050
1664,1047,1049
1665,1031,1054
1666,1025,1053
1667,1029,1046
1668,1060,1026
1669,1104,1013
1670,1107,1005
1671,1064,1010
1672,1025,1016
1673,1014,1023
1674,1036,1029
1675,1066,1033
1676,1079,1031
1677,1067,1024
1678,1036,1017
1679,1006,1009
1680,1007,1001
1681,1028,997
1682,1044,1002
1683,1053,1009
1684,1049,1015
1685,1030,1024
1686,1024,1028
1687,1019,1024
1688,1021,1019
1689,1020,1011
1690,1024,1004
1691,1032,997
1692,1029,989
1693,1027,979
1694,1024,967
1695,1023,971
1696,1025,978
1697,1037,990
1698,1064,995
1699,1075,991
1700,1052,973
1701,1019,966
1702,1019,961
1703,1067,965
1704,1125,971
1705,1142,975
1706,1115,976
1707,1081,983
1708,1077,994
1709,1095,1009
1710,1133,1013
1711,1177,1014
1712,1236,1003
1713,1303,993
1714,1353,984
1715,1392,970
1716,1409,955
1717,1417,944
1718,1417,929
1719,1404,917
1720,1385,913
1721,1374,914
1722,1357,912
1723,1332,912
1724,1301,914
1725,1261,910
1726,1216,915
1727,1149,920
1728,1080,932
1729,1032,944
1730,1013,958
1731,1008,976
1732,1008,987
1733,1004,996
1734,1001,1006
1735,1001,1012
1736,994,1014
1737,993,1008
1738,980,1005
1739,977,1007
1740,985,1010
1741,999,1013
1742,1004,1010
1743,1002,1007
1744,998,1012
1745,989,1020
1746,980,1036
1747,974,1043
1748,986,1029
1749,1012,995
1750,1034,963
1751,1029,931
1752,1002,924
1753,970,930
1754,961,942
1755,966,949
1756,978,961
1757,986,973
1758,1000,976
1759,1010,970
1760,1014,957
1761,1003,946
1762,984,949
1763,958,967
1764,949,982
1765,968,994
1766,996,995
1767,1011,1002
1768,1012,1004
1769,1021,1010
1770,1035,1019
1771,1026,1025
1772,991,1029
1773,972,1034
1774,979,1035
1775,1000,1039
1776,1014,1045
1777,1032,1044
1778,1041,1044
1779,1049,1049
1780,1054,1051
1781,1063,1056
1782,1072,1057
1783,1052,1052
1784,1022,1047
1785,998,1044
1786,1006,1046
1787,1032,1055
1788,1052,1067
1789,1052,1084
1790,1041,1090
1791,1049,1092
1792,1072,1090
1793,1087,1083
1794,1074,1081
1795,1047,1073
1796,1013,1061
1797,1006,1047
1798,1027,1027
1799,1050,1006
1800,1073,997
1801,1097,990
1802,1097,986
1803,1070,980
1804,1047,979
1805,1040,979
1806,1066,982
1807,1098,983
1808,1109,978
1809,1104,967
1810,1110,958
1811,1125,955
1812,1115,955
1813,1077,959
1814,1048,958
1815,1041,957
1816,1042,959
1817,1040,971
1818,1035,983
1819,1030,995
1820,1036,993
1821,1043,984
1822,1039,974
1823,1039,969
1824,1057,968
1825,1085,976
1826,1097,981
1827,1086,992
1828,1061,1003
1829,1052,1021
1830,1057,1039
1831,1059,1048
1832,1036,1043
1833,1016,1027
1834,1030,1004
1835,1063,987
1836,1081,979
1837,1077,985
1838,1066,992
1839,1067,1001
1840,1071,1006
1841,1077,1012
1842,1080,1018
1843,1079,1018
1844,1077,1012
1845,1075,1007
1846,1072,1005
1847,1069,1006
1848,1082,1008
1849,1116,1010
1850,1147,1010
1851,1157,1006
1852,1140,1010
1853,1098,1026
1854,1049,1047
1855,1020,1067
1856,1023,1078
1857,1029,1079
1858,1036,1071
1859,1047,1056
1860,1059,1031
1861,1084,1006
1862,1101,971
1863,1105,942
1864,1116,926
1865,1140,916
1866,1169,909
1867,1200,898
1868,1206,883
1869,1195,868
1870,1195,859
1871,1237,857
1872,1296,858
1873,1339,861
1874,1348,868
1875,1313,877
1876,1268,891
1877,1258,898
1878,1274,899
1879,1272,898
1880,1216,900
1881,1128,900
1882,1076,912
1883,1074,928
1884,1082,946
1885,1064,962
1886,1024,978
1887,1001,989
1888,1009,994
1889,1016,998
1890,1021,1004
1891,1020,1003
1892,1023,1003
1893,1030,1000
1894,1033,1004
1895,1023,1010
1896,1007,1016
1897,1006,1017
1898,1011,1017
1899,1019,1016
1900,1020,1017
1901,1021,1020
1902,1029,1024
1903,1042,1022
1904,1051,1019
1905,1049,1014
1906,1035,1011
1907,1021,1011
1908,1021,1017
1909,1025,1014
1910,1031,1007
1911,1036,999
1912,1047,991
1913,1070,987
1914,1089,982
1915,1098,979
1916,1094,979
1917,1097,976
1918,1113,969
1919,1146,970
1920,1168,969
1921,1149,970
1922,1112,972
1923,1140,971
1924,1221,967
1925,1215,964
1926,1087,968
1927,959,982
1928,958,1004
1929,1032,1013
1930,1096,1022
1931,1121,1035
1932,1123,1044
1933,1108,1045
1934,1102,1034
1935,1108,1020
1936,1125,1018
1937,1136,1028
1938,1127,1046
1939,1116,1058
1940,1114,1054
1941,1111,1040
1942,1106,1022
1943,1107,1015
1944,1105,1012
1945,1101,1018
1946,1102,1019
1947,1098,1018
1948,1094,1022
1949,1088,1026
1950,1086,1031
1951,1085,1029
1952,1073,1029
1953,1058,1024
1954,1061,1023
1955,1070,1021
1956,1072,1023
1957,1074,1023
1958,1069,1022
1959,1062,1015
1960,1057,1010
1961,1060,1013
1962,1066,1015
1963,1067,1014
1964,1066,1006
1965,1065,999
1966,1068,992
1967,1078,988
1968,1090,984
1969,1111,976
1970,1121,967
1971,1115,962
1972,1096,962
1973,1088,964
1974,1096,967
1975,1101,967
1976,1083,966
1977,1077,966
1978,1090,962
1979,1104,963
1980,1088,965
1981,1041,970
1982,1004,980
1983,998,996
1984,1017,999
1985,1041,1004
1986,1056,1007
1987,1061,1010
1988,1057,1009
1989,1048,1011
1990,1049,1010
1991,1064,1014
1992,1080,1020
1993,1079,1023
1994,1071,1024
1995,1063,1021
1996,1061,1023
1997,1065,1030
1998,1081,1033
1999,1093,1034
2000,1096,1038
2001,1096,1043
2002,1110,1049
2003,1133,1055
2004,1150,1057
2005,1134,1053
2006,1084,1052
2007,1040,1047
2008,1029,1038
2009,1040,1030
2010,1052,1029
2011,1062,1036
2012,1057,1034
2013,1045,1035
2014,1044,1037
2015,1064,1042
2016,1101,1049
2017,1127,1038
2018,1130,1022
2019,1101,1002
2020,1045,997
2021,994,1010
2022,977,1032
2023,1004,1044
2024,1049,1041
2025,1076,1025
2026,1088,1006
2027,1087,989
2028,1089,982
2029,1091,982
2030,1084,979
2031,1070,972
2032,1046,963
2033,1032,960
2034,1027,960
2035,1049,961
2036,1083,961
2037,1124,963
2038,1150,972
2039,1147,983
2040,1116,1001
2041,1051,1011
2042,999,1017
2043,998,1018
2044,1024,1017
2045,1037,1018
2046,1039,1016
2047,1039,1013
2048,1051,997
2049,1059,986
2050,1054,980
2051,1050,983
2052,1062,992
2053,1089,994
2054,1113,995
2055,1108,995
2056,1065,1000
2057,1010,1008
2058,984,1017
2059,1001,1019
2060,1032,1017
2061,1056,1015
2062,1064,1015
2063,1073,1012
2064,1101,1009
2065,1149,1003
2066,1192,999
2067,1167,994
2068,1073,995
2069,991,1006
2070,970,1023
2071,993,1027
2072,1001,1025
2073,991,1025
2074,993,1028
2075,1020,1028
2076,1062,1024
2077,1106,1010
2078,1129,1003
2079,1121,988
2080,1071,987
2081,1008,997
2082,976,1011
2083,999,1024
2084,1054,1019
2085,1096,1004
2086,1113,982
2087,1131,974
2088,1157,969
2089,1184,977
2090,1186,987
2091,1183,1001
2092,1182,1011
2093,1182,1010
2094,1182,1009
2095,1194,1004
2096,1231,998
2097,1273,992
2098,1294,983
2099,1308,977
2100,1321,972
2101,1333,968
2102,1330,959
2103,1316,940
2104,1291,925
2105,1260,912
2106,1240,910
2107,1225,906
2108,1200,905
2109,1169,907
2110,1131,915
2111,1097,932
2112,1075,953
2113,1061,969
2114,1039,985
2115,1024,994
2116,1026,1009
2117,1031,1022
2118,1019,1032
2119,1011,1035
2120,1013,1035
2121,1025,1033
2122,1026,1036
2123,998,1039
2124,974,1040
2125,978,1037
2126,991,1025
2127,989,1015
2128,962,1011
2129,936,1022
2130,935,1027
2131,948,1023
2132,957,1014
2133,958,1000
2134,958,995
2135,968,997
2136,985,998
2137,1001,1001
2138,1012,997
2139,1009,991
2140,996,990
2141,984,992
2142,987,994
2143,1010,987
2144,1016,982
2145,1001,983
2146,978,986
2147,967,987
2148,980,991
2149,1002,989
2150,1022,989
2151,1035,987
2152,1031,988
2153,1009,994
2154,986,1000
2155,977,1004
2156,986,1007
2157,999,1010
2158,998,1019
2159,992,1044
2160,998,1073
2161,1020,1090
2162,1015,1088
2163,970,1063
2164,915,1041
2165,908,1021
2166,936,1016
2167,965,1014
2168,987,1007
2169,1002,1005
2170,1003,1005
2171,994,1012
2172,983,1023
2173,979,1032
2174,985,1035
2175,998,1038
2176,1007,1044
2177,1017,1053
2178,1022,1059
2179,1021,1058
2180,1017,1049
2181,1017,1044
2182,1030,1043
2183,1039,1044
2184,1035,1041
2185,1031,1043
2186,1035,1041
2187,1037,1036
2188,1034,1035
2189,1029,1038
2190,1024,1039
2191,1033,1040
2192,1047,1033
2193,1059,1027
2194,1068,1022
2195,1080,1024
2196,1083,1024
2197,1060,1022
2198,1031,1022
2199,1010,1024
2200,1015,1030
2201,1054,1040
2202,1112,1052
2203,1137,1056
2204,1103,1046
2205,1042,1030
2206,1009,1012
2207,998,995
2208,1001,988
2209,990,991
2210,992,1000
2211,1001,1011
2212,1020,1030
2213,1039,1044
2214,1052,1047
2215,1057,1038
2216,1046,1024
2217,1019,1007
2218,996,1002
2219,995,1009
2220,1008,1016
2221,1024,1019
2222,1039,1018
2223,1052,1016
2224,1072,1017
2225,1100,1020
2226,1098,1018
2227,1062,1018
2228,1008,1015
2229,997,1011
2230,1050,1010
2231,1115,1016
2232,1142,1019
2233,1105,1023
2234,1045,1022
2235,1009,1023
2236,1015,1037
2237,1040,1051
2238,1061,1064
2239,1060,1074
2240,1036,1079
2241,1011,1080
2242,1004,1090
2243,996,1097
2244,961,1099
2245,909,1094
2246,866,1086
2247,845,1065
2248,838,1047
2249,826,1033
2250,811,1021
2251,801,1003
2252,794,984
2253,813,965
2254,853,954
2255,899,945
2256,938,930
2257,953,925
2258,932,920
2259,903,923
2260,883,933
2261,893,946
2262,932,959
2263,976,954
2264,1007,936
2265,1045,911
2266,1088,903
2267,1123,901
2268,1113,911
2269,1080,924
2270,1060,930
2271,1064,931
2272,1060,933
2273,1037,941
2274,1006,952
2275,969,971
2276,943,985
2277,944,999
2278,961,1008
2279,984,1020
2280,1010,1032
2281,1032,1042
2282,1044,1047
2283,1041,1054
2284,1030,1064
2285,1032,1067
2286,1048,1059
2287,1044,1042
2288,1023,1020
2289,1001,1000
2290,992,995
2291,993,1003
2292,1001,1010
2293,1024,1014
2294,1057,1013
2295,1074,1010
2296,1069,1010
2297,1051,1015
2298,1037,1018
2299,1031,1020
2300,1034,1023
2301,1056,1023
2302,1087,1026
2303,1115,1028
2304,1133,1028
2305,1147,1027
2306,1139,1025
2307,1121,1027
2308,1102,1032
2309,1100,1037
2310,1111,1043
2311,1130,1043
2312,1145,1040
2313,1153,1036
2314,1151,1031
2315,1143,1031
2316,1132,1034
2317,1136,1037
2318,1165,1035
2319,1212,1029
2320,1238,1027
2321,1241,1033
2322,1225,1039
2323,1203,1045
2324,1180,1054
2325,1147,1056
2326,1132,1052
2327,1132,1045
2328,1152,1040
2329,1166,1028
2330,1158,1021
2331,1141,1016
2332,1131,1019
2333,1128,1019
2334,1131,1025
2335,1135,1031
2336,1137,1032
2337,1134,1029
2338,1118,1029
2339,1083,1030
2340,1052,1038
2341,1056,1036
2342,1070,1031
2343,1080,1025
2344,1080,1022
2345,1089,1023
2346,1092,1026
2347,1084,1027
2348,1059,1022
2349,1040,1020
2350,1034,1013
2351,1032,1014
2352,1054,1013
2353,1092,1013
2354,1112,1013
2355,1087,1015
2356,1041,1024
2357,998,1040
2358,986,1055
2359,984,1065
2360,973,1078
2361,955,1085
2362,936,1093
2363,911,1104
2364,876,1112
2365,831,1111
2366,786,1104
2367,750,1095
2368,738,1083
2369,744,1074
2370,759,1066
2371,793,1059
2372,849,1048
2373,908,1034
2374,944,1020
2375,968,1005
2376,996,993
2377,1020,982
2378,1032,973
2379,1032,966
2380,1025,967
2381,1011,963
2382,996,961
2383,987,956
2384,977,951
2385,961,946
2386,951,950
2387,962,962
2388,975,969
2389,984,973
2390,990,976
2391,1002,977
2392,1017,981
2393,1026,987
2394,1019,995
2395,1001,996
2396,990,998
2397,993,1001
2398,992,1003
2399,978,1007
2400,957,1011
2401,956,1016
2402,969,1019
2403,980,1020
2404,970,1022
2405,951,1025
2406,948,1026
2407,961,1028
2408,984,1024
2409,997,1015
2410,996,1011
2411,991,1011
2412,989,1011
2413,1003,1012
2414,1014,1010
2415,1015,1008
2416,1001,1006
2417,997,1009
2418,1019,1012
2419,1065,1012
2420,1103,1004
2421,1105,1002
2422,1071,998
2423,1029,1003
2424,999,1011
2425,988,1014
2426,983,1016
2427,992,1016
2428,1003,1015
2429,1016,1018
2430,1029,1015
2431,1039,1015
2432,1060,1010
2433,1083,1010
2434,1090,1007
2435,1078,1008
2436,1068,1008
2437,1064,1011
2438,1075,1008
2439,1080,1007
2440,1084,1010
2441,1093,1012
2442,1102,1021
2443,1106,1024
2444,1103,1023
2445,1114,1023
2446,1131,1027
2447,1145,1038
2448,1139,1044
2449,1122,1049
2450,1087,1053
2451,1045,1051
2452,1021,1047
2453,1029,1040
2454,1063,1040
2455,1087,1033
2456,1085,1032
2457,1062,1031
2458,1046,1034
2459,1040,1043
2460,1042,1048
2461,1043,1045
2462,1018,1037
2463,976,1027
2464,961,1020
2465,979,1016
2466,1003,1010
2467,1016,1007
2468,1019,1002
2469,1017,996
2470,1017,997
2471,1021,995
2472,1025,1000
2473,1027,1000
2474,1027,998
2475,1030,999
2476,1038,1000
2477,1047,1004
2478,1051,1008
2479,1042,1007
2480,1031,1003
2481,1020,1001
2482,1016,1008
2483,1014,1010
2484,1017,1015
2485,1020,1018
2486,1008,1022
2487,981,1022
2488,957,1025
2489,962,1032
2490,993,1047
2491,1028,1051
2492,1043,1050
2493,1048,1041
2494,1047,1038
2495,1039,1042
2496,1028,1047
2497,1017,1049
2498,999,1037
2499,985,1025
2500,985,1008
2501,1011,1000
2502,1051,1000
2503,1083,1004
2504,1082,1013
2505,1065,1023
2506,1059,1035
2507,1068,1045
2508,1080,1051
2509,1102,1055
2510,1130,1058
2511,1153,1061
2512,1156,1062
2513,1156,1059
2514,1165,1059
2515,1186,1057
2516,1202,1040
2517,1224,1005
2518,1243,960
2519,1244,917
2520,1214,888
2521,1165,872
2522,1133,867
2523,1130,870
2524,1126,881
2525,1108,898
2526,1090,912
2527,1084,925
2528,1079,933
2529,1049,943
2530,989,957
2531,933,975
2532,923,984
2533,970,989
2534,1037,986
2535,1065,983
2536,1028,982
2537,952,990
2538,892,996
2539,874,1002
2540,888,1010
2541,914,1007
2542,939,1006
2543,952,1010
2544,945,1012
2545,923,1011
2546,899,1012
2547,894,1014
2548,906,1016
2549,930,1017
2550,947,1018
2551,957,1017
2552,955,1013
2553,939,1010
2554,923,1011
2555,916,1013
2556,924,1020
2557,939,1022
2558,944,1020
2559,950,1015
2560,953,1015
2561,968,1013
2562,993,1012
2563,1011,1009
2564,1017,1005
2565,1023,997
2566,1024,997
2567,1011,993
2568,982,991
2569,938,993
2570,902,995
2571,889,995
2572,909,995
2573,945,998
2574,974,1003
2575,965,1009
2576,935,1019
2577,914,1029
2578,905,1039
2579,911,1049
2580,934,1048
2581,984,1037
2582,1026,1015
2583,1037,994
2584,1017,985
2585,982,987
2586,962,999
2587,962,1007
2588,975,1009
2589,990,1009
2590,1005,1003
2591,1025,999
2592,1032,999
2593,1020,998
2594,996,996
2595,973,995
2596,971,995
2597,987,1001
2598,997,1007
2599,998,1009
2600,995,1009
2601,1002,1008
2602,1016,1006
2603,1028,1007
2604,1035,1013
2605,1041,1009
2606,1043,1007
2607,1034,1008
2608,1024,1009
2609,1016,1014
2610,1023,1019
2611,1046,1018
2612,1059,1017
2613,1054,1018
2614,1039,1019
2615,1032,1015
2616,1021,1013
2617,1018,1003
2618,1012,1000
2619,1004,998
2620,984,1000
2621,959,1007
2622,943,1010
2623,951,1008
2624,973,1008
2625,992,1000
2626,1001,995
2627,1011,998
2628,1027,1000
2629,1041,998
2630,1039,994
2631,1023,989
2632,1009,989
2633,1002,992
2634,1006,999
2635,1009,1001
2636,1005,1000
2637,1009,996
2638,1027,998
2639,1055,1002
2640,1071,1008
2641,1052,1019
2642,1016,1030
2643,988,1043
2644,1003,1053
2645,1029,1057
2646,1036,1058
2647,1011,1045
2648,981,1028
2649,983,1010
2650,1021,1008
2651,1082,1006
2652,1130,1013
2653,1152,1009
2654,1169,988
2655,1191,973
2656,1215,961
2657,1236,951
2658,1258,944
2659,1290,925
2660,1298,907
2661,1283,893
2662,1245,891
2663,1204,902
2664,1157,919
2665,1093,936
2666,1037,946
2667,1024,950
2668,1039,964
2669,1051,979
2670,1045,991
2671,1037,996
2672,1037,1003
2673,1039,1006
2674,1019,1014
2675,978,1022
2676,934,1030
2677,917,1030
2678,925,1012
2679,928,1000
2680,911,991
2681,894,994
2682,889,1002
2683,907,1005
2684,920,1001
2685,930,997
2686,923,999
2687,916,1005
2688,918,1006
2689,920,1005
2690,922,999
2691,929,997
2692,932,994
2693,931,1002
2694,928,1010
2695,932,1014
2696,942,1010
2697,954,1012
2698,968,1009
2699,985,1013
2700,987,1019
2701,965,1021
2702,945,1017
2703,949,1006
2704,965,1001
2705,984,999
2706,979,999
2707,948,996
2708,913,995
2709,895,998
2710,904,1003
2711,921,1011
2712,934,1019
2713,945,1021
2714,954,1024
2715,962,1023
2716,959,1026
2717,961,1033
2718,962,1038
2719,966,1040
2720,970,1036
2721,977,1035
2722,988,1032
2723,996,1040
2724,999,1042
2725,998,1042
2726,998,1042
2727,997,1042
2728,996,1043
2729,1001,1043
2730,1017,1043
2731,1035,1044
2732,1047,1037
2733,1041,1031
2734,1024,1036
2735,1011,1043
2736,999,1051
2737,985,1053
2738,978,1054
2739,988,1047
2740,1007,1042
2741,1027,1042
2742,1037,1039
2743,1036,1035
2744,1029,1027
2745,1026,1024
2746,1023,1022
2747,1033,1021
2748,1050,1015
2749,1042,1004
2750,1008,1000
2751,968,992
2752,954,993
2753,963,998
2754,977,1002
2755,974,1000
2756,962,994
2757,964,989
2758,979,984
2759,999,978
2760,1007,985
2761,1013,984
2762,1017,984
2763,1016,986
2764,1011,993
2765,1014,1000
2766,1023,1009
2767,1027,1013
2768,1019,1019
2769,1005,1025
2770,1003,1037
2771,1026,1046
2772,1053,1059
2773,1070,1065
2774,1074,1064
2775,1066,1056
2776,1057,1046
2777,1037,1041
2778,1014,1036
2779,998,1032
2780,988,1033
2781,992,1028
2782,997,1031
2783,1018,1040
2784,1065,1046
2785,1122,1044
2786,1165,1032
2787,1190,1017
2788,1201,1000
2789,1220,1000
2790,1244,1003
2791,1265,1000
2792,1282,987
2793,1283,965
2794,1259,943
2795,1227,926
2796,1211,918
2797,1198,914
2798,1164,920
2799,1092,930
2800,1005,949
2801,956,974
2802,950,987
2803,962,998
2804,962,999
2805,950,1002
2806,932,1005
2807,935,1010
2808,942,1011
2809,950,1009
2810,958,1005
2811,963,1008
2812,954,1022
2813,928,1037
2814,913,1049
2815,922,1047
2816,952,1028
2817,969,999
2818,957,976
2819,908,967
2820,846,966
2821,832,977
2822,879,984
2823,940,996
2824,958,1010
2825,932,1013
2826,928,1015
2827,949,1012
2828,939,1002
2829,894,1002
2830,860,1008
2831,864,1020
2832,895,1029
2833,924,1030
2834,929,1032
2835,916,1030
2836,913,1034
2837,926,1040
2838,942,1040
2839,939,1034
2840,923,1033
2841,914,1027
2842,897,1031
2843,881,1033
2844,892,1044
2845,912,1045
2846,920,1045
2847,916,1048
2848,907,1048
2849,918,1052
2850,946,1050
2851,984,1044
2852,1002,1039
2853,986,1037
2854,949,1041
2855,921,1044
2856,915,1052
2857,932,1052
2858,936,1049
2859,933,1048
2860,944,1048
2861,961,1046
2862,979,1047
2863,987,1043
2864,971,1039
2865,951,1037
2866,941,1036
2867,967,1043
2868,1013,1044
2869,1041,1033
2870,1018,1018
2871,988,997
2872,988,989
2873,1009,990
2874,1024,997
2875,1039,1003
2876,1037,1005
2877,1008,1006
2878,967,1011
2879,937,1022
2880,946,1034
2881,991,1038
2882,1018,1037
2883,991,1036
2884,945,1038
2885,932,1043
2886,950,1040
2887,969,1035
2888,968,1028
2889,960,1027
2890,962,1029
2891,984,1039
2892,1000,1049
2893,998,1059
2894,987,1064
2895,980,1062
2896,990,1058
2897,1004,1051
2898,1019,1043
2899,1015,1037
2900,965,1025
2901,905,1023
2902,880,1030
2903,917,1038
2904,970,1045
2905,1001,1046
2906,995,1043
2907,964,1045
2908,929,1044
2909,922,1042
2910,937,1042
2911,956,1038
2912,963,1035
2913,963,1036
2914,973,1039
2915,1000,1045
2916,1021,1050
2917,1022,1049
2918,1002,1049
2919,984,1048
2920,975,1053
2921,994,1059
2922,1041,1063
2923,1081,1058
2924,1094,1051
2925,1100,1040
2926,1124,1030
2927,1164,1016
2928,1198,1003
2929,1226,984
2930,1255,970
2931,1280,962
2932,1287,954
2933,1292,947
2934,1290,938
2935,1270,928
2936,1237,922
2937,1214,918
2938,1204,916
2939,1184,920
2940,1123,934
2941,1025,945
2942,936,958
2943,891,973
2944,892,989
2945,909,1003
2946,914,1016
2947,908,1019
2948,889,1025
2949,868,1034
2950,846,1037
2951,826,1046
2952,819,1052
2953,830,1055
2954,850,1050
2955,862,1050
2956,865,1051
2957,869,1049
2958,871,1051
2959,872,1051
2960,862,1044
2961,854,1040
2962,846,1040
2963,843,1045
2964,845,1050
2965,854,1046
2966,869,1043
2967,880,1041
2968,888,1043
2969,889,1048
2970,875,1053
2971,849,1058
2972,843,1053
2973,871,1046
2974,929,1037
2975,960,1032
2976,924,1033
2977,847,1039
2978,794,1043
2979,806,1043
2980,849,1043
2981,889,1033
2982,897,1026
2983,890,1018
2984,883,1012
2985,879,1012
2986,857,1016
2987,835,1026
2988,826,1034
2989,829,1039
2990,849,1043
2991,869,1043
2992,875,1049
2993,877,1052
2994,882,1055
2995,891,1055
2996,900,1057
2997,902,1056
2998,908,1053
2999,929,1059
3000,963,1060
3001,981,1061
3002,953,1062
3003,910,1066
3004,885,1074
3005,886,1090
3006,886,1098
3007,881,1098
3008,897,1086
3009,945,1067
3010,978,1052
3011,961,1045
3012,926,1043
3013,909,1043
3014,908,1046
3015,915,1045
3016,917,1050
3017,925,1053
3018,932,1058
3019,931,1055
3020,912,1053
3021,893,1050
3022,887,1050
3023,896,1054
3024,904,1058
3025,904,1054
3026,901,1052
3027,899,1050
3028,899,1049
3029,905,1054
3030,912,1055
3031,918,1056
3032,917,1054
3033,913,1055
3034,916,1058
3035,932,1064
3036,958,1072
3037,967,1068
3038,938,1064
3039,886,1059
3040,843,1056
3041,829,1055
3042,849,1051
3043,877,1045
3044,892,1041
3045,898,1039
3046,906,1041
3047,924,1050
3048,940,1057
3049,942,1061
3050,920,1062
3051,900,1063
3052,887,1067
3053,899,1065
3054,918,1064
3055,913,1060
3056,891,1056
3057,861,1060
3058,847,1065
3059,845,1070
3060,860,1072
3061,880,1073
3062,891,1069
3063,897,1070
3064,896,1077
3065,898,1079
3066,905,1075
3067,910,1060
3068,911,1042
3069,909,1027
3070,905,1023
3071,904,1026
3072,907,1030
3073,909,1032
3074,910,1033
3075,907,1031
3076,909,1036
3077,913,1042
3078,920,1046
3079,924,1046
3080,926,1047
3081,934,1044
3082,941,1048
3083,937,1055
3084,908,1057
3085,881,1052
3086,871,1045
3087,877,1040
3088,886,1039
3089,886,1056
3090,881,1064
3091,898,1070
3092,918,1073
3093,927,1068
3094,906,1060
3095,868,1060
3096,852,1054
3097,857,1049
3098,874,1042
3099,890,1037
3100,897,1042
3101,898,1049
3102,898,1053
3103,892,1052
3104,889,1050
3105,898,1047
3106,909,1052
3107,909,1059
3108,908,1063
3109,920,1065
3110,942,1064
3111,963,1065
3112,971,1070
3113,972,1088
3114,996,1102
3115,1035,1112
3116,1062,1117
3117,1069,1107
3118,1053,1089
3119,1038,1073
3120,1068,1056
3121,1141,1038
3122,1223,1020
3123,1280,1001
3124,1303,990
3125,1290,978
3126,1252,975
3127,1230,976
3128,1234,975
3129,1252,975
3130,1269,971
3131,1275,955
3132,1242,944
3133,1185,930
3134,1133,926
3135,1089,925
3136,1050,933
3137,999,949
3138,954,967
3139,926,985
3140,910,995
3141,899,1007
3142,886,1018
3143,885,1034
3144,891,1050
3145,890,1062
3146,884,1066
3147,866,1062
3148,844,1063
3149,846,1054
3150,875,1044
3151,917,1027
3152,950,1018
3153,968,1011
3154,950,1016
3155,882,1031
3156,811,1045
3157,792,1056
3158,812,1059
3159,847,1053
3160,887,1051
3161,906,1047
3162,897,1048
3163,866,1049
3164,827,1052
3165,799,1057
3166,792,1060
3167,806,1065
3168,834,1068
3169,856,1062
3170,856,1057
3171,846,1052
3172,849,1050
3173,856,1050
3174,865,1056
3175,875,1056
3176,882,1057
3177,888,1056
3178,891,1055
3179,893,1055
3180,893,1047
3181,890,1037
3182,885,1024
3183,887,1018
3184,893,1019
3185,898,1031
3186,900,1039
3187,905,1043
3188,899,1049
3189,889,1053
3190,889,1062
3191,916,1068
3192,954,1070
3193,979,1062
3194,945,1051
3195,854,1051
3196,795,1055
3197,823,1066
3198,887,1074
3199,925,1076
3200,926,1074
3201,920,1072
3202,916,1075
3203,923,1074
3204,932,1078
3205,944,1075
3206,949,1070
3207,947,1066
3208,939,1067
3209,943,1068
3210,949,1073
3211,951,1075
3212,940,1077
3213,934,1080
3214,934,1089
3215,936,1099
3216,937,1101
3217,942,1103
3218,946,1088
3219,946,1065
3220,939,1047
3221,941,1034
3222,959,1026
3223,977,1020
3224,974,1017
3225,957,1011
3226,942,1011
3227,955,1016
3228,983,1026
3229,996,1028
3230,999,1028
3231,1000,1028
3232,986,1026
3233,950,1029
3234,927,1035
3235,937,1038
3236,956,1037
3237,963,1034
3238,962,1035
3239,962,1039
3240,974,1045
3241,991,1053
3242,994,1063
3243,990,1071
3244,983,1072
3245,976,1075
3246,952,1074
3247,926,1058
3248,911,1043
3249,921,1030
3250,937,1025
3251,945,1026
3252,939,1029
3253,942,1035
3254,948,1035
3255,955,1034
3256,953,1038
3257,953,1041
3258,961,1045
3259,978,1049
3260,993,1046
3261,990,1045
3262,969,1046
3263,954,1053
3264,945,1059
3265,950,1067
3266,950,1067
3267,932,1067
3268,926,1068
3269,939,1071
3270,951,1070
3271,960,1069
3272,957,1068
3273,954,1068
3274,957,1070
3275,970,1066
3276,977,1057
3277,978,1037
3278,977,1013
3279,971,993
3280,974,987
3281,995,990
3282,1017,998
3283,1034,1001
3284,1031,1005
3285,1023,1003
3286,1013,1010
3287,1001,1018
3288,973,1029
3289,942,1039
3290,919,1045
3291,924,1047
3292,934,1050
3293,947,1049
3294,957,1046
3295,974,1038
3296,987,1031
3297,989,1023
3298,990,1024
3299,991,1027
3300,988,1027
3301,987,1026
3302,985,1021
3303,987,1020
3304,983,1023
3305,983,1031
3306,984,1036
3307,988,1040
3308,982,1041
3309,976,1043
3310,981,1047
3311,990,1056
3312,992,1058
3313,990,1051
3314,996,1041
3315,1003,1028
3316,1010,1027
3317,1021,1029
3318,1039,1032
3319,1064,1041
3320,1093,1045
3321,1101,1048
3322,1107,1051
3323,1122,1050
3324,1157,1045
3325,1206,1037
3326,1259,1027
3327,1314,1013
3328,1339,1004
3329,1339,993
3330,1333,986
3331,1343,977
3332,1367,964
3333,1377,950
3334,1362,937
3335,1352,921
3336,1343,907
3337,1328,893
3338,1299,891
3339,1254,893
3340,1197,904
3341,1146,924
3342,1110,948
3343,1090,961
3344,1068,970
3345,1028,976
3346,977,981
3347,936,988
3348,935,993
3349,966,994
3350,989,992
3351,981,993
3352,950,997
3353,935,1006
3354,934,1012
3355,926,1020
3356,902,1024
3357,883,1029
3358,886,1033
3359,895,1040
3360,905,1046
3361,909,1051
3362,911,1056
3363,912,1068
3364,927,1076
3365,941,1074
3366,947,1068
3367,937,1051
3368,926,1029
3369,934,1015
3370,946,1011
3371,940,1017
3372,923,1027
3373,915,1032
3374,933,1039
3375,945,1048
3376,928,1055
3377,904,1058
3378,908,1054
3379,933,1042
3380,923,1022
3381,891,1007
3382,875,999
3383,885,996
3384,909,999
3385,931,1004
3386,944,1002
3387,946,1004
3388,946,1006
3389,947,1015
3390,956,1017
3391,971,1019
3392,969,1019
3393,951,1018
3394,942,1025
3395,956,1031
3396,978,1038
3397,998,1037
3398,1013,1035
3399,1017,1023
3400,1011,1021
3401,1005,1023
3402,1007,1036
3403,1003,1045
3404,985,1047
3405,978,1046
3406,987,1046
3407,1003,1045
3408,1016,1041
3409,1019,1037
3410,1006,1030
3411,990,1025
3412,993,1028
3413,1002,1032
3414,1002,1039
3415,998,1042
3416,990,1042
3417,989,1045
3418,994,1046
3419,999,1049
3420,1004,1050
3421,1012,1047
3422,1033,1042
3423,1043,1036
3424,1027,1036
3425,990,1041
3426,969,1044
3427,972,1043
3428,998,1038
3429,1026,1033
3430,1022,1032
3431,989,1036
3432,967,1036
3433,965,1039
3434,966,1039
3435,961,1037
3436,959,1040
3437,967,1042
3438,985,1043
3439,998,1042
3440,994,1038
3441,986,1034
3442,985,1037
3443,992,1039
3444,1005,1043
3445,1025,1044
3446,1038,1045
3447,1038,1048
3448,1018,1056
3449,1004,1065
3450,1005,1071
3451,1025,1074
3452,1038,1073
3453,1046,1067
3454,1054,1067
3455,1080,1060
3456,1124,1052
3457,1180,1037
3458,1241,1024
3459,1285,1013
3460,1323,1011
3461,1349,1009
3462,1347,1001
3463,1330,985
3464,1302,969
3465,1278,953
3466,1266,940
3467,1260,938
3468,1237,939
3469,1210,946
3470,1187,955
3471,1169,968
3472,1144,980
3473,1107,986
3474,1071,985
3475,1041,983
3476,1011,981
3477,968,982
3478,927,991
3479,921,1003
3480,932,1014
3481,944,1016
3482,945,1014
3483,938,1016
3484,932,1021
3485,929,1026
3486,934,1030
3487,935,1030
3488,925,1030
3489,918,1029
3490,913,1032
3491,913,1036
3492,922,1042
3493,925,1045
3494,934,1048
3495,941,1048
3496,938,1055
3497,925,1060
3498,909,1068
3499,906,1062
3500,913,1058
3501,924,1051
3502,941,1055
3503,960,1055
3504,955,1058
3505,916,1064
3506,871,1068
3507,853,1072
3508,870,1078
3509,897,1079
3510,912,1076
3511,919,1066
3512,925,1056
3513,932,1046
3514,932,1043
3515,936,1048
3516,939,1055
3517,947,1057
3518,950,1052
3519,953,1047
3520,951,1045
3521,957,1043
3522,963,1046
3523,971,1039
3524,972,1035
3525,977,1027
3526,978,1028
3527,983,1033
3528,990,1036
3529,994,1032
3530,999,1031
3531,996,1028
3532,994,1027
3533,1003,1032
3534,1011,1035
3535,1017,1035
3536,1018,1030
3537,1024,1030
3538,1026,1029
3539,1026,1031
3540,1022,1039
3541,1012,1037
3542,1001,1038
3543,992,1041
3544,988,1041
3545,991,1047
3546,996,1055
3547,1000,1054
3548,991,1054
3549,985,1050
3550,981,1054
3551,987,1059
3552,989,1060
3553,990,1061
3554,994,1057
3555,1002,1057
3556,1001,1061
3557,986,1064
3558,972,1071
3559,967,1072
3560,967,1071
3561,963,1070
3562,963,1073
3563,970,1073
3564,974,1076
3565,971,1076
3566,972,1069
3567,975,1066
3568,977,1063
3569,977,1067
3570,981,1067
3571,985,1066
3572,983,1062
3573,978,1056
3574,976,1055
3575,979,1054
3576,987,1051
3577,995,1046
3578,997,1037
3579,989,1033
3580,979,1027
3581,978,1027
3582,980,1026
3583,986,1021
3584,989,1019
3585,986,1018
3586,985,1020
3587,988,1026
3588,991,1031
3589,990,1029
3590,990,1028
3591,990,1023
3592,989,1026
3593,985,1030
3594,992,1035
3595,998,1032
3596,1003,1029
3597,999,1026
3598,991,1028
3599,989,1029
3600,988,1037
3601,991,1035
3602,996,1034
3603,1000,1033
3604,998,1033
3605,991,1039
3606,985,1045
3607,986,1047
3608,985,1046
3609,987,1043
3610,986,1046
3611,988,1049
3612,990,1055
3613,991,1055
3614,989,1055
3615,990,1058
3616,989,1058
3617,989,1059
3618,988,1058
3619,992,1054
3620,993,1046
3621,992,1041
3622,990,1039
3623,990,1038
3624,995,1041
3625,997,1034
3626,995,1030
3627,992,1026
3628,990,1026
3629,992,1029
3630,990,1028
3631,993,1025
3632,993,1019
3633,991,1017
3634,989,1018
3635,989,1018
3636,995,1021
3637,999,1020
3638,997,1016
3639,999,1018
3640,1003,1016
3641,1002,1022
3642,1002,1024
3643,1003,1023
3644,1007,1024
3645,1008,1023
3646,1004,1026
3647,1003,1028
3648,1007,1033
3649,1014,1033
3650,1015,1034
3651,1008,1033
3652,1005,1034
3653,1003,1037
3654,1008,1042
3655,1011,1040
3656,1008,1038
3657,1004,1040
3658,1003,1041
3659,1001,1047
3660,1003,1051
3661,1007,1051
3662,1007,1047
3663,1010,1047
3664,1009,1047
3665,1003,1048
3666,1002,1050
3667,1005,1051
3668,1006,1052
3669,1006,1049
3670,1003,1052
3671,1005,1050
3672,1007,1051
3673,1011,1046
3674,1008,1039
3675,1007,1035
3676,1004,1033
3677,1006,1035
3678,1012,1038
3679,1013,1033
3680,1009,1024
3681,1006,1023
3682,1005,1019
3683,1012,1019
3684,1014,1019
3685,1015,1014
3686,1016,1011
3687,1012,1008
3688,1011,1011
3689,1010,1010
3690,1013,1016
3691,1019,1017
3692,1016,1012
3693,1013,1009
3694,1010,1015
3695,1023,1017
3696,1039,1022
3697,1051,1027
3698,1056,1023
3699,1061,1026
3700,1072,1033
3701,1093,1041
3702,1109,1054
3703,1123,1058
3704,1135,1055
3705,1151,1039
3706,1190,1034
3707,1253,1027
3708,1315,1019
3709,1357,1004
3710,1367,987
3711,1372,984
3712,1383,983
3713,1393,978
3714,1390,972
3715,1381,952
3716,1364,932
3717,1328,920
3718,1293,918
3719,1261,923
3720,1227,931
3721,1191,942
3722,1142,954
3723,1094,964
3724,1055,977
3725,1023,1000
3726,1001,1017
3727,988,1023
3728,985,1023
3729,981,1029
3730,976,1028
3731,970,1033
3732,967,1038
3733,970,1038
3734,972,1033
3735,965,1032
3736,962,1031
3737,959,1035
3738,962,1038
3739,962,1035
3740,960,1031
3741,954,1027
3742,953,1026
3743,958,1030
3744,960,1032
3745,956,1031
3746,959,1027
3747,954,1023
3748,953,1024
3749,955,1027
3750,959,1033
3751,964,1031
3752,963,1029
3753,960,1028
3754,958,1027
3755,960,1032
3756,962,1036
3757,966,1036
3758,965,1036
3759,963,1035
3760,964,1040
3761,967,1041
3762,969,1042
3763,971,1040
3764,970,1036
3765,965,1037
3766,965,1038
3767,967,1041
3768,970,1047
3769,972,1046
3770,978,1043
3771,979,1041
3772,980,1039
3773,980,1043
3774,986,1050
3775,989,1053
3776,988,1051
3777,989,1051
3778,990,1051
3779,998,1052
3780,1001,1054
3781,1006,1054
3782,1007,1049
3783,1012,1046
3784,1013,1049
3785,1018,1052
3786,1024,1056
3787,1033,1058
3788,1036,1056
3789,1038,1054
3790,1044,1055
3791,1050,1059
3792,1056,1063
3793,1062,1064
3794,1062,1059
3795,1064,1056
3796,1064,1057
3797,1065,1057
3798,1070,1057
3799,1073,1056
3800,1073,1053
3801,1070,1051
3802,1067,1049
3803,1066,1055
3804,1068,1056
3805,1068,1056
3806,1069,1050
3807,1066,1049
3808,1065,1047
3809,1066,1046
3810,1063,1049
3811,1063,1048
3812,1064,1044
3813,1062,1039
3814,1058,1039
3815,1061,1041
3816,1065,1042
3817,1068,1038
3818,1068,1036
3819,1063,1030
3820,1061,1026
3821,1065,1026
3822,1064,1024
3823,1068,1020
3824,1066,1013
3825,1062,1013
3826,1063,1015
3827,1062,1018
3828,1065,1024
3829,1072,1022
3830,1078,1021
3831,1082,1015
3832,1093,1012
3833,1107,1013
3834,1123,1016
3835,1130,1016
3836,1122,1014
3837,1101,1015
3838,1090,1021
3839,1081,1031
3840,1068,1048
3841,1042,1062
3842,1021,1073
3843,1016,1086
3844,1022,1095
3845,1028,1099
3846,1021,1095
3847,1002,1080
3848,991,1061
3849,985,1042
3850,979,1023
3851,959,1009
3852,943,995
3853,931,974
3854,932,944
3855,939,927
3856,940,922
3857,940,922
3858,959,924
3859,986,924
3860,1010,918
3861,1021,919
3862,1022,920
3863,1016,925
3864,1014,930
3865,1016,933
3866,1021,930
3867,1029,931
3868,1041,939
3869,1054,947
3870,1063,953
3871,1065,958
3872,1073,961
3873,1078,965
3874,1075,968
3875,1068,974
3876,1069,979
3877,1064,980
3878,1055,979
3879,1045,976
3880,1039,982
3881,1039,989
3882,1043,998
3883,1045,995
3884,1043,997
3885,1040,995
3886,1043,998
3887,1045,999
3888,1053,1005
3889,1051,1006
3890,1053,1005
3891,1054,1005
3892,1054,1005
3893,1058,1009
3894,1064,1015
3895,1072,1019
3896,1076,1021
3897,1078,1021
3898,1082,1026
3899,1093,1029
3900,1103,1031
3901,1110,1036
3902,1111,1031
3903,1116,1031
3904,1124,1033
3905,1133,1039
3906,1140,1041
3907,1147,1043
3908,1153,1041
3909,1158,1039
3910,1162,1041
3911,1170,1044
3912,1179,1046
3913,1190,1045
3914,1197,1044
3915,1199,1040
3916,1205,1042
3917,1217,1044
3918,1226,1045
3919,1231,1045
3920,1242,1042
3921,1248,1040
3922,1253,1038
3923,1257,1041
3924,1262,1041
3925,1268,1041
3926,1274,1039
3927,1273,1035
3928,1273,1036
3929,1276,1038
3930,1276,1041
3931,1271,1035
3932,1269,1031
3933,1260,1028
3934,1249,1026
3935,1243,1023
3936,1236,1023
3937,1232,1018
3938,1221,1011
3939,1210,1007
3940,1197,1005
3941,1194,1007
3942,1186,1009
3943,1177,1009
3944,1169,1010
3945,1159,1009
3946,1151,1011
3947,1142,1015
3948,1139,1019
3949,1134,1021
3950,1128,1017
3951,1120,1016
3952,1111,1018
3953,1109,1023
3954,1110,1025
3955,1107,1025
3956,1103,1023
3957,1097,1018
3958,1094,1021
3959,1091,1023
3960,1087,1025
3961,1089,1023
3962,1088,1018
3963,1083,1016
3964,1078,1014
3965,1081,1017
3966,1086,1020
3967,1083,1018
3968,1083,1015
3969,1078,1014
3970,1077,1013
3971,1080,1017
3972,1080,1022
3973,1082,1023
3974,1082,1024
3975,1079,1020
3976,1084,1024
3977,1101,1028
3978,1125,1035
3979,1142,1032
3980,1149,1029
3981,1158,1026
3982,1169,1028
3983,1174,1036
3984,1178,1046
3985,1203,1051
3986,1238,1042
3987,1284,1035
3988,1331,1029
3989,1371,1020
3990,1388,1008
3991,1388,986
3992,1389,967
3993,1381,952
3994,1364,944
3995,1348,930
3996,1328,915
3997,1302,899
3998,1271,891
3999,1244,890
4000,1214,896
4001,1181,908
4002,1141,925
4003,1107,936
4004,1070,944
4005,1039,951
4006,1018,966
4007,1016,980
4008,1015,986
4009,1012,989
4010,1002,990
4011,994,991
4012,986,996
4013,983,1003
4014,983,1007
4015,985,1009
4016,978,1008
4017,971,1005
4018,968,1006
4019,965,1010
4020,969,1013
4021,971,1012
4022,966,1012
4023,964,1006
4024,964,1008
4025,964,1006
4026,967,1011
4027,970,1005
4028,971,1003
4029,968,1001
4030,968,1000
4031,968,1002
4032,972,1004
4033,974,1001
4034,975,994
4035,976,992
4036,976,990
4037,979,993
4038,984,998
4039,983,993
4040,981,991
4041,979,989
4042,981,987
4043,988,991
4044,987,994
4045,987,987
4046,983,984
4047,983,980
4048,981,983
4049,982,985
4050,985,990
4051,988,990
4052,991,987
4053,988,988
4054,986,992
4055,989,998
4056,995,1003
4057,998,1004
4058,1002,1004
4059,1004,1004
4060,1011,1006
4061,1023,1010
4062,1030,1015
4063,1033,1012
4064,1040,1010
4065,1044,1007
4066,1050,1011
4067,1055,1016
4068,1061,1017
4069,1064,1015
4070,1066,1013
4071,1064,1012
4072,1059,1015
4073,1065,1017
4074,1070,1020
4075,1070,1019
4076,1063,1017
4077,1061,1017
4078,1061,1016
4079,1060,1021
4080,1060,1024
4081,1058,1023
4082,1055,1020
4083,1051,1019
4084,1049,1016
4085,1049,1016
4086,1053,1017
4087,1053,1015
4088,1051,1010
4089,1045,1003
4090,1049,999
4091,1050,996
4092,1050,995
4093,1049,993
4094,1048,983
4095,1046,974
4096,1047,970
4097,1051,972
4098,1053,971
4099,1058,966
4100,1061,962
4101,1057,959
4102,1052,960
4103,1054,963
4104,1060,965
4105,1063,965
4106,1056,967
4107,1048,963
4108,1046,967
4109,1049,973
4110,1049,977
4111,1053,979
4112,1051,976
4113,1050,974
4114,1047,978
4115,1052,983
4116,1058,991
4117,1056,990
4118,1052,987
4119,1050,988
4120,1053,988
4121,1053,993
4122,1052,995
4123,1053,997
4124,1054,993
4125,1050,992
4126,1050,996
4127,1054,1000
4128,1057,1002
4129,1054,1001
4130,1053,999
4131,1049,998
4132,1055,999
4133,1049,1004
4134,1047,1007
4135,1050,1008
4136,1055,1004
4137,1051,999
4138,1046,1000
4139,1048,1001
4140,1054,1006
4141,1054,1004
4142,1049,997
4143,1043,997
4144,1043,997
4145,1042,998
4146,1042,1002
4147,1045,1001
4148,1045,998
4149,1039,998
4150,1034,998
4151,1035,1003
4152,1044,1006
4153,1042,1004
4154,1039,999
4155,1033,998
4156,1035,993
4157,1042,990
4158,1045,984
4159,1048,972
4160,1047,961
4161,1047,956
4162,1048,955
4163,1050,958
4164,1050,958
4165,1049,957
4166,1046,960
4167,1041,955
4168,1041,960
4169,1043,968
4170,1043,970
4171,1043,972
4172,1039,970
4173,1040,969
4174,1041,973
4175,1044,977
4176,1043,981
4177,1048,982
4178,1049,977
4179,1044,975
4180,1039,979
4181,1039,984
4182,1042,990
4183,1042,988
4184,1040,985
4185,1036,983
4186,1034,988
4187,1033,992
4188,1036,997
4189,1037,995
4190,1041,996
4191,1041,991
4192,1039,990
4193,1040,993
4194,1041,996
4195,1038,996
4196,1034,997
4197,1036,996
4198,1036,995
4199,1037,1005
4200,1034,1008
4201,1038,1006
4202,1037,1002
4203,1038,1002
4204,1033,997
4205,1032,1001
4206,1037,1004
4207,1043,1002
4208,1045,998
4209,1039,995
4210,1034,996
4211,1034,998
4212,1036,1003
4213,1039,1003
4214,1044,997
4215,1054,993
4216,1067,992
4217,1078,997
4218,1088,998
4219,1094,999
4220,1096,1000
4221,1098,1001
4222,1103,1006
4223,1116,1020
4224,1127,1028
4225,1131,1023
4226,1137,1020
4227,1146,1010
4228,1165,1007
4229,1183,1004
4230,1200,1003
4231,1210,989
4232,1218,972
4233,1228,957
4234,1236,949
4235,1243,947
4236,1252,944
4237,1259,930
4238,1241,916
4239,1217,905
4240,1195,895
4241,1183,893
4242,1176,899
4243,1156,901
4244,1121,906
4245,1085,915
4246,1058,929
4247,1044,944
4248,1024,961
4249,1014,971
4250,1006,979
4251,1003,982
4252,1001,987
4253,999,997
4254,995,1000
4255,991,1000
4256,986,1002
4257,982,1002
4258,979,1004
4259,978,1010
4260,979,1013
4261,980,1013
4262,979,1012
4263,971,1010
4264,965,1012
4265,969,1016
4266,971,1021
4267,972,1017
4268,967,1014
4269,960,1012
4270,960,1012
4271,961,1016
4272,961,1020
4273,960,1016
4274,956,1013
4275,959,1009
4276,962,1008
4277,962,1006
4278,962,1006
4279,965,1006
4280,968,999
4281,967,995
4282,963,994
4283,967,992
4284,970,993
4285,973,983
4286,974,972
4287,975,963
4288,978,960
4289,987,959
4290,994,957
4291,998,950
4292,1002,945
4293,1002,942
4294,1003,948
4295,1002,953
4296,1009,965
4297,1016,966
4298,1016,966
4299,1010,967
4300,1007,972
4301,1013,981
4302,1017,990
4303,1024,990
4304,1020,988
4305,1020,992
4306,1022,996
4307,1024,1002
4308,1026,1008
4309,1027,1007
4310,1027,1008
4311,1031,1008
4312,1034,1009
4313,1033,1016
4314,1040,1021
4315,1044,1022
4316,1042,1020
4317,1041,1019
4318,1037,1023
4319,1033,1024
4320,1034,1028
4321,1037,1024
4322,1040,1017
4323,1038,1015
4324,1027,1019
4325,1027,1022
4326,1033,1024
4327,1035,1020
4328,1030,1015
4329,1019,1009
4330,1016,1010
4331,1018,1015
4332,1024,1013
4333,1027,1014
4334,1023,1010
4335,1022,1005
4336,1019,1004
4337,1014,1008
4338,1012,1009
4339,1017,1009
4340,1018,1003
4341,1017,998
4342,1015,996
4343,1020,993
4344,1023,992
4345,1021,982
4346,1022,974
4347,1021,966
4348,1023,964
4349,1026,959
4350,1026,960
4351,1028,961
4352,1027,958
4353,1024,956
4354,1026,953
4355,1025,961
4356,1025,969
4357,1021,972
4358,1023,971
4359,1028,973
4360,1029,975
4361,1029,987
4362,1032,990
4363,1033,995
4364,1029,994
4365,1028,998
4366,1026,1001
4367,1032,1004
4368,1037,1011
4369,1036,1009
4370,1030,1010
4371,1025,1008
4372,1024,1009
4373,1030,1015
4374,1037,1020
4375,1040,1020
4376,1034,1019
4377,1027,1016
4378,1022,1015
4379,1026,1019
4380,1032,1022
4381,1031,1023
4382,1029,1018
4383,1020,1016
4384,1016,1016
4385,1019,1018
4386,1022,1025
4387,1021,1024
4388,1017,1020
4389,1016,1018
4390,1015,1018
4391,1015,1021
4392,1012,1023
4393,1014,1023
4394,1015,1017
4395,1010,1014
4396,1003,1015
4397,996,1015
4398,998,1018
4399,999,1017
4400,1001,1009
4401,999,1005
4402,995,1002
4403,992,1005
4404,990,1007
4405,994,1003
4406,995,996
4407,996,984
4408,1000,980
4409,1004,982
4410,1006,981
4411,1008,978
4412,1011,974
4413,1009,971
4414,1005,974
4415,1002,974
4416,1004,980
4417,1006,978
4418,1003,974
4419,995,971
4420,995,980
4421,998,981
4422,1000,984
4423,998,983
4424,992,980
4425,987,983
4426,990,990
4427,994,995
4428,999,1000
4429,1000,998
4430,993,996
4431,986,997
4432,992,1004
4433,998,1008
4434,1001,1012
4435,1003,1008
4436,1005,1009
4437,998,1009
4438,991,1013
4439,984,1017
4440,986,1019
4441,989,1018
4442,985,1014
4443,981,1015
4444,980,1018
4445,982,1024
4446,983,1025
4447,987,1026
4448,979,1025
4449,980,1023
4450,987,1025
4451,993,1026
4452,997,1028
4453,991,1029
4454,980,1023
4455,975,1023
4456,974,1025
4457,976,1028
4458,981,1028
4459,978,1029
4460,973,1023
4461,971,1024
4462,971,1026
4463,971,1027
4464,974,1031
4465,978,1030
4466,978,1026
4467,974,1026
4468,971,1026
4469,974,1026
4470,979,1024
4471,982,1021
4472,975,1015
4473,972,1013
4474,975,1011
4475,981,1007
4476,988,1005
4477,990,1000
4478,990,986
4479,987,977
4480,988,972
4481,989,970
4482,988,973
4483,983,973
4484,981,972
4485,984,970
4486,987,972
4487,986,977
4488,984,981
4489,986,980
4490,989,982
4491,987,980
4492,984,984
4493,985,991
4494,991,994
4495,992,997
4496,990,994
4497,984,993
4498,978,998
4499,980,1006
4500,982,1008
4501,982,1010
4502,980,1007
4503,977,1005
4504,975,1008
4505,976,1013
4506,982,1017
4507,988,1016
4508,985,1015
4509,983,1013
4510,989,1016
4511,1005,1019
4512,1022,1019
4513,1034,1014
4514,1042,1009
4515,1047,1002
4516,1050,996
4517,1058,993
4518,1067,982
4519,1073,964
4520,1077,947
4521,1083,926
4522,1087,908
4523,1100,889
4524,1111,871
4525,1111,849
4526,1112,829
4527,1120,819
4528,1122,814
4529,1110,811
4530,1091,814
4531,1064,815
4532,1020,816
4533,976,824
4534,938,833
4535,914,845
4536,899,855
4537,872,861
4538,831,861
4539,804,864
4540,801,872
4541,817,880
4542,829,888
4543,836,894
4544,848,895
4545,862,902
4546,875,910
4547,885,922
4548,896,932
4549,907,941
4550,918,947
4551,929,949
4552,946,961
4553,963,969
4554,967,978
4555,965,983
4556,951,986
4557,943,994
4558,935,1008
4559,935,1018
4560,937,1027
4561,934,1035
4562,932,1038
4563,927,1044
4564,924,1052
4565,927,1063
4566,929,1072
4567,930,1072
4568,924,1072
4569,918,1076
4570,922,1076
4571,924,1080
4572,918,1085
4573,912,1084
4574,905,1084
4575,904,1086
4576,908,1089
4577,913,1090
4578,918,1094
4579,925,1093
4580,920,1090
4581,902,1086
4582,875,1088
4583,866,1093
4584,879,1096
4585,885,1094
4586,874,1088
4587,861,1087
4588,866,1091
4589,889,1093
4590,903,1095
4591,899,1092
4592,895,1083
4593,892,1077
4594,897,1073
4595,895,1074
4596,887,1077
4597,891,1076
4598,896,1071
4599,895,1073
4600,892,1076
4601,902,1078
4602,915,1081
4603,922,1082
4604,919,1083
4605,912,1083
4606,911,1081
4607,916,1084
4608,919,1085
4609,929,1085
4610,937,1083
4611,944,1080
4612,950,1082
4613,957,1084
4614,967,1085
4615,976,1081
4616,979,1075
4617,978,1069
4618,980,1071
4619,986,1070
4620,991,1070
4621,1000,1066
4622,1007,1060
4623,1006,1056
4624,1005,1057
4625,1007,1060
4626,1011,1060
4627,1012,1052
4628,1008,1045
4629,1013,1042
4630,1019,1046
4631,1020,1048
4632,1015,1048
4633,1007,1045
4634,997,1037
4635,986,1031
4636,984,1032
4637,988,1032
4638,993,1032
4639,991,1032
4640,989,1025
4641,991,1024
4642,994,1024
4643,993,1026
4644,992,1031
4645,987,1030
4646,980,1025
4647,974,1024
4648,972,1021
4649,977,1023
4650,979,1023
4651,973,1019
4652,962,1014
4653,954,1011
4654,957,1006
4655,968,1004
4656,976,1001
4657,972,999
4658,966,996
4659,957,994
4660,955,996
4661,958,999
4662,961,1008
4663,965,1005
4664,969,1003
4665,967,1004
4666,960,1008
4667,965,1006
4668,971,1012
4669,966,1011
4670,958,1014
4671,952,1016
4672,954,1017
4673,959,1020
4674,957,1019
4675,952,1019
4676,954,1019
4677,964,1020
4678,968,1018
4679,967,1019
4680,961,1023
4681,953,1021
4682,954,1021
4683,959,1016
4684,961,1016
4685,961,1019
4686,961,1017
4687,966,1017
4688,963,1011
4689,964,1009
4690,965,1011
4691,971,1013
4692,978,1014
4693,989,1011
4694,1001,1009
4695,1016,1009
4696,1022,1015
4697,1015,1026
4698,999,1039
4699,979,1052
4700,952,1062
4701,928,1074
4702,916,1085
4703,913,1087
4704,919,1082
4705,923,1066
4706,918,1045
4707,916,1017
4708,918,987
4709,908,958
4710,905,938
4711,919,917
4712,950,906
4713,980,893
4714,1011,886
4715,1042,882
4716,1072,881
4717,1101,879
4718,1126,875
4719,1141,869
4720,1155,871
4721,1160,870
4722,1162,873
4723,1159,873
4724,1154,874
4725,1143,874
4726,1131,886
4727,1112,894
4728,1084,907
4729,1050,918
4730,1014,928
4731,982,937
4732,956,948
4733,938,963
4734,942,974
4735,943,984
4736,937,985
4737,930,986
4738,928,994
4739,928,1001
4740,927,1007
4741,923,1005
4742,919,1004
4743,922,1007
4744,922,1010
4745,927,1012
4746,926,1016
4747,928,1015
4748,925,1011
4749,922,1013
4750,920,1012
4751,922,1016
4752,931,1017
4753,933,1017
4754,936,1013
4755,936,1015
4756,937,1017
4757,940,1019
4758,944,1023
4759,949,1022
4760,956,1017
4761,960,1015
4762,967,1012
4763,980,1014
4764,990,1012
4765,995,1008
4766,994,1000
4767,993,1000
4768,998,999
4769,1007,1005
4770,1011,1007
4771,1008,1006
4772,1013,1005
4773,1021,1002
4774,1029,1006
4775,1035,1010
4776,1041,1009
4777,1044,1010
4778,1046,1010
4779,1045,1012
4780,1048,1012
4781,1052,1018
4782,1056,1022
4783,1052,1022
4784,1048,1022
4785,1042,1020
4786,1041,1023
4787,1039,1028
4788,1039,1032
4789,1032,1032
4790,1027,1032
4791,1025,1027
4792,1020,1030
4793,1017,1033
4794,1014,1037
4795,1008,1034
4796,1004,1032
4797,1000,1031
4798,991,1031
4799,990,1033
4800,989,1036
4801,989,1035
4802,982,1032
4803,975,1027
4804,972,1027
4805,973,1029
4806,972,1030
4807,969,1029
4808,964,1026
4809,965,1020
4810,965,1021
4811,969,1025
4812,969,1027
4813,969,1022
4814,970,1019
4815,972,1017
4816,972,1018
4817,974,1020
4818,976,1018
4819,978,1016
4820,977,1009
4821,976,1006
4822,973,1001
4823,976,1003
4824,983,1004
4825,985,999
4826,979,995
4827,977,991
4828,976,992
4829,980,994
4830,983,995
4831,981,996
4832,978,996
4833,977,991
4834,978,994
4835,979,998
4836,978,1002
4837,978,1003
4838,981,1004
4839,987,1003
4840,993,1007
4841,996,1011
4842,997,1020
4843,1001,1020
4844,1003,1016
4845,1007,1015
4846,1009,1019
4847,1014,1023
4848,1024,1023
4849,1051,1018
4850,1089,1007
4851,1129,998
4852,1166,990
4853,1185,981
4854,1198,967
4855,1217,955
4856,1238,946
4857,1246,939
4858,1246,933
4859,1249,927
4860,1249,925
4861,1240,916
4862,1223,912
4863,1198,911
4864,1173,915
4865,1140,931
4866,1096,938
4867,1048,948
4868,1009,953
4869,967,957
4870,942,969
4871,927,980
4872,931,990
4873,931,989
4874,918,985
4875,908,987
4876,906,987
4877,911,989
4878,910,988
4879,904,989
4880,902,987
4881,901,984
4882,898,986
4883,898,988
4884,898,993
4885,904,994
4886,904,990
4887,900,986
4888,895,993
4889,898,993
4890,903,999
4891,906,999
4892,904,996
4893,904,996
4894,906,996
4895,912,1001
4896,914,1003
4897,917,1002
4898,913,1001
4899,911,1004
4900,911,1005
4901,915,1012
4902,921,1014
4903,924,1014
4904,920,1011
4905,919,1012
4906,922,1017
4907,926,1021
4908,933,1027
4909,931,1026
4910,932,1023
4911,932,1022
4912,930,1026
4913,934,1026
4914,935,1027
4915,936,1024
4916,940,1022
4917,943,1018
4918,944,1018
4919,958,1020
4920,970,1020
4921,976,1010
4922,974,1004
4923,970,993
4924,973,989
4925,980,987
4926,982,986
4927,986,982
4928,996,975
4929,1005,973
4930,1009,973
4931,999,976
4932,980,978
4933,971,979
4934,966,979
4935,968,974
4936,968,978
4937,969,981
4938,971,988
4939,972,986
4940,963,986
4941,958,988
4942,959,993
4943,964,998
4944,970,1003
4945,969,1002
4946,968,1000
4947,967,997
4948,958,1000
4949,958,1004
4950,956,1007
4951,953,1004
4952,947,1002
4953,948,1005
4954,951,1009
4955,959,1015
4956,964,1019
4957,965,1012
4958,966,1003
4959,964,996
4960,960,997
4961,945,1003
4962,935,1010
4963,933,1012
4964,930,1016
4965,926,1018
4966,922,1022
4967,929,1031
4968,934,1036
4969,942,1035
4970,946,1030
4971,952,1021
4972,968,1013
4973,985,1006
4974,992,992
4975,987,978
4976,971,966
4977,953,964
4978,952,966
4979,952,971
4980,950,973
4981,941,973
4982,922,966
4983,903,958
4984,889,954
4985,887,957
4986,889,956
4987,897,960
4988,896,961
4989,888,967
4990,882,978
4991,886,997
4992,899,1006
4993,912,1008
4994,913,1012
4995,910,1014
4996,911,1012
4997,915,1013
4998,918,1010
4999,919,1001
5000,916,986
5001,913,975
5002,921,973
5003,931,973
5004,937,978
5005,936,975
5006,928,970
5007,929,972
5008,928,975
5009,928,977
5010,927,983
5011,925,983
5012,927,983
5013,924,984
5014,923,989
5015,920,994
5016,922,995
5017,924,996
5018,920,993
5019,916,992
5020,911,998
5021,911,1001
5022,914,1007
5023,917,1006
5024,915,1004
5025,910,1001
5026,908,1006
5027,908,1014
5028,909,1018
5029,902,1015
5030,902,1012
5031,901,1014
5032,899,1017
5033,899,1021
5034,899,1023
5035,898,1017
5036,895,1013
5037,891,1010
5038,889,1010
5039,894,1011
5040,895,1010
5041,901,1006
5042,899,1000
5043,897,995
5044,897,993
5045,898,994
5046,898,996
5047,898,995
5048,893,991
5049,892,991
5050,891,993
5051,892,996
5052,900,999
5053,908,1000
5054,911,996
5055,906,998
5056,899,1001
5057,895,1006
5058,891,1009
5059,887,1010
5060,882,1009
5061,881,1006
5062,889,1013
5063,900,1017
5064,912,1028
5065,917,1023
5066,915,1021
5067,907,1025
5068,917,1025
5069,938,1026
5070,964,1028
5071,975,1022
5072,984,1015
5073,997,1008
5074,1026,997
5075,1071,989
5076,1122,980
5077,1162,965
5078,1183,948
5079,1190,931
5080,1194,925
5081,1206,929
5082,1215,929
5083,1216,928
5084,1210,923
5085,1191,914
5086,1170,912
5087,1146,918
5088,1121,924
5089,1075,931
5090,1017,939
5091,963,945
5092,917,958
5093,881,971
5094,859,982
5095,853,989
5096,848,992
5097,840,991
5098,828,999
5099,824,1006
5100,824,1007
5101,825,1012
5102,821,1007
5103,816,1008
5104,813,1015
5105,809,1018
5106,810,1026
5107,806,1024
5108,803,1022
5109,794,1024
5110,788,1027
5111,790,1031
5112,793,1034
5113,798,1035
5114,793,1034
5115,793,1034
5116,790,1039
5117,792,1043
5118,793,1047
5119,796,1046
5120,793,1045
5121,792,1046
5122,792,1048
5123,792,1054
5124,797,1055
5125,797,1054
5126,789,1054
5127,789,1056
5128,795,1057
5129,800,1059
5130,800,1061
5131,799,1062
5132,793,1059
5133,794,1063
5134,795,1065
5135,799,1071
5136,803,1074
5137,804,1076
5138,806,1076
5139,803,1078
5140,801,1082
5141,807,1085
5142,810,1082
5143,810,1079
5144,814,1070
5145,816,1062
5146,818,1063
5147,819,1058
5148,823,1051
5149,829,1048
5150,827,1038
5151,830,1034
5152,836,1034
5153,841,1038
5154,840,1038
5155,846,1039
5156,851,1037
5157,852,1035
5158,853,1035
5159,850,1039
5160,845,1044
5161,849,1040
5162,850,1040
5163,842,1038
5164,842,1041
5165,844,1043
5166,847,1047
5167,850,1045
5168,850,1044
5169,847,1041
5170,843,1041
5171,843,1046
5172,845,1050
5173,844,1048
5174,838,1046
5175,836,1044
5176,837,1047
5177,840,1051
5178,849,1054
5179,851,1056
5180,847,1051
5181,845,1052
5182,844,1053
5183,847,1057
5184,850,1062
5185,849,1060
5186,847,1057
5187,845,1056
5188,842,1059
5189,840,1066
5190,839,1065
5191,837,1062
5192,836,1060
5193,833,1058
5194,840,1063
5195,841,1062
5196,851,1065
5197,848,1057
5198,842,1055
5199,834,1052
5200,830,1049
5201,829,1056
5202,828,1051
5203,823,1050
5204,823,1045
5205,826,1041
5206,830,1040
5207,830,1041
5208,829,1040
5209,820,1037
5210,818,1034
5211,818,1034
5212,820,1034
5213,828,1036
5214,832,1032
5215,828,1034
5216,820,1032
5217,815,1031
5218,819,1032
5219,821,1041
5220,823,1039
5221,824,1038
5222,825,1036
5223,826,1034
5224,825,1036
5225,823,1039
5226,826,1044
5227,825,1043
5228,823,1043
5229,818,1043
5230,824,1049
5231,836,1059
5232,847,1065
5233,846,1070
5234,850,1066
5235,863,1068
5236,869,1069
5237,884,1070
5238,913,1068
5239,957,1055
5240,1008,1038
5241,1067,1018
5242,1125,996
5243,1163,975
5244,1178,958
5245,1187,947
5246,1203,936
5247,1208,924
5248,1201,919
5249,1195,916
5250,1176,916
5251,1150,912
5252,1106,916
5253,1051,919
5254,998,930
5255,946,947
5256,895,960
5257,841,972
5258,796,982
5259,773,997
5260,769,1011
5261,768,1021
5262,766,1028
5263,765,1031
5264,757,1030
5265,750,1031
5266,751,1036
5267,753,1037
5268,758,1042
5269,755,1041
5270,753,1037
5271,749,1042
5272,743,1042
5273,743,1048
5274,748,1051
5275,750,1049
5276,745,1048
5277,737,1048
5278,740,1054
5279,746,1056
5280,753,1062
5281,753,1062
5282,750,1061
5283,748,1058
5284,748,1066
5285,753,1071
5286,753,1074
5287,755,1071
5288,750,1069
5289,749,1066
5290,750,1070
5291,755,1072
5292,763,1079
5293,765,1077
5294,764,1074
5295,767,1075
5296,768,1073
5297,775,1075
5298,776,1073
5299,781,1066
5300,783,1060
5301,778,1051
5302,778,1048
5303,785,1044
5304,790,1043
5305,795,1031
5306,797,1024
5307,796,1019
5308,800,1018
5309,802,1020
5310,802,1016
5311,804,1020
5312,811,1014
5313,822,1013
5314,829,1013
5315,834,1018
5316,834,1023
5317,833,1024
5318,828,1026
5319,824,1025
5320,824,1031
5321,827,1037
5322,829,1040
5323,829,1042
5324,827,1040
5325,824,1043
5326,821,1050
5327,813,1052
5328,818,1055
5329,820,1054
5330,819,1054
5331,815,1053
5332,814,1058
5333,809,1062
5334,809,1066
5335,807,1061
5336,808,1062
5337,808,1061
5338,807,1064
5339,808,1071
5340,810,1070
5341,815,1072
5342,811,1068
5343,810,1065
5344,810,1066
5345,813,1067
5346,813,1067
5347,815,1064
5348,812,1058
5349,812,1055
5350,813,1055
5351,817,1056
5352,819,1056
5353,812,1048
5354,811,1043
5355,809,1039
5356,812,1036
5357,818,1034
5358,822,1035
5359,822,1030
5360,825,1024
5361,822,1022
5362,820,1024
5363,818,1025
5364,819,1030
5365,817,1028
5366,809,1026
5367,803,1027
5368,806,1029
5369,813,1036
5370,815,1036
5371,810,1034
5372,804,1032
5373,802,1031
5374,807,1032
5375,811,1039
5376,814,1041
5377,811,1039
5378,810,1041
5379,807,1041
5380,807,1039
5381,810,1048
5382,813,1050
5383,814,1048
5384,815,1046
5385,813,1045
5386,816,1051
5387,822,1055
5388,826,1062
5389,825,1062
5390,825,1060
5391,823,1059
5392,821,1064
5393,825,1066
5394,828,1068
5395,834,1064
5396,837,1063
5397,835,1061
5398,835,1059
5399,837,1062
5400,843,1064
5401,845,1058
5402,845,1056
5403,841,1053
5404,841,1053
5405,846,1057
5406,846,1054
5407,851,1047
5408,850,1040
5409,848,1036
5410,848,1036
5411,853,1034
5412,858,1034
5413,862,1032
5414,855,1026
5415,855,1024
5416,864,1027
5417,877,1031
5418,888,1035
5419,891,1031
5420,898,1029
5421,912,1023
5422,932,1023
5423,953,1029
5424,976,1023
5425,1003,1013
5426,1042,1000
5427,1089,987
5428,1139,978
5429,1191,968
5430,1225,957
5431,1240,940
5432,1239,932
5433,1241,931
5434,1245,933
5435,1243,934
5436,1238,927
5437,1222,921
5438,1191,918
5439,1158,919
5440,1117,926
5441,1066,940
5442,1013,952
5443,955,964
5444,906,976
5445,863,986
5446,837,1001
5447,834,1012
5448,840,1021
5449,838,1021
5450,831,1021
5451,823,1021
5452,821,1026
5453,817,1029
5454,817,1033
5455,817,1031
5456,813,1035
5457,813,1031
5458,816,1034
5459,818,1040
5460,818,1046
5461,815,1043
5462,815,1041
5463,814,1041
5464,816,1043
5465,813,1044
5466,815,1044
5467,818,1041
5468,818,1039
5469,816,1036
5470,816,1040
5471,819,1040
5472,825,1044
5473,826,1041
5474,821,1039
5475,819,1041
5476,821,1041
5477,825,1045
5478,827,1048
5479,829,1048
5480,825,1043
5481,822,1047
5482,821,1048
5483,821,1050
5484,826,1049
5485,827,1050
5486,825,1050
5487,826,1046
5488,822,1052
5489,828,1055
5490,831,1059
5491,833,1059
5492,834,1056
5493,836,1054
5494,841,1055
5495,848,1060
5496,858,1059
5497,863,1056
5498,864,1050
5499,865,1047
5500,870,1047
5501,876,1046
5502,881,1049
5503,885,1043
5504,888,1040
5505,894,1041
5506,897,1043
5507,900,1047
5508,907,1046
5509,905,1044
5510,905,1041
5511,901,1040
5512,904,1038
5513,908,1039
5514,915,1039
5515,915,1032
5516,910,1029
5517,909,1024
5518,909,1023
5519,912,1022
5520,912,1027
5521,914,1023
5522,915,1019
5523,914,1019
5524,914,1021
5525,913,1023
5526,920,1026
5527,918,1024
5528,913,1019
5529,913,1021
5530,914,1022
5531,918,1023
5532,922,1024
5533,921,1025
5534,921,1023
5535,917,1022
5536,916,1023
5537,917,1025
5538,923,1031
5539,927,1030
5540,926,1026
5541,919,1029
5542,912,1029
5543,912,1033
5544,915,1037
5545,913,1035
5546,906,1031
5547,911,1034
5548,914,1029
5549,922,1032
5550,924,1033
5551,920,1030
5552,919,1026
5553,918,1022
5554,919,1026
5555,920,1026
5556,921,1024
5557,922,1019
5558,925,1014
5559,922,1009
5560,923,1009
5561,925,1011
5562,933,1014
5563,934,1009
5564,931,1007
5565,932,1006
5566,935,1007
5567,935,1009
5568,934,1007
5569,932,1004
5570,933,1003
5571,938,1000
5572,940,1000
5573,940,1008
5574,944,1010
5575,947,1006
5576,951,1006
5577,951,1002
5578,954,1005
5579,954,1010
5580,953,1012
5581,956,1010
5582,955,1009
5583,955,1011
5584,954,1012
5585,957,1016
5586,959,1022
5587,960,1021
5588,955,1022
5589,947,1022
5590,942,1026
5591,943,1026
5592,948,1032
5593,954,1032
5594,953,1032
5595,952,1031
5596,948,1032
5597,945,1037
5598,948,1036
5599,950,1037
5600,946,1032
5601,942,1030
5602,941,1030
5603,947,1032
5604,952,1032
5605,945,1027
5606,942,1025
5607,947,1022
5608,953,1021
5609,957,1022
5610,957,1023
5611,955,1018
5612,950,1017
5613,951,1011
5614,954,1011
5615,961,1012
5616,965,1012
5617,962,1006
5618,958,1006
5619,960,1002
5620,965,1006
5621,966,1008
5622,967,1008
5623,966,1001
5624,967,1002
5625,965,1003
5626,972,1005
5627,981,1007
5628,986,1010
5629,982,1009
5630,975,1007
5631,974,1007
5632,981,1015
5633,990,1019
5634,1004,1023
5635,1011,1027
5636,1021,1024
5637,1040,1025
5638,1066,1027
5639,1093,1030
5640,1116,1027
5641,1142,1019
5642,1177,1006
5643,1224,997
5644,1276,983
5645,1320,967
5646,1349,954
5647,1357,939
5648,1357,928
5649,1362,927
5650,1364,919
5651,1359,913
5652,1346,903
5653,1313,893
5654,1278,888
5655,1242,889
5656,1197,898
5657,1150,913
5658,1100,929
5659,1049,939
5660,998,949
5661,959,960
5662,950,974
5663,951,984
5664,953,990
5665,949,994
5666,943,995
5667,938,995
5668,931,995
5669,926,1001
5670,932,1005
5671,936,1002
5672,931,999
5673,928,1001
5674,923,1007
5675,927,1015
5676,927,1014
5677,923,1017
5678,920,1015
5679,920,1013
5680,925,1017
5681,928,1017
5682,929,1021
5683,932,1017
5684,931,1013
5685,930,1012
5686,928,1013
5687,931,1016
5688,936,1017
5689,934,1016
5690,941,1013
5691,939,1009
5692,945,1009
5693,947,1010
5694,945,1010
5695,952,1006
5696,952,1001
5697,954,998
5698,952,1002
5699,960,1005
5700,967,1005
5701,967,1005
5702,966,997
5703,962,995
5704,964,996
5705,970,1001
5706,974,999
5707,973,997
5708,975,995
5709,974,998
5710,979,1002
5711,984,1005
5712,990,1004
5713,994,1003
5714,1000,1000
5715,1001,1004
5716,1003,1004
5717,1011,1007
5718,1020,1009
5719,1020,1001
5720,1021,1000
5721,1023,999
5722,1031,1004
5723,1035,1006
5724,1035,1009
5725,1034,1008
5726,1039,1008
5727,1042,1007
5728,1043,1010
5729,1047,1014
5730,1047,1016
5731,1041,1015
5732,1037,1011
5733,1030,1016
5734,1030,1018
5735,1035,1024
5736,1035,1025
5737,1038,1021
5738,1033,1019
5739,1030,1019
5740,1027,1022
5741,1031,1023
5742,1032,1025
5743,1032,1024
5744,1030,1021
5745,1025,1018
5746,1025,1019
5747,1025,1018
5748,1031,1019
5749,1036,1012
5750,1039,1003
5751,1030,999
5752,1030,996
5753,1030,996
5754,1036,989
5755,1034,984
5756,1031,977
5757,1035,974
5758,1043,975
5759,1045,978
5760,1048,983
5761,1045,979
5762,1048,979
5763,1051,978
5764,1046,981
5765,1046,985
5766,1046,986
5767,1046,988
5768,1044,984
5769,1040,984
5770,1043,988
5771,1050,991
5772,1056,994
5773,1055,993
5774,1054,990
5775,1064,995
5776,1080,1002
5777,1090,1008
5778,1090,1014
5779,1085,1020
5780,1091,1022
5781,1092,1025
5782,1098,1031
5783,1109,1033
5784,1127,1030
5785,1158,1022
5786,1195,1010
5787,1240,998
5788,1282,984
5789,1321,973
5790,1333,961
5791,1344,952
5792,1359,942
5793,1369,935
5794,1367,924
5795,1360,911
5796,1352,904
5797,1332,896
5798,1302,893
5799,1269,895
5800,1240,904
5801,1199,922
5802,1155,931
5803,1109,939
5804,1068,944
5805,1043,953
5806,1026,967
5807,1022,973
5808,1020,981
5809,1009,981
5810,1003,982
5811,995,983
5812,992,984
5813,995,990
5814,993,987
5815,987,983
5816,980,975
5817,977,973
5818,981,976
5819,983,976
5820,987,977
5821,985,977
5822,978,973
5823,978,976
5824,973,979
5825,977,987
5826,979,992
5827,978,992
5828,975,991
5829,978,994
5830,984,999
5831,985,1004
5832,987,1009
5833,987,1007
5834,990,1007
5835,987,1005
5836,986,1010
5837,990,1016
5838,996,1018
5839,1000,1016
5840,999,1015
5841,999,1015
5842,1000,1019
5843,1002,1023
5844,1007,1022
5845,1010,1021
5846,1015,1016
5847,1020,1015
5848,1021,1016
5849,1027,1015
5850,1034,1013
5851,1040,1007
5852,1037,998
5853,1039,994
5854,1048,994
5855,1058,997
5856,1064,998
5857,1064,997
5858,1064,996
5859,1065,993
5860,1071,997
5861,1074,1001
5862,1080,1001
5863,1082,1002
5864,1080,1000
5865,1083,996
5866,1084,994
5867,1086,997
5868,1078,997
5869,1073,993
5870,1071,991
5871,1069,988
5872,1065,993
5873,1061,998
5874,1064,1002
5875,1060,1001
5876,1059,998
5877,1056,1000
5878,1057,1002
5879,1060,1008
5880,1063,1009
5881,1063,1007
5882,1060,1005
5883,1060,1006
5884,1058,1009
5885,1059,1013
5886,1060,1010
5887,1060,1012
5888,1061,1010
5889,1061,1012
5890,1064,1015
5891,1071,1015
5892,1076,1016
5893,1074,1010
5894,1072,1008
5895,1067,1005
5896,1066,1007
5897,1067,1010
5898,1070,1008
5899,1065,1007
5900,1062,1003
5901,1058,1001
5902,1060,1000
5903,1061,1002
5904,1060,1004
5905,1057,1000
5906,1057,996
5907,1054,994
5908,1050,995
5909,1052,1001
5910,1057,1002
5911,1059,1001
5912,1057,999
5913,1051,999
5914,1047,999
5915,1051,1001
5916,1057,1005
5917,1058,1002
5918,1048,999
5919,1040,999
5920,1046,1002
5921,1059,1006
5922,1067,1007
5923,1064,1006
5924,1056,1002
5925,1049,1002
5926,1043,1005
5927,1044,1006
5928,1046,1004
5929,1049,1002
5930,1049,998
5931,1046,996
5932,1040,998
5933,1044,998
5934,1050,1001
5935,1056,999
5936,1059,994
5937,1055,996
5938,1055,997
5939,1054,1000
5940,1057,1003
5941,1057,1002
5942,1055,999
5943,1052,998
5944,1051,1001
5945,1052,1005
5946,1056,1006
5947,1055,1002
5948,1053,995
5949,1050,995
5950,1049,997
5951,1055,1000
5952,1062,1002
5953,1063,998
5954,1059,996
5955,1053,995
5956,1049,998
5957,1048,1004
5958,1047,1004
5959,1050,1002
5960,1051,1006
5961,1049,1006
5962,1046,1015
5963,1050,1021
5964,1054,1022
5965,1054,1020
5966,1045,1016
5967,1043,1017
5968,1043,1015
5969,1043,1014
5970,1040,1016
5971,1041,1010
5972,1039,1008
5973,1039,1007
5974,1038,1006
5975,1040,1009
5976,1044,1010
5977,1040,1006
5978,1037,1006
5979,1035,1003
5980,1039,1007
5981,1043,1008
5982,1048,1010
5983,1045,1006
5984,1044,1008
5985,1043,1009
5986,1039,1011
5987,1044,1014
5988,1049,1012
5989,1047,1009
5990,1042,1008
5991,1040,1005
5992,1039,1009
5993,1041,1012
5994,1044,1010
5995,1041,1006
5996,1041,1002
5997,1044,1000
5998,1042,998
5999,1047,1002
6000,1054,1002
6001,1056,1001
6002,1054,993
6003,1048,990
6004,1049,993
6005,1050,993
6006,1058,989
6007,1062,984
6008,1063,982
6009,1062,981
6010,1056,983
6011,1057,991
6012,1063,994
6013,1061,994
6014,1066,995
6015,1078,998
6016,1090,1006
6017,1101,1010
6018,1118,1013
6019,1137,1017
6020,1148,1022
6021,1159,1026
6022,1173,1029
6023,1206,1026
6024,1253,1019
6025,1308,1006
6026,1352,983
6027,1373,965
6028,1378,951
6029,1383,945
6030,1390,940
6031,1390,930
6032,1381,914
6033,1358,898
6034,1326,889
6035,1295,892
6036,1269,894
6037,1235,899
6038,1185,906
6039,1130,920
6040,1085,939
6041,1047,958
6042,1017,969
6043,1002,979
6044,1003,983
6045,999,984
6046,991,986
6047,991,989
6048,989,991
6049,984,991
6050,977,987
6051,970,984
6052,967,990
6053,963,994
6054,964,998
6055,962,993
6056,956,989
6057,951,987
6058,947,988
6059,947,992
6060,951,989
6061,948,989
6062,948,988
6063,950,992
6064,953,998
6065,954,1003
6066,956,1005
6067,954,1005
6068,955,1005
6069,948,1003
6070,953,1010
6071,958,1014
6072,964,1016
6073,964,1020
6074,960,1017
6075,954,1018
6076,952,1024
6077,956,1032
6078,961,1036
6079,959,1038
6080,953,1040
6081,954,1044
6082,957,1047
6083,961,1051
6084,963,1053
6085,959,1054
6086,960,1054
6087,958,1054
6088,960,1059
6089,959,1062
6090,968,1066
6091,967,1064
6092,964,1060
6093,961,1059
6094,963,1058
6095,966,1061
6096,975,1060
6097,975,1051
6098,975,1046
6099,975,1045
6100,979,1043
6101,983,1039
6102,993,1038
6103,998,1030
6104,999,1023
6105,1000,1022
6106,1004,1018
6107,1014,1015
6108,1022,1012
6109,1027,1004
6110,1027,1002
6111,1023,1000
6112,1022,1003
6113,1029,1001
6114,1032,1003
6115,1033,999
6116,1029,994
6117,1029,997
6118,1029,996
6119,1033,1003
6120,1039,1001
6121,1034,1003
6122,1033,1002
6123,1033,1004
6124,1030,1007
6125,1032,1011
6126,1036,1013
6127,1037,1011
6128,1034,1013
6129,1033,1013
6130,1033,1022
6131,1038,1029
6132,1039,1032
6133,1038,1033
6134,1036,1032
6135,1035,1035
6136,1038,1037
6137,1039,1042
6138,1039,1046
6139,1039,1044
6140,1038,1044
6141,1037,1043
6142,1038,1047
6143,1041,1052
6144,1048,1051
6145,1048,1046
6146,1044,1040
6147,1039,1037
6148,1046,1032
6149,1051,1029
6150,1049,1023
6151,1049,1017
6152,1046,1011
6153,1044,1007
6154,1042,1008
6155,1040,1012
6156,1046,1004
6157,1042,1005
6158,1041,996
6159,1039,992
6160,1040,990
6161,1043,994
6162,1049,991
6163,1043,987
6164,1042,982
6165,1043,976
6166,1045,979
6167,1046,977
6168,1047,979
6169,1047,976
6170,1044,975
6171,1041,976
6172,1038,982
6173,1039,992
6174,1042,999
6175,1036,1003
6176,1034,1007
6177,1033,1012
6178,1032,1022
6179,1034,1026
6180,1033,1033
6181,1027,1034
6182,1030,1035
6183,1037,1039
6184,1050,1045
6185,1065,1058
6186,1082,1059
6187,1093,1064
6188,1097,1069
6189,1106,1072
6190,1126,1078
6191,1156,1076
6192,1204,1067
6193,1260,1048
6194,1326,1021
6195,1375,988
6196,1395,963
6197,1402,948
6198,1409,942
6199,1413,933
6200,1411,918
6201,1399,907
6202,1383,902
6203,1360,898
6204,1332,899
6205,1292,898
6206,1256,901
6207,1214,912
6208,1164,930
6209,1120,946
6210,1076,955
6211,1031,968
6212,997,976
6213,983,986
6214,981,992
6215,983,997
6216,978,1001
6217,966,1002
6218,952,997
6219,950,998
6220,948,1004
6221,951,1007
6222,950,1010
6223,951,1012
6224,947,1007
6225,942,1005
6226,934,1006
6227,931,1006
6228,932,1007
6229,936,1005
6230,932,1001
6231,928,999
6232,925,1002
6233,927,1007
6234,929,1011
6235,932,1012
6236,936,1010
6237,936,1014
6238,933,1018
6239,934,1024
6240,935,1026
6241,938,1025
6242,937,1023
6243,938,1023
6244,941,1027
6245,949,1029
6246,957,1032
6247,961,1028
6248,965,1025
6249,968,1030
6250,967,1029
6251,967,1031
6252,964,1035
6253,966,1031
6254,969,1027
6255,968,1029
6256,972,1030
6257,977,1031
6258,978,1035
6259,976,1034
6260,967,1030
6261,961,1031
6262,959,1031
6263,962,1032
6264,974,1031
6265,982,1025
6266,988,1023
6267,991,1021
6268,995,1022
6269,1004,1025
6270,1010,1023
6271,1013,1022
6272,1011,1017
6273,1011,1018
6274,1014,1020
6275,1021,1023
6276,1025,1025
6277,1021,1021
6278,1025,1019
6279,1020,1018
6280,1018,1018
6281,1016,1024
6282,1015,1023
6283,1013,1023
6284,1008,1018
6285,1005,1017
6286,1006,1021
6287,1007,1020
6288,1009,1019
6289,1003,1018
6290,998,1012
6291,997,1014
6292,1010,1011
6293,1020,1011
6294,1028,1010
6295,1018,1006
6296,1003,1002
6297,990,1006
6298,984,1011
6299,983,1015
6300,987,1015
6301,986,1014
6302,976,1016
6303,968,1013
6304,963,1018
6305,967,1023
6306,978,1026
6307,982,1026
6308,979,1027
6309,978,1026
6310,976,1031
6311,980,1036
6312,985,1040
6313,984,1038
6314,979,1036
6315,980,1037
6316,985,1041
6317,986,1045
6318,985,1043
6319,985,1040
6320,983,1036
6321,980,1036
6322,981,1037
6323,979,1042
6324,983,1041
6325,980,1042
6326,979,1035
6327,977,1037
6328,971,1040
6329,974,1045
6330,977,1046
6331,977,1041
6332,973,1037
6333,972,1036
6334,973,1039
6335,973,1039
6336,975,1037
6337,976,1033
6338,979,1028
6339,977,1023
6340,976,1027
6341,976,1028
6342,981,1027
6343,979,1023
6344,974,1019
6345,973,1017
6346,976,1018
6347,978,1018
6348,979,1020
6349,978,1015
6350,980,1012
6351,980,1012
6352,981,1015
6353,983,1018
6354,984,1017
6355,981,1014
6356,979,1011
6357,975,1010
6358,976,1014
6359,978,1017
6360,974,1018
6361,966,1013
6362,962,1013
6363,961,1012
6364,963,1014
6365,964,1018
6366,968,1018
6367,971,1012
6368,969,1009
6369,967,1010
6370,968,1015
6371,967,1018
6372,967,1012
6373,966,1011
6374,963,1009
6375,963,1010
6376,964,1014
6377,963,1016
6378,962,1015
6379,962,1013
6380,960,1013
6381,959,1013
6382,963,1015
6383,968,1020
6384,969,1018
6385,968,1017
6386,972,1013
6387,974,1012
6388,972,1017
6389,969,1022
6390,963,1020
6391,963,1016
6392,966,1014
6393,964,1014
6394,961,1017
6395,963,1021
6396,968,1019
6397,963,1018
6398,961,1017
6399,956,1016
6400,958,1018
6401,962,1022
6402,967,1021
6403,969,1022
6404,973,1017
6405,972,1016
6406,966,1016
6407,966,1015
6408,968,1009
6409,975,1007
6410,973,1002
6411,970,998
6412,972,1001
6413,974,1006
6414,973,1009
6415,975,1011
6416,980,1009
6417,996,1013
6418,1015,1019
6419,1035,1027
6420,1052,1033
6421,1065,1039
6422,1074,1044
6423,1081,1055
6424,1095,1063
6425,1114,1065
6426,1137,1063
6427,1167,1056
6428,1209,1043
6429,1242,1035
6430,1270,1022
6431,1277,1002
6432,1279,988
6433,1283,976
6434,1283,968
6435,1276,954
6436,1267,943
6437,1246,927
6438,1216,914
6439,1174,908
6440,1139,905
6441,1104,910
6442,1067,924
6443,1035,942
6444,1007,955
6445,983,962
6446,955,976
6447,937,988
6448,934,999
6449,933,1008
6450,931,1013
6451,923,1018
6452,920,1015
6453,911,1018
6454,907,1019
6455,906,1023
6456,911,1026
6457,913,1022
6458,911,1020
6459,903,1019
6460,896,1020
6461,892,1021
6462,895,1022
6463,894,1018
6464,892,1013
6465,885,1009
6466,881,1011
6467,883,1011
6468,886,1012
6469,882,1006
6470,881,1002
6471,881,999
6472,882,1001
6473,879,1006
6474,883,1006
6475,885,1004
6476,886,999
6477,886,1002
6478,885,1003
6479,885,1008
6480,890,1007
6481,893,1005
6482,895,1006
6483,892,1009
6484,889,1011
6485,893,1017
6486,902,1022
6487,913,1018
6488,914,1014
6489,913,1017
6490,912,1021
6491,916,1024
6492,920,1025
6493,918,1024
6494,917,1023
6495,917,1023
6496,923,1025
6497,932,1030
6498,932,1030
6499,931,1031
6500,925,1031
6501,916,1034
6502,919,1039
6503,925,1045
6504,937,1043
6505,941,1041
6506,937,1037
6507,934,1041
6508,938,1048
6509,948,1052
6510,950,1049
6511,947,1046
6512,941,1043
6513,945,1045
6514,952,1049
6515,959,1052
6516,965,1050
6517,967,1048
6518,960,1045
6519,958,1048
6520,961,1048
6521,959,1051
6522,961,1051
6523,963,1045
6524,963,1036
6525,965,1031
6526,965,1029
6527,963,1029
6528,959,1024
6529,957,1018
6530,957,1012
6531,960,1009
6532,961,1008
6533,962,1006
6534,964,1002
6535,965,996
6536,964,993
6537,963,993
6538,964,996
6539,971,996
6540,971,999
6541,970,995
6542,965,999
6543,969,999
6544,970,1004
6545,971,1012
6546,970,1014
6547,971,1013
6548,966,1011
6549,964,1014
6550,964,1019
6551,967,1022
6552,973,1025
6553,974,1020
6554,969,1022
6555,964,1025
6556,967,1029
6557,971,1031
6558,973,1034
6559,971,1035
6560,972,1031
6561,970,1034
6562,969,1036
6563,968,1041
6564,973,1042
6565,976,1041
6566,974,1036
6567,973,1040
6568,971,1041
6569,974,1047
6570,979,1048
6571,978,1043
6572,977,1039
6573,977,1039
6574,974,1039
6575,971,1041
6576,973,1040
6577,973,1037
6578,972,1032
6579,969,1031
6580,970,1032
6581,971,1030
6582,975,1025
6583,973,1015
6584,972,1010
6585,973,1001
6586,975,1000
6587,976,999
6588,975,994
6589,974,985
6590,967,984
6591,964,980
6592,966,982
6593,971,984
6594,973,983
6595,970,979
6596,966,978
6597,963,979
6598,964,986
6599,966,992
6600,969,991
6601,968,995
6602,968,993
6603,966,995
6604,963,999
6605,960,1002
6606,962,1004
6607,965,1007
6608,965,1006
6609,959,1008
6610,962,1005
6611,967,1014
6612,971,1013
6613,967,1013
6614,964,1009
6615,965,1012
6616,967,1016
6617,971,1020
6618,974,1020
6619,976,1020
6620,974,1018
6621,973,1016
6622,971,1022
6623,974,1026
6624,978,1026
6625,974,1028
6626,973,1023
6627,968,1026
6628,968,1030
6629,972,1034
6630,970,1034
6631,964,1034
6632,959,1034
6633,953,1037
6634,953,1039
6635,952,1043
6636,953,1044
6637,954,1038
6638,958,1034
6639,953,1029
6640,954,1029
6641,954,1030
6642,959,1027
6643,959,1021
6644,954,1017
6645,954,1016
6646,957,1012
6647,961,1012
6648,963,1007
6649,962,1000
6650,957,994
6651,955,988
6652,960,988
6653,964,986
6654,964,983
6655,962,979
6656,960,977
6657,957,975
6658,958,976
6659,959,977
6660,962,976
6661,959,973
6662,959,971
6663,958,972
6664,957,975
6665,956,978
6666,962,980
6667,963,977
6668,957,977
6669,955,975
6670,956,978
6671,959,985
6672,964,986
6673,965,985
6674,961,985
6675,956,985
6676,956,992
6677,961,997
6678,967,995
6679,962,997
6680,958,995
6681,958,1000
6682,960,1003
6683,965,1008
6684,966,1008
6685,966,1010
6686,964,1011
6687,962,1012
6688,959,1021
6689,957,1027
6690,958,1032
6691,963,1036
6692,970,1038
6693,968,1042
6694,973,1047
6695,988,1051
6696,1006,1055
6697,1020,1047
6698,1030,1044
6699,1043,1045
6700,1069,1050
6701,1100,1045
6702,1129,1031
6703,1158,1015
6704,1194,999
6705,1224,984
6706,1256,967
6707,1271,951
6708,1280,929
6709,1286,913
6710,1295,902
6711,1296,900
6712,1293,895
6713,1286,889
6714,1272,875
6715,1244,866
6716,1218,862
6717,1186,865
6718,1155,875
6719,1118,887
6720,1071,899
6721,1025,908
6722,982,919
6723,950,933
6724,930,947
6725,926,959
6726,925,969
6727,921,970
6728,915,971
6729,905,974
6730,897,980
6731,898,986
6732,901,990
6733,897,989
6734,891,992
6735,883,993
6736,884,999
6737,885,1003
6738,883,1006
6739,876,1006
6740,873,1003
6741,872,1008
6742,874,1013
6743,876,1019
6744,881,1023
6745,879,1022
6746,879,1024
6747,877,1023
6748,880,1029
6749,885,1034
6750,890,1037
6751,887,1036
6752,884,1033
6753,885,1033
6754,890,1034
6755,895,1037
6756,899,1038
6757,898,1032
6758,899,1030
6759,897,1025
6760,897,1027
6761,900,1029
6762,909,1027
6763,909,1027
6764,905,1022
6765,910,1022
6766,911,1025
6767,918,1026
6768,921,1028
6769,922,1026
6770,922,1023
6771,923,1027
6772,925,1027
6773,926,1030
6774,931,1029
6775,934,1030
6776,929,1027
6777,929,1028
6778,933,1031
6779,942,1036
6780,946,1038
6781,947,1032
6782,944,1028
6783,945,1029
6784,950,1030
6785,953,1032
6786,955,1034
6787,958,1031
6788,957,1026
6789,959,1026
6790,958,1025
6791,964,1029
6792,967,1028
6793,963,1025
6794,957,1023
6795,951,1028
6796,952,1026
6797,955,1029
6798,956,1029
6799,951,1025
6800,950,1024
6801,951,1024
6802,950,1026
6803,950,1028
6804,957,1024
6805,955,1020
6806,956,1013
6807,954,1007
6808,954,1008
6809,959,1008
6810,961,1007
6811,958,1005
6812,956,1001
6813,956,1002
6814,959,1006
6815,964,1009
6816,965,1006
6817,967,1004
6818,966,1001
6819,964,1000
6820,961,1005
6821,961,1010
6822,966,1006
6823,965,1006
6824,958,1001
6825,952,1001
6826,954,1004
6827,959,1009
6828,960,1012
6829,957,1009
6830,951,1007
6831,949,1009
6832,950,1013
6833,953,1018
6834,952,1015
6835,949,1016
6836,948,1014
6837,946,1018
6838,948,1021
6839,946,1026
6840,946,1025
6841,945,1024
6842,941,1023
6843,943,1023
6844,942,1027
6845,940,1031
6846,942,1031
6847,945,1030
6848,944,1026
6849,944,1025
6850,942,1029
6851,941,1032
6852,946,1031
6853,946,1032
6854,942,1030
6855,942,1032
6856,943,1035
6857,948,1037
6858,951,1034
6859,949,1034
6860,943,1032
6861,941,1031
6862,943,1033
6863,946,1035
6864,949,1033
6865,945,1028
6866,944,1024
6867,942,1023
6868,943,1024
6869,947,1028
6870,949,1022
6871,946,1020
6872,949,1019
6873,947,1017
6874,950,1018
6875,952,1019
6876,952,1018
6877,951,1013
6878,950,1008
6879,948,1008
6880,945,1009
6881,948,1011
6882,953,1010
6883,955,1009
6884,955,1006
6885,951,1003
6886,952,1005
6887,954,1008
6888,956,1011
6889,959,1006
6890,956,1006
6891,953,1006
6892,957,1009
6893,960,1014
6894,961,1013
6895,959,1014
6896,958,1012
6897,958,1011
6898,957,1014
6899,958,1019
6900,961,1018
6901,961,1013
6902,958,1011
6903,955,1012
6904,957,1016
6905,956,1016
6906,958,1017
6907,956,1012
6908,952,1009
6909,949,1011
6910,949,1014
6911,952,1017
6912,954,1020
6913,951,1016
6914,951,1015
6915,948,1016
6916,952,1021
6917,954,1023
6918,952,1023
6919,955,1020
6920,953,1018
6921,950,1019
6922,949,1019
6923,950,1025
6924,960,1024
6925,968,1028
6926,973,1027
6927,972,1030
6928,981,1034
6929,1002,1035
6930,1020,1034
6931,1039,1029
6932,1053,1021
6933,1070,1019
6934,1093,1014
6935,1123,1002
6936,1164,994
6937,1215,977
6938,1266,959
6939,1296,945
6940,1317,933
6941,1327,927
6942,1340,922
6943,1346,917
6944,1341,910
6945,1333,903
6946,1321,897
6947,1297,896
6948,1265,898
6949,1232,892
6950,1196,899
6951,1157,907
6952,1104,922
6953,1053,941
6954,1017,949
6955,979,961
6956,943,971
6957,923,983
6958,916,994
6959,922,1002
6960,921,1006
6961,911,1009
6962,901,1009
6963,896,1012
6964,893,1017
6965,893,1020
6966,893,1020
6967,891,1018
6968,889,1014
6969,885,1016
6970,883,1020
6971,883,1019
6972,886,1019
6973,888,1013
6974,885,1010
6975,880,1008
6976,880,1008
6977,883,1007
6978,885,1004
6979,883,999
6980,877,996
6981,877,996
6982,882,1001
6983,884,1004
6984,883,1008
6985,883,1006
6986,879,1004
6987,878,1006
6988,880,1009
6989,885,1014
6990,889,1016
6991,889,1016
6992,887,1014
6993,887,1020
6994,889,1026
6995,893,1032
6996,898,1032
6997,897,1032
6998,900,1032
6999,902,1035
7000,905,1038
7001,908,1043
7002,911,1046
7003,914,1044
7004,916,1043
7005,916,1043
7006,917,1047
7007,923,1047
7008,931,1050
7009,932,1048
7010,930,1047
7011,934,1050
7012,939,1051
7013,944,1054
7014,950,1050
7015,952,1052
7016,956,1047
7017,958,1047
7018,959,1049
7019,961,1051
7020,966,1050
7021,965,1049
7022,962,1044
7023,960,1043
7024,956,1042
7025,960,1045
7026,964,1039
7027,964,1035
7028,961,1028
7029,956,1026
7030,957,1027
7031,956,1029
7032,956,1027
7033,954,1023
7034,954,1019
7035,950,1018
7036,950,1020
7037,949,1018
7038,952,1010
7039,954,1002
7040,948,996
7041,947,990
7042,947,994
7043,952,996
7044,954,992
7045,951,990
7046,947,988
7047,944,987
7048,945,992
7049,946,994
7050,945,995
7051,940,996
7052,937,993
7053,932,997
7054,935,995
7055,938,1004
7056,939,1004
7057,936,1003
7058,933,1002
7059,929,1002
7060,928,1006
7061,929,1012
7062,932,1015
7063,931,1014
7064,929,1014
7065,925,1015
7066,920,1022
7067,926,1027
7068,929,1028
7069,929,1025
7070,923,1026
7071,918,1025
7072,919,1032
7073,921,1034
7074,921,1035
7075,918,1035
7076,919,1034
7077,917,1036
7078,922,1039
7079,926,1041
7080,926,1042
7081,927,1042
7082,926,1039
7083,924,1040
7084,923,1042
7085,918,1046
7086,922,1045
7087,920,1042
7088,919,1038
7089,916,1041
7090,913,1042
7091,921,1040
7092,925,1041
7093,928,1036
7094,929,1030
7095,926,1028
7096,929,1027
7097,933,1031
7098,935,1027
7099,934,1023
7100,929,1017
7101,931,1018
7102,934,1015
7103,938,1013
7104,942,1005
7105,942,999
7106,945,992
7107,947,987
7108,947,989
7109,946,991
7110,946,990
7111,953,991
7112,952,988
7113,949,989
7114,949,994
7115,950,998
7116,954,997
7117,952,997
7118,947,995
7119,946,996
7120,946,1003
7121,947,1008
7122,949,1005
7123,948,1005
7124,948,1002
7125,945,1004
7126,941,1007
7127,942,1010
7128,947,1010
7129,946,1011
7130,946,1008
7131,941,1010
7132,944,1011
7133,944,1016
7134,945,1020
7135,941,1016
7136,936,1014
7137,937,1013
7138,936,1018
7139,938,1024
7140,938,1027
7141,936,1023
7142,933,1023
7143,929,1025
7144,930,1029
7145,934,1031
7146,939,1033
7147,935,1029
7148,930,1032
7149,928,1031
7150,930,1036
7151,931,1041
7152,934,1038
7153,933,1035
7154,932,1033
7155,931,1027
7156,931,1027
7157,936,1025
7158,940,1019
7159,941,1008
7160,939,998
7161,934,992
7162,938,989
7163,941,986
7164,944,986
7165,941,979
7166,935,977
7167,939,978
7168,940,980
7169,940,984
7170,937,985
7171,939,985
7172,939,989
7173,938,993
7174,940,1001
7175,941,1005
7176,944,1007
7177,945,1009
7178,943,1008
7179,943,1012
7180,943,1016
7181,943,1019
7182,944,1021
7183,944,1021
7184,944,1019
7185,942,1020
7186,944,1023
7187,943,1027
7188,946,1028
7189,944,1027
7190,941,1024
7191,938,1024
7192,939,1028
7193,941,1031
7194,942,1029
7195,941,1030
7196,938,1027
7197,937,1030
7198,940,1034
7199,940,1036
7200,944,1034
7201,941,1031
7202,941,1031
7203,940,1029
7204,939,1032
7205,945,1035
7206,952,1035
7207,953,1035
7208,948,1025
7209,941,1028
7210,941,1025
7211,945,1020
7212,948,1012
7213,949,1003
7214,948,993
7215,945,986
7216,946,983
7217,949,982
7218,957,978
7219,958,974
7220,951,973
7221,951,975
7222,950,981
7223,955,984
7224,956,986
7225,955,985
7226,956,980
7227,952,983
7228,957,988
7229,959,994
7230,958,999
7231,956,999
7232,957,999
7233,956,1000
7234,954,1004
7235,955,1010
7236,954,1013
7237,954,1012
7238,952,1012
7239,951,1015
7240,950,1018
7241,954,1024
7242,960,1028
7243,960,1026
7244,957,1027
7245,954,1025
7246,954,1031
7247,954,1035
7248,952,1035
7249,950,1037
7250,951,1036
7251,955,1038
7252,962,1041
7253,961,1043
7254,962,1044
7255,959,1045
7256,957,1038
7257,955,1041
7258,961,1044
7259,971,1045
7260,987,1049
7261,998,1046
7262,1001,1044
7263,1007,1045
7264,1024,1050
7265,1042,1054
7266,1054,1061
7267,1056,1066
7268,1068,1066
7269,1086,1061
7270,1107,1057
7271,1131,1052
7272,1158,1038
7273,1182,1022
7274,1198,998
7275,1204,975
7276,1211,957
7277,1226,948
7278,1244,938
7279,1248,925
7280,1247,910
7281,1231,898
7282,1204,884
7283,1178,881
7284,1151,879
7285,1115,885
7286,1075,892
7287,1031,906
7288,993,926
7289,961,947
7290,942,961
7291,929,973
7292,920,980
7293,919,987
7294,915,997
7295,915,1006
7296,916,1007
7297,912,1011
7298,907,1014
7299,901,1018
7300,901,1025
7301,904,1029
7302,906,1030
7303,901,1029
7304,899,1032
7305,896,1034
7306,894,1039
7307,895,1043
7308,899,1044
7309,899,1044
7310,896,1043
7311,894,1042
7312,890,1046
7313,895,1052
7314,901,1049
7315,898,1046
7316,895,1044
7317,892,1046
7318,893,1049
7319,893,1051
7320,893,1048
7321,893,1042
7322,895,1039
7323,897,1035
7324,899,1034
7325,907,1032
7326,912,1028
7327,915,1017
7328,911,1008
7329,918,1001
7330,925,995
7331,930,997
7332,930,992
7333,931,991
7334,937,989
7335,935,990
7336,935,996
7337,939,998
7338,944,1002
7339,944,1002
7340,943,1002
7341,943,1007
7342,946,1013
7343,950,1017
7344,956,1019
7345,957,1022
7346,957,1020
7347,957,1027
7348,962,1029
7349,965,1037
7350,975,1035
7351,978,1037
7352,978,1038
7353,978,1040
7354,981,1043
7355,986,1050
7356,991,1050
7357,989,1050
7358,986,1047
7359,988,1046
7360,983,1052
7361,985,1052
7362,989,1053
7363,987,1052
7364,985,1048
7365,980,1045
7366,978,1054
7367,979,1056
7368,980,1055
7369,979,1052
7370,971,1045
7371,969,1042
7372,969,1045
7373,973,1040
7374,974,1037
7375,974,1032
7376,973,1024
7377,970,1016
7378,973,1008
7379,979,1002
7380,988,992
7381,987,984
7382,984,975
7383,978,977
7384,979,975
7385,983,978
7386,981,977
7387,983,974
7388,981,974
7389,978,976
7390,980,978
7391,981,985
7392,983,989
7393,982,990
7394,980,990
7395,977,994
7396,982,998
7397,984,1007
7398,986,1009
7399,982,1011
7400,980,1012
7401,983,1015
7402,982,1024
7403,984,1026
7404,986,1030
7405,984,1032
7406,984,1028
7407,981,1029
7408,983,1038
7409,987,1041
7410,990,1042
7411,988,1040
7412,979,1039
7413,980,1040
7414,985,1048
7415,985,1048
7416,985,1048
7417,986,1047
7418,986,1045
7419,983,1047
7420,979,1049
7421,986,1051
7422,991,1047
7423,986,1045
7424,984,1039
7425,979,1035
7426,985,1036
7427,988,1034
7428,990,1027
7429,988,1019
7430,984,1008
7431,983,1005
7432,984,1004
7433,985,998
7434,987,995
7435,989,988
7436,986,982
7437,984,984
7438,983,987
7439,982,989
7440,990,989
7441,986,990
7442,981,987
7443,977,987
7444,982,990
7445,985,997
7446,986,998
7447,985,999
7448,979,996
7449,979,996
7450,982,1002
7451,982,1004
7452,987,1003
7453,984,1005
7454,983,1001
7455,981,1002
7456,979,1006
7457,979,1008
7458,982,1012
7459,985,1011
7460,981,1012
7461,976,1011
7462,979,1020
7463,984,1023
7464,984,1025
7465,980,1025
7466,977,1023
7467,975,1022
7468,978,1028
7469,978,1032
7470,979,1033
7471,974,1032
7472,975,1031
7473,977,1033
7474,972,1033
7475,975,1038
7476,981,1036
7477,978,1034
7478,972,1031
7479,971,1030
7480,972,1031
7481,974,1033
7482,976,1028
7483,972,1026
7484,970,1023
7485,971,1019
7486,972,1020
7487,972,1023
7488,973,1019
7489,973,1015
7490,967,1011
7491,966,1010
7492,970,1010
7493,975,1009
7494,978,1005
7495,977,999
7496,971,997
7497,971,992
7498,971,993
7499,973,997
7500,977,994
7501,977,994
7502,974,989
7503,968,992
7504,969,997
7505,971,1004
7506,974,1005
7507,972,1007
7508,965,1002
7509,961,1006
7510,964,1013
7511,965,1019
7512,968,1020
7513,966,1021
7514,966,1019
7515,963,1024
7516,961,1027
7517,963,1032
7518,969,1035
7519,969,1034
7520,964,1032
7521,963,1036
7522,964,1040
7523,970,1042
7524,972,1043
7525,968,1041
7526,967,1037
7527,967,1040
7528,966,1043
7529,969,1045
7530,976,1043
7531,975,1039
7532,973,1030
7533,973,1025
7534,974,1020
7535,977,1023
7536,977,1018
7537,972,1013
7538,971,1007
7539,968,1009
7540,968,1010
7541,967,1012
7542,971,1010
7543,970,1005
7544,967,999
7545,962,998
7546,966,1000
7547,970,998
7548,974,995
7549,969,991
7550,966,990
7551,966,991
7552,966,993
7553,968,1000
7554,969,1002
7555,968,1000
7556,964,1003
7557,960,1007
7558,963,1011
7559,966,1018
7560,969,1016
7561,965,1016
7562,963,1019
7563,965,1020
7564,963,1029
7565,961,1034
7566,960,1036
7567,960,1036
7568,965,1040
7569,971,1045
7570,977,1054
7571,988,1063
7572,1002,1064
7573,1013,1070
7574,1021,1069
7575,1031,1072
7576,1046,1082
7577,1064,1085
7578,1085,1076
7579,1107,1064
7580,1141,1052
7581,1167,1038
7582,1190,1021
7583,1208,999
7584,1223,980
7585,1235,964
7586,1246,950
7587,1251,942
7588,1258,933
7589,1256,918
7590,1232,904
7591,1199,888
7592,1171,887
7593,1146,894
7594,1116,905
7595,1074,916
7596,1031,925
7597,999,934
7598,970,949
7599,938,965
7600,919,982
7601,917,993
7602,923,1000
7603,919,999
7604,911,1000
7605,898,1004
7606,898,1011
7607,896,1016
7608,897,1019
7609,891,1020
7610,887,1016
7611,884,1019
7612,884,1025
7613,884,1032
7614,885,1030
7615,881,1029
7616,880,1029
7617,876,1032
7618,873,1037
7619,876,1041
7620,880,1045
7621,881,1042
7622,874,1039
7623,870,1041
7624,872,1043
7625,877,1049
7626,881,1050
7627,877,1048
7628,876,1048
7629,878,1049
7630,879,1052
7631,879,1057
7632,881,1057
7633,883,1056
7634,882,1053
7635,878,1054
7636,882,1056
7637,889,1057
7638,893,1057
7639,894,1051
7640,891,1049
7641,891,1045
7642,895,1052
7643,901,1053
7644,902,1052
7645,902,1049
7646,902,1045
7647,903,1043
7648,908,1041
7649,912,1042
7650,918,1041
7651,922,1040
7652,919,1035
7653,916,1036
7654,921,1040
7655,929,1043
7656,935,1045
7657,933,1042
7658,933,1039
7659,935,1040
7660,941,1047
7661,944,1050
7662,951,1048
7663,955,1047
7664,955,1043
7665,954,1044
7666,953,1048
7667,960,1052
7668,964,1050
7669,961,1050
7670,954,1051
7671,952,1051
7672,954,1054
7673,954,1058
7674,954,1058
7675,948,1055
7676,949,1053
7677,944,1054
7678,942,1060
7679,946,1058
7680,946,1058
7681,946,1052
7682,938,1048
7683,937,1046
7684,938,1050
7685,941,1047
7686,941,1045
7687,937,1038
7688,934,1031
7689,931,1030
7690,928,1034
7691,928,1035
7692,928,1034
7693,923,1033
7694,918,1029
7695,913,1028
7696,917,1029
7697,918,1029
7698,917,1028
7699,912,1025
7700,906,1024
7701,906,1024
7702,904,1030
7703,909,1033
7704,912,1034
7705,912,1031
7706,905,1030
7707,905,1032
7708,910,1036
7709,910,1037
7710,910,1041
7711,911,1038
7712,907,1039
7713,905,1039
7714,907,1042
7715,911,1046
7716,916,1048
7717,916,1048
7718,908,1044
7719,908,1048
7720,912,1052
7721,915,1055
7722,920,1057
7723,919,1059
7724,915,1056
7725,915,1055
7726,915,1062
7727,919,1066
7728,925,1066
7729,921,1066
7730,918,1067
7731,919,1071
7732,927,1075
7733,934,1085
7734,939,1083
7735,940,1081
7736,936,1076
7737,940,1076
7738,948,1076
7739,953,1082
7740,962,1075
7741,980,1066
7742,1017,1051
7743,1068,1032
7744,1129,1016
7745,1171,995
7746,1190,974
7747,1201,954
7748,1223,945
7749,1238,939
7750,1249,929
7751,1250,919
7752,1239,909
7753,1214,904
7754,1180,905
7755,1148,912
7756,1110,929
7757,1067,944
7758,1020,960
7759,972,974
7760,929,986
7761,893,999
7762,880,1016
7763,880,1029
7764,884,1035
7765,880,1035
7766,871,1035
7767,867,1038
7768,867,1043
7769,869,1047
7770,866,1048
7771,864,1049
7772,860,1050
7773,859,1052
7774,858,1054
7775,859,1061
7776,861,1057
7777,863,1055
7778,857,1050
7779,854,1051
7780,858,1055
7781,861,1052
7782,865,1047
7783,864,1037
7784,865,1029
7785,867,1027
7786,867,1026
7787,866,1026
7788,869,1024
7789,866,1020
7790,865,1024
7791,861,1028
7792,864,1033
7793,871,1037
7794,874,1039
7795,878,1038
7796,873,1037
7797,873,1042
7798,875,1047
7799,880,1054
7800,883,1053
7801,883,1051
7802,882,1051
7803,885,1055
7804,888,1057
7805,890,1063
7806,894,1062
7807,897,1061
7808,895,1057
7809,895,1059
7810,897,1062
7811,905,1062
7812,914,1063
7813,913,1058
7814,911,1056
7815,915,1057
7816,919,1059
7817,928,1061
7818,934,1061
7819,935,1061
7820,935,1058
7821,941,1057
7822,942,1059
7823,943,1061
7824,946,1062
7825,942,1061
7826,937,1058
7827,935,1060
7828,937,1061
7829,940,1065
7830,940,1059
7831,937,1056
7832,933,1049
7833,930,1044
7834,932,1044
7835,929,1042
7836,930,1037
7837,928,1033
7838,926,1033
7839,922,1038
7840,923,1039
7841,927,1044
7842,925,1041
7843,920,1041
7844,917,1037
7845,917,1043
7846,920,1046
7847,921,1051
7848,923,1053
7849,923,1053
7850,922,1053
7851,920,1054
7852,921,1058
7853,925,1068
7854,925,1071
7855,922,1068
7856,919,1067
7857,916,1068
7858,920,1072
7859,920,1077
7860,922,1077
7861,919,1078
7862,918,1078
7863,923,1081
7864,931,1085
7865,944,1090
7866,954,1092
7867,957,1088
7868,962,1088
7869,966,1089
7870,975,1094
7871,979,1096
7872,985,1096
7873,1003,1087
7874,1041,1077
7875,1092,1068
7876,1130,1056
7877,1155,1038
7878,1175,1016
7879,1198,997
7880,1219,982
7881,1225,970
7882,1227,954
7883,1224,937
7884,1215,916
7885,1188,909
7886,1159,907
7887,1134,912
7888,1092,926
7889,1037,944
7890,993,955
7891,957,964
7892,923,975
7893,894,988
7894,889,999
7895,893,1010
7896,893,1012
7897,889,1016
7898,881,1017
7899,878,1019
7900,878,1028
7901,876,1033
7902,875,1033
7903,873,1034
7904,870,1033
7905,866,1036
7906,865,1042
7907,867,1045
7908,869,1044
7909,865,1043
7910,860,1043
7911,860,1047
7912,861,1050
7913,863,1058
7914,864,1059
7915,862,1059
7916,862,1061
7917,860,1064
7918,862,1069
7919,866,1073
7920,868,1074
7921,870,1070
7922,868,1067
7923,869,1066
7924,871,1072
7925,876,1072
7926,879,1071
7927,880,1066
7928,883,1058
7929,885,1053
7930,887,1049
7931,892,1050
7932,899,1047
7933,901,1038
7934,900,1033
7935,899,1030
7936,903,1032
7937,912,1034
7938,915,1034
7939,917,1028
7940,913,1029
7941,914,1030
7942,921,1033
7943,925,1039
7944,933,1038
7945,937,1036
7946,938,1035
7947,941,1036
7948,944,1041
7949,955,1045
7950,960,1045
7951,960,1042
7952,958,1039
7953,954,1044
7954,961,1050
7955,964,1054
7956,963,1052
7957,956,1048
7958,957,1047
7959,957,1054
7960,952,1056
7961,950,1058
7962,950,1060
7963,950,1056
7964,944,1052
7965,939,1055
7966,939,1056
7967,941,1058
7968,943,1056
7969,938,1054
7970,932,1050
7971,929,1047
7972,932,1049
7973,934,1050
7974,932,1048
7975,931,1044
7976,929,1039
7977,929,1038
7978,926,1035
7979,928,1033
7980,934,1026
7981,935,1021
7982,933,1013
7983,930,1012
7984,932,1015
7985,933,1021
7986,937,1021
7987,935,1017
7988,931,1015
7989,932,1018
7990,934,1022
7991,935,1030
7992,938,1026
7993,938,1027
7994,936,1025
7995,932,1027
7996,932,1032
7997,936,1037
7998,938,1034
7999,935,1037
8000,931,1034
8001,929,1038
8002,936,1040
8003,939,1046
8004,939,1045
8005,935,1042
8006,934,1040
8007,935,1041
8008,934,1043
8009,935,1044
8010,936,1043
8011,938,1042
8012,934,1040
8013,931,1037
8014,933,1038
8015,933,1041
8016,937,1042
8017,934,1036
8018,931,1037
8019,931,1037
8020,931,1039
8021,935,1043
8022,934,1041
8023,935,1038
8024,932,1034
8025,927,1034
8026,929,1035
8027,930,1040
8028,933,1035
8029,931,1033
8030,929,1026
8031,930,1021
8032,932,1018
8033,931,1017
8034,934,1019
8035,934,1014
8036,935,1012
8037,931,1014
8038,928,1019
8039,931,1025
8040,935,1027
8041,931,1025
8042,930,1025
8043,932,1030
8044,931,1038
8045,933,1039
8046,932,1041
8047,934,1040
8048,930,1039
8049,927,1040
8050,926,1045
8051,929,1047
8052,934,1048
8053,929,1046
8054,921,1041
8055,922,1044
8056,924,1046
8057,926,1049
8058,927,1048
8059,926,1044
8060,924,1039
8061,919,1040
8062,921,1043
8063,922,1045
8064,927,1044
8065,921,1041
8066,918,1038
8067,919,1038
8068,921,1044
8069,919,1045
8070,921,1044
8071,921,1041
8072,921,1039
8073,919,1038
8074,919,1041
8075,923,1044
8076,926,1042
8077,924,1037
8078,922,1030
8079,920,1024
8080,924,1023
8081,924,1021
8082,925,1018
8083,925,1011
8084,921,1008
8085,921,1006
8086,922,1013
8087,927,1015
8088,930,1014
8089,926,1016
8090,924,1014
8091,925,1016
8092,925,1019
8093,926,1024
8094,927,1025
8095,927,1023
8096,924,1023
8097,921,1025
8098,919,1032
8099,920,1037
8100,923,1037
8101,917,1037
8102,920,1034
8103,920,1036
8104,921,1040
8105,924,1043
8106,925,1043
8107,922,1042
8108,922,1041
8109,918,1042
8110,919,1046
8111,921,1048
8112,921,1047
8113,920,1045
8114,915,1042
8115,914,1041
8116,915,1047
8117,916,1052
8118,915,1048
8119,912,1048
8120,914,1047
8121,913,1048
8122,912,1053
8123,917,1056
8124,920,1055
8125,915,1052
8126,910,1049
8127,910,1047
8128,911,1048
8129,912,1048
8130,913,1043
8131,910,1042
8132,915,1043
8133,925,1043
8134,933,1045
8135,935,1048
8136,944,1048
8137,951,1041
8138,961,1035
8139,975,1034
8140,987,1039
8141,1004,1044
8142,1016,1037
8143,1036,1024
8144,1057,1011
8145,1098,1003
8146,1158,992
8147,1215,976
8148,1254,958
8149,1272,939
8150,1274,928
8151,1280,928
8152,1293,930
8153,1305,925
8154,1308,919
8155,1301,903
8156,1290,888
8157,1263,883
8158,1227,888
8159,1199,896
8160,1169,904
8161,1127,914
8162,1069,932
8163,1013,950
8164,969,973
8165,940,994
8166,911,1011
8167,882,1021
8168,872,1029
8169,870,1037
8170,873,1047
8171,868,1053
8172,863,1056
8173,857,1056
8174,850,1055
8175,845,1055
8176,843,1058
8177,844,1061
8178,845,1064
8179,841,1061
8180,835,1058
8181,831,1058
8182,837,1056
8183,839,1056
8184,838,1054
8185,837,1046
8186,832,1044
8187,831,1040
8188,832,1037
8189,832,1033
8190,835,1028
8191,836,1027
8192,834,1024
8193,833,1021
8194,830,1021
8195,837,1022
8196,840,1022
8197,838,1022
8198,836,1020
8199,835,1021
8200,839,1025
8201,840,1030
8202,839,1031
8203,836,1030
8204,832,1030
8205,833,1033
8206,832,1036
8207,833,1043
8208,838,1043
8209,837,1041
8210,833,1043
8211,832,1047
8212,835,1049
8213,839,1058
8214,839,1061
8215,838,1061
8216,836,1062
8217,841,1067
8218,843,1073
8219,848,1079
8220,852,1083
8221,851,1085
8222,853,1085
8223,853,1088
8224,858,1094
8225,866,1095
8226,874,1096
8227,877,1096
8228,876,1093
8229,879,1093
8230,887,1094
8231,893,1097
8232,899,1089
8233,904,1087
8234,906,1079
8235,905,1077
8236,910,1078
8237,915,1073
8238,919,1075
8239,916,1064
8240,911,1057
8241,909,1056
8242,910,1054
8243,916,1054
8244,912,1047
8245,906,1040
8246,907,1033
8247,906,1030
8248,907,1030
8249,910,1028
8250,914,1026
8251,913,1020
8252,912,1015
8253,914,1019
8254,917,1023
8255,920,1027
8256,922,1026
8257,920,1025
8258,917,1027
8259,918,1027
8260,917,1035
8261,918,1040
8262,920,1042
8263,920,1039
8264,917,1042
8265,917,1042
8266,919,1046
8267,924,1051
8268,924,1048
8269,923,1046
8270,923,1044
8271,920,1047
8272,923,1051
8273,924,1054
8274,928,1054
8275,922,1051
8276,923,1050
8277,922,1050
8278,923,1051
8279,927,1054
8280,927,1051
8281,921,1047
8282,917,1044
8283,918,1044
8284,922,1045
8285,929,1048
8286,932,1048
8287,943,1041
8288,949,1037
8289,953,1039
8290,955,1047
8291,946,1053
8292,933,1060
8293,923,1064
8294,912,1068
8295,910,1073
8296,921,1069
8297,942,1067
8298,960,1053
8299,965,1031
8300,975,1008
8301,1006,980
8302,1060,956
8303,1121,938
8304,1169,920
8305,1195,913
8306,1209,906
8307,1223,903
8308,1251,892
8309,1281,887
8310,1296,883
8311,1299,883
8312,1300,884
8313,1299,885
8314,1291,891
8315,1273,903
8316,1242,913
8317,1209,918
8318,1181,925
8319,1148,939
8320,1103,956
8321,1057,972
8322,1019,988
8323,976,996
8324,929,1010
8325,900,1022
8326,894,1037
8327,894,1048
8328,891,1049
8329,887,1054
8330,881,1053
8331,877,1054
8332,877,1055
8333,875,1055
8334,872,1054
8335,870,1051
8336,867,1046
8337,863,1045
8338,863,1046
8339,862,1049
8340,869,1043
8341,863,1041
8342,858,1037
8343,860,1036
8344,863,1035
8345,865,1037
8346,869,1034
8347,864,1033
8348,863,1027
8349,865,1032
8350,869,1033
8351,867,1036
8352,867,1038
8353,868,1038
8354,868,1036
8355,870,1036
8356,874,1041
8357,875,1045
8358,878,1046
8359,880,1042
8360,879,1038
8361,880,1037
8362,886,1036
8363,890,1037
8364,896,1031
8365,897,1029
8366,894,1023
8367,896,1018
8368,901,1026
8369,903,1026
8370,906,1026
8371,904,1023
8372,907,1021
8373,908,1028
8374,912,1031
8375,914,1035
8376,920,1037
8377,926,1039
8378,925,1040
8379,927,1045
8380,933,1053
8381,940,1055
8382,948,1056
8383,948,1053
8384,948,1048
8385,953,1051
8386,958,1049
8387,962,1051
8388,964,1047
8389,966,1044
8390,968,1039
8391,967,1039
8392,969,1040
8393,974,1042
8394,980,1038
8395,979,1035
8396,974,1031
8397,971,1034
8398,973,1038
8399,978,1036
8400,979,1035
8401,978,1035
8402,973,1031
8403,973,1034
8404,970,1038
8405,975,1041
8406,978,1037
8407,974,1035
8408,968,1035
8409,967,1033
8410,969,1037
8411,972,1040
8412,969,1039
8413,967,1035
8414,966,1030
8415,963,1032
8416,959,1033
8417,962,1036
8418,964,1033
8419,961,1028
8420,961,1024
8421,955,1028
8422,959,1028
8423,964,1031
8424,967,1031
8425,966,1027
8426,965,1027
8427,964,1026
8428,960,1030
8429,963,1037
8430,964,1037
8431,963,1033
8432,959,1034
8433,958,1041
8434,962,1048
8435,969,1055
8436,971,1052
8437,973,1043
8438,977,1038
8439,977,1033
8440,983,1035
8441,985,1032
8442,989,1028
8443,990,1023
8444,987,1019
8445,986,1024
8446,988,1024
8447,993,1026
8448,994,1027
8449,990,1024
8450,989,1022
8451,990,1024
8452,993,1030
8453,996,1028
8454,999,1030
8455,998,1025
8456,996,1025
8457,994,1022
8458,992,1027
8459,999,1032
8460,999,1027
8461,998,1026
8462,996,1022
8463,994,1024
8464,993,1023
8465,995,1023
8466,997,1027
8467,994,1021
8468,991,1020
8469,985,1015
8470,987,1019
8471,995,1018
8472,997,1020
8473,993,1012
8474,988,1011
8475,984,1012
8476,989,1017
8477,990,1018
8478,991,1019
8479,990,1020
8480,986,1019
8481,987,1018
8482,986,1023
8483,994,1025
8484,997,1022
8485,994,1018
8486,993,1016
8487,992,1017
8488,994,1017
8489,996,1020
8490,996,1018
8491,999,1014
8492,1000,1011
8493,1000,1011
8494,1002,1014
8495,1005,1016
8496,1007,1013
8497,1013,1012
8498,1009,1009
8499,1007,1007
8500,1014,1012
8501,1018,1017
8502,1020,1017
8503,1018,1014
8504,1013,1014
8505,1016,1014
8506,1018,1020
8507,1023,1022
8508,1029,1024
8509,1024,1020
8510,1023,1019
8511,1023,1023
8512,1025,1024
8513,1025,1030
8514,1031,1029
8515,1029,1028
8516,1030,1029
8517,1028,1032
8518,1033,1037
8519,1035,1043
8520,1038,1046
8521,1047,1045
8522,1056,1048
8523,1061,1047
8524,1067,1050
8525,1080,1052
8526,1099,1051
8527,1119,1045
8528,1131,1040
8529,1141,1034
8530,1154,1024
8531,1176,1017
8532,1203,1002
8533,1241,984
8534,1289,969
8535,1337,950
8536,1379,933
8537,1398,923
8538,1406,914
8539,1409,907
8540,1420,901
8541,1427,894
8542,1421,884
8543,1413,873
8544,1394,860
8545,1364,852
8546,1326,849
8547,1291,851
8548,1255,863
8549,1214,873
8550,1171,885
8551,1121,897
8552,1083,906
8553,1051,921
8554,1023,940
8555,1006,953
8556,999,961
8557,998,966
8558,992,972
8559,989,978
8560,986,988
8561,981,994
8562,979,997
8563,975,1000
8564,975,1001
8565,970,1010
8566,971,1016
8567,971,1021
8568,974,1023
8569,973,1025
8570,970,1025
8571,968,1032
8572,969,1036
8573,974,1043
