'sample #','MLII','V1'
0,1003,1062
1,1003,1062
2,1003,1062
3,1003,1062
4,1003,1062
5,1003,1062
6,1003,1062
7,1003,1062
8,999,1062
9,995,1068
10,994,1069
11,989,1074
12,985,1069
13,983,1066
14,984,1066
15,984,1068
16,985,1070
17,984,1070
18,984,1067
19,982,1066
20,982,1067
21,986,1069
22,986,1070
23,984,1072
24,981,1070
25,979,1068
26,979,1069
27,982,1070
28,982,1075
29,978,1078
30,975,1078
31,972,1077
32,973,1076
33,975,1081
34,978,1083
35,975,1083
36,968,1083
37,973,1080
38,991,1079
39,1021,1069
40,1056,1046
41,1099,1016
42,1153,989
43,1221,970
44,1298,954
45,1369,945
46,1411,945
47,1403,958
48,1349,979
49,1280,1000
50,1207,1021
51,1134,1042
52,1076,1048
53,1033,1046
54,1002,1045
55,982,1047
56,973,1052
57,972,1062
58,977,1068
59,977,1069
60,970,1065
61,966,1065
62,963,1070
63,965,1072
64,965,1077
65,964,1075
66,958,1072
67,957,1069
68,959,1072
69,959,1074
70,961,1076
71,960,1076
72,958,1076
73,958,1072
74,959,1072
75,961,1077
76,960,1076
77,959,1076
78,959,1073
79,956,1073
80,959,1072
81,964,1075
82,964,1077
83,961,1076
84,960,1071
85,957,1071
86,958,1072
87,963,1076
88,964,1076
89,962,1078
90,959,1074
91,957,1071
92,961,1072
93,965,1072
94,962,1075
95,962,1074
96,959,1067
97,961,1064
98,964,1067
99,966,1069
100,969,1070
101,969,1067
102,967,1063
103,966,1061
104,969,1061
105,972,1062
106,975,1064
107,973,1061
108,973,1057
109,973,1054
110,978,1052
111,982,1053
112,988,1054
113,990,1052
114,990,1046
115,990,1042
116,991,1043
117,998,1042
118,1002,1041
119,1002,1039
120,1002,1037
121,1003,1031
122,1005,1032
123,1008,1036
124,1014,1034
125,1014,1035
126,1014,1032
127,1014,1030
128,1016,1029
129,1020,1033
130,1021,1038
131,1020,1040
132,1015,1038
133,1014,1041
134,1014,1043
135,1017,1048
136,1015,1054
137,1011,1057
138,1003,1060
139,1001,1056
140,1000,1061
141,1002,1067
142,1001,1073
143,994,1070
144,988,1072
145,985,1071
146,985,1073
147,985,1076
148,985,1079
149,981,1080
150,975,1079
151,974,1075
152,975,1077
153,977,1080
154,977,1083
155,977,1082
156,972,1078
157,970,1076
158,973,1078
159,976,1082
160,975,1083
161,972,1081
162,967,1078
163,966,1077
164,971,1079
165,974,1083
166,973,1084
167,973,1084
168,970,1080
169,968,1078
170,972,1080
171,975,1085
172,975,1084
173,975,1082
174,970,1079
175,972,1077
176,976,1077
177,977,1080
178,976,1085
179,974,1085
180,973,1081
181,974,1076
182,979,1080
183,986,1080
184,986,1078
185,985,1074
186,985,1069
187,991,1063
188,998,1060
189,1011,1057
190,1020,1047
191,1023,1040
192,1032,1027
193,1047,1016
194,1069,1004
195,1090,992
196,1107,975
197,1118,960
198,1130,942
199,1149,931
200,1178,914
201,1202,904
202,1224,892
203,1238,879
204,1255,867
205,1277,859
206,1304,853
207,1331,850
208,1356,849
209,1365,847
210,1359,852
211,1344,864
212,1329,879
213,1318,899
214,1305,917
215,1286,934
216,1269,955
217,1263,974
218,1254,991
219,1241,1004
220,1226,1011
221,1211,1013
222,1199,1015
223,1201,1013
224,1204,1016
225,1199,1015
226,1176,1011
227,1145,1012
228,1115,1015
229,1080,1023
230,1049,1038
231,1010,1057
232,975,1075
233,944,1091
234,926,1097
235,922,1106
236,915,1108
237,905,1116
238,897,1117
239,893,1120
240,889,1121
241,887,1123
242,883,1125
243,880,1129
244,880,1129
245,877,1131
246,874,1131
247,871,1134
248,874,1133
249,870,1138
250,865,1143
251,865,1144
252,860,1144
253,860,1144
254,859,1147
255,853,1150
256,852,1154
257,848,1157
258,847,1156
259,843,1157
260,843,1160
261,843,1163
262,839,1169
263,836,1171
264,829,1171
265,828,1174
266,828,1175
267,831,1181
268,831,1184
269,825,1183
270,821,1182
271,820,1182
272,819,1187
273,818,1189
274,817,1189
275,817,1189
276,816,1186
277,817,1182
278,816,1182
279,825,1180
280,826,1179
281,824,1178
282,822,1168
283,825,1164
284,831,1159
285,842,1158
286,843,1152
287,843,1148
288,847,1141
289,854,1131
290,866,1127
291,875,1127
292,880,1122
293,881,1119
294,885,1109
295,891,1105
296,903,1104
297,911,1101
298,916,1103
299,918,1097
300,921,1090
301,929,1088
302,935,1088
303,941,1090
304,942,1087
305,942,1086
306,942,1082
307,945,1079
308,948,1083
309,953,1082
310,953,1083
311,947,1083
312,946,1081
313,946,1079
314,952,1080
315,956,1083
316,954,1086
317,951,1083
318,947,1081
319,947,1080
320,952,1083
321,955,1083
322,951,1082
323,952,1082
324,950,1083
325,952,1079
326,955,1082
327,956,1082
328,952,1082
329,950,1082
330,950,1077
331,953,1079
332,957,1080
333,958,1078
334,955,1080
335,954,1079
336,953,1078
337,957,1075
338,958,1075
339,960,1077
340,960,1079
341,959,1079
342,956,1075
343,960,1073
344,963,1073
345,963,1075
346,965,1077
347,966,1077
348,964,1075
349,964,1075
350,965,1075
351,966,1076
352,968,1076
353,965,1077
354,963,1076
355,964,1073
356,966,1074
357,968,1073
358,967,1075
359,968,1076
360,961,1070
361,967,1070
362,969,1070
363,971,1075
364,972,1075
365,969,1077
366,966,1073
367,968,1069
368,969,1071
369,971,1073
370,972,1076
371,970,1073
372,967,1071
373,968,1070
374,971,1070
375,973,1070
376,972,1073
377,970,1073
378,968,1070
379,968,1067
380,970,1067
381,972,1073
382,972,1073
383,973,1071
384,969,1066
385,966,1065
386,969,1068
387,974,1072
388,973,1074
389,972,1072
390,967,1068
391,966,1068
392,968,1069
393,972,1071
394,974,1074
395,967,1072
396,968,1067
397,968,1065
398,971,1068
399,975,1070
400,977,1073
401,971,1071
402,968,1067
403,968,1067
404,973,1067
405,977,1070
406,978,1072
407,974,1068
408,972,1068
409,972,1065
410,977,1066
411,977,1069
412,978,1068
413,974,1068
414,973,1064
415,973,1064
416,977,1068
417,980,1068
418,977,1069
419,975,1067
420,972,1066
421,973,1064
422,978,1067
423,982,1069
424,982,1070
425,978,1070
426,978,1069
427,982,1068
428,988,1072
429,994,1075
430,992,1075
431,990,1075
432,989,1074
433,997,1072
434,1006,1073
435,1011,1075
436,1011,1072
437,1005,1070
438,1003,1063
439,1005,1059
440,1006,1061
441,1010,1062
442,1007,1060
443,999,1058
444,995,1058
445,994,1057
446,995,1058
447,991,1060
448,983,1061
449,975,1062
450,974,1063
451,977,1062
452,982,1062
453,980,1066
454,976,1067
455,973,1065
456,971,1063
457,973,1064
458,977,1062
459,974,1064
460,970,1067
461,966,1064
462,968,1063
463,975,1064
464,980,1064
465,977,1066
466,975,1066
467,972,1065
468,972,1062
469,974,1061
470,979,1062
471,979,1062
472,974,1058
473,970,1060
474,972,1058
475,984,1057
476,1007,1050
477,1036,1041
478,1067,1028
479,1108,1016
480,1160,1015
481,1220,1017
482,1277,1015
483,1317,1016
484,1321,1026
485,1276,1041
486,1211,1050
487,1142,1051
488,1072,1054
489,1018,1050
490,988,1045
491,973,1042
492,973,1043
493,970,1046
494,970,1055
495,969,1060
496,971,1066
497,970,1067
498,969,1066
499,967,1066
500,965,1067
501,963,1071
502,962,1070
503,962,1070
504,962,1069
505,961,1068
506,961,1067
507,960,1068
508,963,1070
509,965,1070
510,966,1069
511,964,1067
512,960,1068
513,965,1069
514,965,1069
515,965,1072
516,965,1068
517,965,1066
518,967,1068
519,968,1070
520,968,1073
521,972,1072
522,966,1069
523,970,1065
524,971,1064
525,974,1066
526,975,1067
527,975,1067
528,970,1063
529,973,1060
530,975,1057
531,979,1061
532,981,1063
533,981,1060
534,978,1056
535,979,1055
536,985,1056
537,985,1056
538,987,1059
539,985,1054
540,987,1051
541,990,1048
542,994,1048
543,998,1050
544,1000,1048
545,999,1047
546,1000,1041
547,1002,1037
548,1008,1035
549,1012,1035
550,1017,1034
551,1018,1032
552,1018,1025
553,1021,1022
554,1025,1021
555,1032,1021
556,1036,1021
557,1038,1020
558,1036,1013
559,1037,1009
560,1042,1011
561,1049,1009
562,1054,1012
563,1048,1012
564,1049,1007
565,1048,1006
566,1052,1006
567,1058,1012
568,1059,1015
569,1056,1014
570,1053,1013
571,1049,1014
572,1052,1020
573,1053,1024
574,1052,1030
575,1046,1033
576,1038,1033
577,1032,1035
578,1030,1041
579,1032,1049
580,1028,1054
581,1020,1055
582,1012,1055
583,1010,1058
584,1008,1063
585,1009,1067
586,1007,1073
587,1001,1072
588,992,1072
589,988,1072
590,991,1076
591,991,1078
592,991,1082
593,983,1080
594,977,1078
595,978,1076
596,980,1080
597,984,1082
598,982,1085
599,979,1085
600,973,1082
601,974,1080
602,979,1083
603,980,1084
604,982,1087
605,977,1085
606,974,1081
607,973,1080
608,978,1081
609,979,1085
610,979,1087
611,979,1085
612,973,1082
613,975,1079
614,978,1081
615,982,1081
616,984,1082
617,981,1080
618,977,1079
619,978,1076
620,980,1075
621,983,1079
622,984,1081
623,978,1078
624,975,1074
625,977,1072
626,981,1073
627,984,1079
628,985,1078
629,980,1077
630,974,1073
631,972,1074
632,978,1076
633,980,1079
634,982,1079
635,979,1077
636,975,1076
637,980,1077
638,984,1079
639,989,1084
640,992,1085
641,988,1084
642,988,1081
643,993,1079
644,1001,1078
645,1008,1082
646,1012,1083
647,1010,1078
648,1008,1071
649,1007,1069
650,1011,1068
651,1013,1066
652,1012,1067
653,1007,1069
654,1001,1063
655,999,1062
656,997,1066
657,998,1067
658,996,1069
659,988,1069
660,980,1066
661,976,1068
662,975,1073
663,976,1080
664,977,1085
665,973,1081
666,972,1079
667,977,1076
668,985,1070
669,994,1067
670,1004,1058
671,1012,1049
672,1017,1036
673,1031,1024
674,1047,1012
675,1064,1000
676,1082,980
677,1094,957
678,1107,935
679,1122,916
680,1138,904
681,1150,894
682,1158,883
683,1162,866
684,1173,850
685,1190,836
686,1212,828
687,1229,825
688,1236,822
689,1241,815
690,1262,804
691,1298,798
692,1326,793
693,1345,791
694,1356,788
695,1362,792
696,1377,801
697,1395,814
698,1411,839
699,1413,871
700,1371,907
701,1291,952
702,1210,988
703,1146,1017
704,1090,1041
705,1044,1058
706,1004,1066
707,971,1075
708,949,1082
709,942,1086
710,943,1093
711,941,1101
712,932,1105
713,925,1105
714,915,1107
715,915,1108
716,915,1111
717,915,1117
718,912,1117
719,906,1117
720,901,1117
721,902,1116
722,902,1119
723,903,1122
724,904,1125
725,898,1123
726,895,1123
727,898,1122
728,901,1127
729,901,1129
730,901,1133
731,892,1132
732,887,1132
733,889,1131
734,892,1137
735,894,1142
736,893,1144
737,886,1148
738,880,1145
739,879,1147
740,884,1152
741,884,1157
742,881,1161
743,875,1161
744,872,1161
745,871,1163
746,873,1167
747,873,1173
748,873,1176
749,866,1176
750,863,1176
751,865,1175
752,867,1179
753,870,1184
754,868,1187
755,864,1187
756,859,1187
757,858,1185
758,860,1190
759,864,1193
760,866,1195
761,863,1192
762,856,1188
763,858,1187
764,863,1185
765,867,1186
766,871,1185
767,871,1180
768,868,1173
769,872,1171
770,881,1168
771,890,1166
772,890,1162
773,889,1156
774,889,1146
775,897,1139
776,906,1136
777,913,1135
778,917,1133
779,915,1123
780,920,1118
781,925,1112
782,935,1106
783,941,1106
784,945,1104
785,941,1099
786,940,1096
787,948,1092
788,952,1090
789,954,1094
790,956,1089
791,954,1087
792,951,1085
793,950,1082
794,956,1084
795,962,1087
796,959,1087
797,953,1085
798,950,1081
799,953,1081
800,956,1083
801,958,1085
802,958,1084
803,950,1084
804,947,1081
805,952,1080
806,954,1081
807,956,1085
808,959,1084
809,953,1081
810,949,1077
811,954,1075
812,955,1081
813,958,1082
814,959,1083
815,952,1083
816,951,1080
817,954,1079
818,956,1081
819,960,1084
820,958,1082
821,954,1081
822,953,1077
823,953,1079
824,957,1079
825,959,1084
826,958,1084
827,955,1086
828,953,1083
829,953,1081
830,959,1082
831,963,1087
832,967,1083
833,965,1077
834,969,1073
835,975,1069
836,986,1066
837,994,1061
838,997,1055
839,1002,1042
840,1013,1029
841,1033,1013
842,1058,995
843,1078,975
844,1102,957
845,1122,939
846,1143,917
847,1166,897
848,1185,876
849,1206,864
850,1219,856
851,1231,851
852,1245,847
853,1261,844
854,1270,849
855,1270,860
856,1259,874
857,1244,886
858,1229,899
859,1223,919
860,1220,943
861,1218,970
862,1210,985
863,1201,995
864,1195,1001
865,1197,1007
866,1200,1019
867,1200,1025
868,1203,1029
869,1200,1029
870,1201,1028
871,1193,1023
872,1181,1024
873,1155,1029
874,1128,1038
875,1084,1048
876,1043,1062
877,1009,1072
878,983,1084
879,963,1090
880,949,1097
881,938,1100
882,929,1101
883,926,1104
884,918,1107
885,909,1109
886,900,1113
887,891,1114
888,886,1119
889,882,1123
890,881,1120
891,879,1125
892,871,1128
893,863,1128
894,860,1126
895,862,1129
896,864,1131
897,862,1133
898,858,1134
899,855,1134
900,851,1133
901,848,1135
902,850,1136
903,848,1140
904,845,1143
905,840,1146
906,836,1145
907,835,1144
908,832,1146
909,830,1151
910,830,1151
911,822,1157
912,821,1152
913,821,1154
914,821,1157
915,820,1160
916,812,1163
917,808,1164
918,803,1161
919,805,1162
920,806,1163
921,802,1163
922,800,1163
923,796,1163
924,796,1158
925,796,1154
926,796,1152
927,799,1152
928,802,1149
929,802,1148
930,803,1144
931,804,1142
932,808,1138
933,814,1137
934,822,1135
935,827,1129
936,830,1122
937,832,1121
938,843,1117
939,851,1116
940,858,1110
941,862,1106
942,869,1101
943,877,1096
944,886,1096
945,893,1096
946,901,1094
947,904,1092
948,908,1086
949,909,1084
950,916,1082
951,922,1084
952,927,1085
953,927,1081
954,926,1079
955,928,1078
956,933,1078
957,933,1080
958,935,1082
959,935,1082
960,933,1080
961,931,1077
962,938,1076
963,940,1081
964,941,1082
965,936,1082
966,931,1082
967,936,1080
968,940,1080
969,944,1084
970,942,1084
971,942,1082
972,935,1077
973,937,1076
974,940,1078
975,946,1081
976,945,1083
977,945,1081
978,940,1079
979,939,1077
980,943,1079
981,945,1078
982,947,1082
983,947,1080
984,942,1075
985,945,1073
986,947,1074
987,951,1077
988,953,1079
989,949,1077
990,945,1074
991,946,1072
992,948,1074
993,954,1077
994,954,1077
995,951,1076
996,947,1075
997,946,1072
998,955,1074
999,956,1077
1000,952,1074
1001,948,1071
1002,949,1070
1003,956,1072
1004,959,1073
1005,957,1073
1006,954,1071
1007,953,1069
1008,956,1066
1009,960,1068
1010,961,1073
1011,961,1071
1012,957,1071
1013,956,1067
1014,957,1068
1015,962,1069
1016,963,1071
1017,960,1070
1018,951,1069
1019,948,1065
1020,955,1065
1021,956,1068
1022,960,1067
1023,958,1069
1024,958,1069
1025,955,1065
1026,957,1063
1027,960,1067
1028,963,1066
1029,963,1066
1030,959,1066
1031,959,1064
1032,958,1061
1033,966,1064
1034,966,1068
1035,965,1067
1036,960,1065
1037,958,1064
1038,958,1062
1039,965,1064
1040,967,1067
1041,963,1065
1042,956,1064
1043,957,1062
1044,959,1062
1045,959,1062
1046,963,1065
1047,961,1066
1048,959,1066
1049,957,1064
1050,959,1062
1051,964,1064
1052,965,1064
1053,962,1062
1054,960,1062
1055,958,1058
1056,960,1057
1057,962,1061
1058,968,1064
1059,965,1064
1060,960,1061
1061,957,1058
1062,958,1059
1063,960,1059
1064,965,1060
1065,967,1061
1066,960,1063
1067,960,1057
1068,962,1059
1069,964,1060
1070,970,1063
1071,969,1061
1072,964,1059
1073,962,1059
1074,963,1055
1075,967,1060
1076,969,1063
1077,969,1063
1078,964,1061
1079,961,1057
1080,960,1057
1081,967,1057
1082,972,1061
1083,968,1062
1084,965,1059
1085,965,1055
1086,967,1057
1087,968,1055
1088,969,1059
1089,967,1058
1090,966,1057
1091,964,1056
1092,963,1056
1093,966,1055
1094,971,1060
1095,966,1062
1096,967,1057
1097,965,1054
1098,965,1053
1099,968,1057
1100,972,1058
1101,971,1060
1102,966,1059
1103,961,1056
1104,963,1055
1105,967,1057
1106,972,1057
1107,967,1059
1108,968,1058
1109,964,1054
1110,965,1053
1111,970,1056
1112,972,1058
1113,972,1058
1114,968,1058
1115,966,1055
1116,966,1052
1117,967,1056
1118,973,1061
1119,974,1060
1120,973,1058
1121,971,1056
1122,975,1057
1123,979,1058
1124,984,1063
1125,987,1064
1126,986,1063
1127,986,1059
1128,987,1058
1129,993,1058
1130,1002,1055
1131,1004,1055
1132,1005,1049
1133,1003,1044
1134,1004,1042
1135,1005,1043
1136,1007,1045
1137,1008,1048
1138,1000,1045
1139,994,1045
1140,990,1041
1141,995,1040
1142,994,1044
1143,993,1043
1144,986,1042
1145,984,1037
1146,983,1039
1147,977,1042
1148,982,1048
1149,982,1051
1150,978,1051
1151,975,1045
1152,971,1045
1153,975,1044
1154,979,1048
1155,979,1049
1156,978,1049
1157,972,1045
1158,975,1043
1159,978,1045
1160,980,1048
1161,979,1046
1162,976,1046
1163,975,1045
1164,973,1044
1165,977,1045
1166,978,1046
1167,980,1048
1168,976,1044
1169,974,1038
1170,970,1037
1171,969,1037
1172,973,1039
1173,983,1041
1174,1001,1033
1175,1029,1018
1176,1066,1002
1177,1121,995
1178,1183,998
1179,1240,1000
1180,1290,1001
1181,1328,998
1182,1336,1005
1183,1295,1019
1184,1223,1032
1185,1138,1043
1186,1059,1041
1187,1005,1032
1188,984,1026
1189,980,1022
1190,979,1024
1191,980,1029
1192,974,1036
1193,973,1040
1194,974,1041
1195,980,1043
1196,979,1046
1197,976,1049
1198,974,1046
1199,971,1046
1200,969,1046
1201,974,1045
1202,972,1048
1203,967,1048
1204,964,1049
1205,966,1047
1206,966,1046
1207,971,1043
1208,972,1046
1209,971,1047
1210,969,1046
1211,968,1044
1212,967,1039
1213,973,1043
1214,977,1047
1215,971,1047
1216,970,1045
1217,969,1041
1218,970,1040
1219,974,1042
1220,979,1043
1221,980,1045
1222,977,1045
1223,976,1042
1224,976,1037
1225,978,1039
1226,982,1041
1227,983,1041
1228,980,1038
1229,982,1036
1230,985,1033
1231,986,1034
1232,989,1036
1233,992,1036
1234,992,1033
1235,991,1031
1236,993,1026
1237,998,1028
1238,997,1031
1239,999,1031
1240,1001,1027
1241,1002,1023
1242,1002,1021
1243,1008,1019
1244,1011,1018
1245,1014,1020
1246,1012,1016
1247,1014,1011
1248,1015,1009
1249,1023,1007
1250,1027,1008
1251,1028,1006
1252,1029,1003
1253,1027,997
1254,1031,995
1255,1037,995
1256,1045,994
1257,1047,993
1258,1045,991
1259,1043,986
1260,1049,988
1261,1052,984
1262,1058,987
1263,1057,988
1264,1055,986
1265,1054,983
1266,1055,981
1267,1060,982
1268,1063,983
1269,1067,988
1270,1064,986
1271,1065,987
1272,1065,986
1273,1066,989
1274,1067,993
1275,1068,997
1276,1061,998
1277,1059,999
1278,1058,1000
1279,1058,1006
1280,1060,1012
1281,1056,1016
1282,1050,1019
1283,1044,1019
1284,1038,1021
1285,1034,1026
1286,1031,1029
1287,1029,1032
1288,1026,1036
1289,1021,1034
1290,1017,1034
1291,1015,1041
1292,1012,1043
1293,1011,1044
1294,1008,1044
1295,1006,1044
1296,1006,1042
1297,1005,1044
1298,1007,1047
1299,1006,1048
1300,1005,1049
1301,1002,1047
1302,1002,1047
1303,1003,1048
1304,1006,1050
1305,1005,1050
1306,1000,1050
1307,1000,1049
1308,999,1047
1309,1003,1047
1310,1004,1049
1311,1003,1049
1312,1003,1048
1313,1004,1046
1314,1002,1043
1315,1004,1043
1316,1004,1045
1317,1002,1047
1318,1001,1045
1319,1000,1040
1320,1000,1039
1321,1002,1041
1322,1006,1045
1323,1004,1044
1324,1001,1044
1325,1001,1041
1326,1003,1038
1327,1005,1039
1328,1006,1041
1329,1006,1043
1330,1004,1042
1331,1003,1042
1332,1006,1039
1333,1004,1040
1334,1010,1043
1335,1009,1043
1336,1006,1045
1337,1006,1042
1338,1008,1042
1339,1015,1045
1340,1014,1050
1341,1017,1048
1342,1018,1048
1343,1018,1045
1344,1019,1045
1345,1029,1046
1346,1031,1050
1347,1036,1049
1348,1034,1050
1349,1033,1044
1350,1037,1042
1351,1040,1040
1352,1042,1040
1353,1044,1039
1354,1043,1035
1355,1046,1026
1356,1054,1020
1357,1063,1012
1358,1069,1006
1359,1079,992
1360,1087,976
1361,1096,955
1362,1114,934
1363,1135,916
1364,1149,904
1365,1159,893
1366,1166,881
1367,1180,869
1368,1194,857
1369,1211,851
1370,1233,846
1371,1250,840
1372,1263,833
1373,1273,827
1374,1285,817
1375,1307,811
1376,1331,813
1377,1351,815
1378,1353,823
1379,1346,830
1380,1336,842
1381,1330,858
1382,1324,873
1383,1314,891
1384,1298,909
1385,1285,922
1386,1275,937
1387,1271,953
1388,1261,965
1389,1253,970
1390,1241,973
1391,1232,972
1392,1226,972
1393,1225,974
1394,1223,977
1395,1216,978
1396,1202,978
1397,1181,976
1398,1160,977
1399,1136,986
1400,1103,998
1401,1062,1014
1402,1019,1030
1403,987,1043
1404,966,1054
1405,952,1064
1406,948,1074
1407,938,1078
1408,928,1080
1409,924,1079
1410,922,1082
1411,921,1084
1412,918,1088
1413,914,1091
1414,908,1093
1415,906,1093
1416,905,1092
1417,907,1097
1418,905,1101
1419,903,1103
1420,901,1101
1421,898,1102
1422,898,1104
1423,898,1105
1424,898,1112
1425,895,1115
1426,889,1119
1427,885,1120
1428,884,1120
1429,885,1127
1430,882,1130
1431,877,1136
1432,874,1136
1433,872,1135
1434,870,1137
1435,872,1145
1436,871,1148
1437,870,1155
1438,863,1156
1439,859,1154
1440,859,1155
1441,861,1159
1442,860,1162
1443,858,1167
1444,851,1165
1445,850,1166
1446,847,1167
1447,848,1167
1448,848,1169
1449,849,1171
1450,847,1168
1451,844,1164
1452,847,1165
1453,846,1163
1454,847,1165
1455,845,1164
1456,846,1158
1457,846,1154
1458,848,1149
1459,854,1150
1460,857,1146
1461,861,1146
1462,859,1140
1463,862,1133
1464,867,1125
1465,875,1123
1466,883,1117
1467,886,1112
1468,888,1107
1469,890,1099
1470,901,1091
1471,910,1089
1472,920,1087
1473,926,1081
1474,930,1075
1475,934,1072
1476,942,1065
1477,948,1064
1478,955,1065
1479,960,1063
1480,960,1062
1481,963,1053
1482,968,1052
1483,976,1051
1484,979,1052
1485,981,1052
1486,978,1052
1487,979,1046
1488,979,1047
1489,980,1046
1490,984,1050
1491,986,1047
1492,981,1045
1493,979,1044
1494,979,1044
1495,984,1046
1496,983,1047
1497,984,1050
1498,981,1046
1499,977,1046
1500,980,1043
1501,984,1045
1502,986,1048
1503,985,1049
1504,979,1050
1505,980,1045
1506,981,1046
1507,982,1046
1508,983,1049
1509,983,1049
1510,979,1047
1511,976,1048
1512,979,1046
1513,981,1048
1514,982,1049
1515,981,1051
1516,978,1050
1517,974,1047
1518,976,1046
1519,983,1049
1520,984,1052
1521,984,1052
1522,982,1050
1523,980,1048
1524,980,1045
1525,984,1049
1526,984,1051
1527,985,1050
1528,984,1050
1529,981,1048
1530,981,1047
1531,987,1047
1532,987,1049
1533,988,1049
1534,986,1048
1535,984,1045
1536,986,1042
1537,990,1044
1538,992,1049
1539,990,1048
1540,989,1047
1541,987,1044
1542,988,1044
1543,992,1045
1544,994,1048
1545,995,1049
1546,991,1049
1547,990,1046
1548,991,1047
1549,994,1050
1550,996,1054
1551,996,1052
1552,998,1050
1553,999,1048
1554,1002,1043
1555,1009,1042
1556,1017,1044
1557,1025,1037
1558,1031,1029
1559,1038,1021
1560,1051,1015
1561,1065,1010
1562,1077,1004
1563,1090,996
1564,1102,977
1565,1117,953
1566,1133,936
1567,1153,920
1568,1175,907
1569,1193,894
1570,1205,879
1571,1218,865
1572,1234,851
1573,1253,837
1574,1276,832
1575,1292,826
1576,1304,821
1577,1315,813
1578,1331,806
1579,1353,807
1580,1362,810
1581,1353,816
1582,1340,824
1583,1322,833
1584,1311,847
1585,1303,863
1586,1295,880
1587,1288,896
1588,1278,917
1589,1269,935
1590,1260,946
1591,1259,961
1592,1257,967
1593,1253,973
1594,1247,977
1595,1240,977
1596,1241,981
1597,1245,989
1598,1244,993
1599,1233,994
1600,1208,994
1601,1182,995
1602,1149,1000
1603,1110,1013
1604,1069,1029
1605,1027,1042
1606,997,1056
1607,974,1065
1608,956,1069
1609,948,1076
1610,943,1083
1611,936,1087
1612,928,1089
1613,923,1087
1614,920,1090
1615,919,1093
1616,918,1098
1617,915,1100
1618,909,1097
1619,904,1099
1620,901,1099
1621,903,1104
1622,904,1108
1623,900,1111
1624,894,1111
1625,890,1113
1626,890,1112
1627,890,1118
1628,889,1121
1629,890,1124
1630,883,1126
1631,882,1124
1632,878,1125
1633,878,1130
1634,879,1135
1635,874,1139
1636,869,1141
1637,866,1143
1638,863,1141
1639,866,1147
1640,864,1152
1641,863,1156
1642,859,1155
1643,857,1156
1644,855,1156
1645,854,1160
1646,855,1165
1647,851,1168
1648,848,1167
1649,847,1167
1650,846,1168
1651,848,1169
1652,845,1169
1653,843,1170
1654,840,1171
1655,837,1164
1656,840,1162
1657,844,1162
1658,844,1165
1659,846,1164
1660,843,1160
1661,843,1155
1662,844,1152
1663,849,1149
1664,854,1144
1665,861,1144
1666,862,1137
1667,866,1130
1668,872,1122
1669,876,1116
1670,887,1111
1671,895,1107
1672,898,1100
1673,904,1093
1674,912,1088
1675,923,1085
1676,931,1082
1677,932,1078
1678,940,1073
1679,941,1067
1680,951,1063
1681,963,1060
1682,967,1061
1683,969,1061
1684,970,1056
1685,973,1052
1686,976,1049
1687,984,1049
1688,987,1050
1689,990,1048
1690,988,1049
1691,987,1045
1692,989,1043
1693,992,1044
1694,993,1047
1695,994,1047
1696,988,1045
1697,987,1043
1698,989,1042
1699,991,1045
1700,992,1045
1701,992,1048
1702,988,1045
1703,986,1042
1704,987,1042
1705,991,1044
1706,993,1046
1707,991,1045
1708,984,1047
1709,985,1044
1710,986,1044
1711,992,1044
1712,995,1049
1713,992,1048
1714,989,1049
1715,989,1045
1716,988,1044
1717,994,1047
1718,993,1049
1719,994,1048
1720,992,1048
1721,990,1043
1722,991,1045
1723,995,1045
1724,997,1048
1725,994,1051
1726,992,1048
1727,991,1044
1728,995,1044
1729,997,1046
1730,1000,1048
1731,999,1046
1732,998,1044
1733,994,1041
1734,997,1042
1735,1001,1044
1736,1002,1047
1737,1001,1048
1738,996,1042
1739,994,1040
1740,998,1039
1741,1000,1038
1742,1000,1043
1743,1001,1044
1744,996,1044
1745,994,1040
1746,997,1039
1747,1001,1038
1748,1003,1042
1749,1003,1042
1750,997,1039
1751,999,1039
1752,998,1037
1753,1000,1037
1754,1005,1041
1755,1003,1042
1756,1000,1039
1757,998,1036
1758,1000,1034
1759,1003,1036
1760,1006,1039
1761,1003,1040
1762,1001,1038
1763,1001,1037
1764,1002,1032
1765,1004,1037
1766,1006,1039
1767,1003,1038
1768,1002,1036
1769,999,1037
1770,1001,1035
1771,1005,1038
1772,1007,1038
1773,1007,1038
1774,1005,1038
1775,1000,1033
1776,1002,1033
1777,1004,1033
1778,1007,1036
1779,1008,1037
1780,1003,1037
1781,1003,1035
1782,1001,1035
1783,1005,1036
1784,1007,1037
1785,1006,1036
1786,1002,1038
1787,1001,1034
1788,1003,1034
1789,1007,1036
1790,1007,1036
1791,1006,1037
1792,1001,1036
1793,1000,1034
1794,1003,1032
1795,1006,1033
1796,1009,1037
1797,1009,1039
1798,1009,1038
1799,1009,1036
1800,1011,1038
1801,1018,1043
1802,1018,1045
1803,1021,1048
1804,1020,1046
1805,1019,1046
1806,1023,1043
1807,1030,1044
1808,1037,1043
1809,1040,1043
1810,1037,1037
1811,1035,1031
1812,1037,1026
1813,1040,1024
1814,1040,1027
1815,1035,1029
1816,1029,1027
1817,1024,1024
1818,1024,1023
1819,1025,1024
1820,1023,1027
1821,1020,1027
1822,1013,1023
1823,1010,1022
1824,1009,1023
1825,1010,1027
1826,1009,1031
1827,1006,1031
1828,1002,1028
1829,1000,1027
1830,1000,1025
1831,1000,1029
1832,1002,1030
1833,1000,1031
1834,999,1028
1835,1000,1027
1836,1002,1024
1837,1002,1026
1838,1003,1030
1839,1001,1029
1840,1000,1027
1841,1001,1027
1842,1004,1023
1843,1007,1025
1844,1007,1028
1845,1003,1027
1846,1003,1027
1847,1004,1023
1848,1006,1018
1849,1004,1018
1850,1005,1021
1851,1012,1022
1852,1023,1022
1853,1046,1015
1854,1081,1001
1855,1122,989
1856,1169,984
1857,1218,985
1858,1266,983
1859,1310,975
1860,1350,970
1861,1366,977
1862,1338,994
1863,1271,1006
1864,1192,1010
1865,1123,1009
1866,1070,1010
1867,1042,1008
1868,1027,1007
1869,1013,1007
1870,1000,1013
1871,992,1017
1872,996,1022
1873,1004,1024
1874,1006,1032
1875,1002,1032
1876,997,1031
1877,994,1030
1878,995,1031
1879,996,1031
1880,997,1035
1881,993,1034
1882,988,1032
1883,991,1034
1884,992,1031
1885,993,1035
1886,995,1036
1887,993,1038
1888,988,1038
1889,989,1034
1890,993,1033
1891,994,1031
1892,995,1036
1893,995,1036
1894,990,1035
1895,993,1035
1896,996,1032
1897,997,1034
1898,1001,1033
1899,999,1035
1900,997,1035
1901,998,1031
1902,999,1028
1903,1003,1029
1904,1006,1032
1905,1006,1030
1906,1006,1030
1907,1005,1026
1908,1006,1026
1909,1010,1025
1910,1018,1025
1911,1014,1026
1912,1016,1023
1913,1015,1021
1914,1018,1019
1915,1024,1019
1916,1028,1019
1917,1028,1017
1918,1027,1013
1919,1026,1011
1920,1031,1007
1921,1040,1007
1922,1046,1006
1923,1047,1006
1924,1045,1000
1925,1042,994
1926,1047,991
1927,1057,992
1928,1060,992
1929,1064,991
1930,1065,986
1931,1063,982
1932,1065,978
1933,1073,978
1934,1078,980
1935,1081,980
1936,1082,974
1937,1082,973
1938,1086,973
1939,1089,974
1940,1092,975
1941,1091,977
1942,1087,978
1943,1090,974
1944,1089,974
1945,1093,980
1946,1093,986
1947,1088,990
1948,1077,993
1949,1074,996
1950,1071,999
1951,1071,1005
1952,1066,1011
1953,1060,1015
1954,1055,1016
1955,1048,1018
1956,1046,1023
1957,1045,1026
1958,1040,1031
1959,1032,1034
1960,1025,1035
1961,1022,1034
1962,1021,1036
1963,1022,1039
1964,1020,1042
1965,1017,1045
1966,1012,1041
1967,1006,1039
1968,1009,1040
1969,1013,1042
1970,1015,1046
1971,1011,1045
1972,1007,1043
1973,1005,1041
1974,1008,1041
1975,1010,1040
1976,1010,1044
1977,1010,1046
1978,1006,1044
1979,1005,1044
1980,1005,1044
1981,1007,1045
1982,1009,1048
1983,1008,1046
1984,1006,1046
1985,1005,1044
1986,1006,1042
1987,1007,1043
1988,1010,1044
1989,1005,1044
1990,1005,1042
1991,1005,1042
1992,1009,1039
1993,1010,1040
1994,1013,1040
1995,1011,1046
1996,1009,1041
1997,1008,1037
1998,1011,1037
1999,1015,1039
2000,1014,1041
2001,1012,1040
2002,1010,1039
2003,1010,1036
2004,1009,1038
2005,1011,1038
2006,1013,1042
2007,1011,1045
2008,1009,1041
2009,1010,1040
2010,1011,1038
2011,1013,1040
2012,1006,1043
2013,1010,1044
2014,1012,1045
2015,1013,1044
2016,1018,1044
2017,1022,1047
2018,1025,1049
2019,1024,1051
2020,1024,1049
2021,1027,1047
2022,1030,1045
2023,1038,1046
2024,1042,1047
2025,1043,1045
2026,1040,1043
2027,1040,1037
2028,1039,1031
2029,1040,1034
2030,1039,1040
2031,1038,1040
2032,1034,1039
2033,1033,1036
2034,1034,1034
2035,1036,1033
2036,1038,1032
2037,1040,1028
2038,1042,1019
2039,1045,1009
2040,1055,1004
2041,1065,999
2042,1076,994
2043,1086,982
2044,1094,965
2045,1106,945
2046,1122,922
2047,1140,902
2048,1153,886
2049,1166,871
2050,1175,859
2051,1187,843
2052,1200,828
2053,1217,815
2054,1235,804
2055,1249,796
2056,1259,791
2057,1272,785
2058,1294,773
2059,1317,769
2060,1333,769
2061,1338,773
2062,1330,779
2063,1320,789
2064,1310,802
2065,1301,819
2066,1294,839
2067,1289,861
2068,1287,878
2069,1290,891
2070,1292,899
2071,1298,907
2072,1298,914
2073,1297,922
2074,1298,930
2075,1299,941
2076,1301,951
2077,1300,962
2078,1287,970
2079,1264,977
2080,1228,984
2081,1183,996
2082,1136,1013
2083,1087,1032
2084,1042,1049
2085,1006,1058
2086,977,1066
2087,957,1070
2088,948,1074
2089,944,1078
2090,941,1084
2091,933,1087
2092,927,1088
2093,922,1090
2094,920,1088
2095,920,1091
2096,920,1096
2097,917,1098
2098,910,1098
2099,907,1095
2100,908,1096
2101,910,1103
2102,911,1105
2103,905,1107
2104,902,1108
2105,899,1111
2106,901,1109
2107,900,1116
2108,898,1118
2109,894,1120
2110,889,1120
2111,887,1121
2112,890,1123
2113,891,1127
2114,888,1132
2115,880,1135
2116,874,1133
2117,874,1135
2118,875,1138
2119,877,1141
2120,876,1147
2121,871,1150
2122,868,1152
2123,865,1150
2124,864,1152
2125,867,1157
2126,865,1160
2127,863,1161
2128,856,1161
2129,851,1161
2130,852,1161
2131,856,1163
2132,858,1167
2133,855,1168
2134,851,1167
2135,848,1161
2136,852,1159
2137,854,1160
2138,857,1161
2139,856,1158
2140,853,1156
2141,853,1149
2142,856,1146
2143,859,1143
2144,865,1143
2145,864,1139
2146,865,1133
2147,868,1125
2148,873,1118
2149,879,1116
2150,884,1113
2151,889,1107
2152,892,1101
2153,896,1091
2154,905,1084
2155,917,1082
2156,925,1082
2157,927,1076
2158,930,1071
2159,931,1065
2160,943,1058
2161,952,1058
2162,962,1058
2163,964,1055
2164,964,1051
2165,969,1049
2166,975,1047
2167,983,1047
2168,985,1047
2169,983,1048
2170,981,1049
2171,980,1044
2172,982,1042
2173,987,1043
2174,989,1048
2175,987,1047
2176,986,1045
2177,982,1044
2178,981,1042
2179,987,1042
2180,988,1045
2181,989,1047
2182,983,1045
2183,984,1040
2184,985,1039
2185,989,1041
2186,989,1044
2187,989,1046
2188,984,1044
2189,983,1041
2190,984,1041
2191,986,1043
2192,989,1046
2193,985,1048
2194,983,1044
2195,983,1045
2196,984,1042
2197,988,1045
2198,991,1049
2199,991,1047
2200,988,1047
2201,985,1045
2202,988,1040
2203,990,1043
2204,995,1046
2205,991,1045
2206,990,1044
2207,985,1042
2208,986,1037
2209,992,1044
2210,996,1045
2211,995,1043
2212,989,1043
2213,990,1042
2214,993,1043
2215,996,1046
2216,998,1047
2217,998,1047
2218,996,1048
2219,999,1040
2220,1008,1035
2221,1012,1036
2222,1022,1034
2223,1025,1029
2224,1028,1022
2225,1034,1014
2226,1043,1003
2227,1056,995
2228,1069,984
2229,1083,970
2230,1098,949
2231,1113,931
2232,1128,911
2233,1148,899
2234,1165,887
2235,1178,873
2236,1191,857
2237,1210,838
2238,1226,826
2239,1243,820
2240,1255,817
2241,1265,814
2242,1278,811
2243,1295,805
2244,1313,806
2245,1322,815
2246,1322,828
2247,1306,841
2248,1294,854
2249,1282,864
2250,1276,881
2251,1271,902
2252,1263,929
2253,1255,947
2254,1247,963
2255,1239,973
2256,1236,982
2257,1239,986
2258,1241,992
2259,1244,996
2260,1247,998
2261,1254,996
2262,1258,993
2263,1248,987
2264,1232,988
2265,1207,992
2266,1173,994
2267,1135,1001
2268,1095,1009
2269,1059,1028
2270,1025,1042
2271,1003,1050
2272,982,1054
2273,971,1057
2274,962,1058
2275,957,1064
2276,947,1069
2277,938,1073
2278,931,1076
2279,926,1077
2280,924,1080
2281,923,1081
2282,920,1086
2283,915,1087
2284,908,1086
2285,907,1086
2286,906,1088
2287,905,1090
2288,904,1094
2289,900,1097
2290,893,1099
2291,895,1095
2292,894,1096
2293,896,1099
2294,894,1103
2295,889,1104
2296,883,1106
2297,878,1106
2298,878,1106
2299,880,1110
2300,879,1115
2301,873,1116
2302,868,1116
2303,864,1117
2304,865,1120
2305,867,1122
2306,866,1126
2307,860,1128
2308,857,1127
2309,853,1125
2310,852,1124
2311,853,1127
2312,851,1129
2313,846,1130
2314,845,1129
2315,844,1127
2316,846,1125
2317,850,1125
2318,849,1129
2319,848,1126
2320,848,1125
2321,847,1122
2322,850,1118
2323,856,1117
2324,858,1118
2325,859,1114
2326,859,1107
2327,864,1104
2328,871,1099
2329,875,1095
2330,883,1095
2331,885,1090
2332,886,1086
2333,895,1080
2334,900,1075
2335,908,1072
2336,914,1069
2337,917,1067
2338,921,1061
2339,929,1058
2340,936,1051
2341,944,1051
2342,949,1051
2343,953,1050
2344,950,1047
2345,955,1040
2346,963,1038
2347,969,1040
2348,974,1040
2349,973,1039
2350,975,1039
2351,974,1034
2352,974,1035
2353,979,1036
2354,978,1038
2355,975,1036
2356,976,1036
2357,975,1033
2358,979,1034
2359,983,1034
2360,980,1038
2361,979,1037
2362,979,1035
2363,977,1034
2364,977,1033
2365,982,1036
2366,982,1039
2367,978,1040
2368,978,1036
2369,976,1036
2370,980,1033
2371,982,1035
2372,980,1038
2373,981,1040
2374,978,1037
2375,980,1035
2376,982,1033
2377,987,1036
2378,986,1038
2379,982,1037
2380,982,1033
2381,981,1031
2382,986,1030
2383,990,1030
2384,992,1035
2385,989,1035
2386,987,1032
2387,982,1029
2388,988,1028
2389,992,1031
2390,992,1033
2391,990,1033
2392,988,1032
2393,987,1027
2394,992,1028
2395,995,1029
2396,995,1033
2397,994,1030
2398,990,1031
2399,991,1029
2400,995,1028
2401,999,1026
2402,998,1030
2403,998,1029
2404,992,1027
2405,995,1025
2406,996,1026
2407,999,1025
2408,998,1028
2409,996,1029
2410,993,1028
2411,993,1024
2412,993,1022
2413,998,1023
2414,998,1026
2415,997,1029
2416,995,1025
2417,994,1023
2418,999,1023
2419,1002,1024
2420,999,1025
2421,994,1025
2422,996,1024
2423,995,1022
2424,998,1021
2425,999,1023
2426,1001,1026
2427,1000,1026
2428,997,1026
2429,993,1023
2430,994,1021
2431,998,1021
2432,998,1024
2433,996,1026
2434,993,1024
2435,995,1022
2436,997,1023
2437,999,1022
2438,1001,1024
2439,997,1025
2440,995,1024
2441,993,1020
2442,998,1022
2443,1002,1023
2444,1000,1027
2445,999,1024
2446,995,1021
2447,996,1021
2448,997,1018
2449,1002,1022
2450,1000,1023
2451,997,1024
2452,993,1018
2453,995,1019
2454,996,1019
2455,998,1019
2456,999,1025
2457,998,1023
2458,996,1023
2459,997,1018
2460,999,1016
2461,1003,1020
2462,1003,1022
2463,1000,1023
2464,1000,1020
2465,999,1017
2466,1002,1016
2467,1003,1020
2468,1004,1022
2469,1000,1021
2470,995,1023
2471,996,1018
2472,1000,1016
2473,1005,1020
2474,1006,1021
2475,1001,1023
2476,997,1021
2477,998,1017
2478,1000,1017
2479,1001,1018
2480,1003,1021
2481,1000,1020
2482,999,1020
2483,999,1016
2484,1002,1017
2485,1006,1017
2486,1002,1019
2487,1000,1020
2488,1000,1019
2489,1002,1017
2490,1000,1017
2491,1002,1016
2492,1002,1023
2493,1001,1021
2494,997,1019
2495,999,1017
2496,1002,1016
2497,1005,1019
2498,1007,1023
2499,1006,1022
2500,1000,1022
2501,1005,1018
2502,1009,1021
2503,1011,1023
2504,1014,1027
2505,1012,1027
2506,1012,1026
2507,1015,1026
2508,1022,1027
2509,1027,1029
2510,1029,1030
2511,1028,1025
2512,1029,1023
2513,1033,1020
2514,1036,1015
2515,1039,1014
2516,1038,1014
2517,1036,1013
2518,1030,1011
2519,1026,1007
2520,1031,1010
2521,1029,1011
2522,1027,1011
2523,1020,1012
2524,1014,1011
2525,1011,1009
2526,1009,1012
2527,1011,1013
2528,1006,1018
2529,1001,1017
2530,1000,1015
2531,997,1013
2532,998,1012
2533,1000,1012
2534,998,1016
2535,997,1016
2536,994,1015
2537,996,1012
2538,1000,1012
2539,1003,1013
2540,1002,1016
2541,1000,1013
2542,998,1014
2543,997,1011
2544,1001,1010
2545,1003,1013
2546,1000,1010
2547,994,1010
2548,987,1005
2549,988,1007
2550,1000,1005
2551,1025,999
2552,1053,988
2553,1087,973
2554,1133,966
2555,1189,967
2556,1249,965
2557,1302,966
2558,1343,973
2559,1349,980
2560,1313,992
2561,1240,998
2562,1155,1007
2563,1069,1008
2564,1007,1003
2565,987,997
2566,988,990
2567,992,991
2568,995,994
2569,995,1003
2570,995,1011
2571,998,1014
2572,994,1016
2573,990,1013
2574,989,1013
2575,990,1015
2576,992,1019
2577,992,1018
2578,988,1016
2579,987,1016
2580,988,1017
2581,991,1016
2582,996,1017
2583,993,1017
2584,990,1016
2585,988,1015
2586,990,1012
2587,992,1016
2588,994,1016
2589,993,1015
2590,991,1015
2591,990,1013
2592,991,1012
2593,994,1012
2594,996,1018
2595,994,1015
2596,991,1014
2597,992,1010
2598,993,1010
2599,996,1011
2600,1001,1012
2601,999,1014
2602,998,1011
2603,997,1009
2604,998,1006
2605,1005,1005
2606,1005,1010
2607,1003,1007
2608,1004,1004
2609,1006,1002
2610,1009,1001
2611,1015,1002
2612,1017,1001
2613,1014,1003
2614,1016,1000
2615,1016,997
2616,1020,992
2617,1026,994
2618,1026,993
2619,1029,990
2620,1028,988
2621,1033,983
2622,1035,980
2623,1041,983
2624,1044,981
2625,1044,978
2626,1043,975
2627,1045,972
2628,1052,969
2629,1056,971
2630,1058,970
2631,1058,971
2632,1056,967
2633,1056,964
2634,1058,961
2635,1067,963
2636,1071,965
2637,1069,966
2638,1070,965
2639,1070,962
2640,1073,963
2641,1075,965
2642,1077,969
2643,1075,971
2644,1074,969
2645,1070,972
2646,1069,975
2647,1067,978
2648,1067,985
2649,1063,990
2650,1055,992
2651,1049,993
2652,1048,996
2653,1044,1002
2654,1043,1007
2655,1039,1011
2656,1034,1013
2657,1028,1012
2658,1024,1011
2659,1022,1017
2660,1021,1023
2661,1018,1024
2662,1009,1028
2663,1005,1024
2664,1002,1025
2665,1006,1026
2666,1007,1031
2667,1001,1031
2668,1000,1032
2669,999,1031
2670,996,1029
2671,1000,1032
2672,997,1034
2673,994,1035
2674,993,1033
2675,991,1031
2676,996,1029
2677,998,1032
2678,1000,1033
2679,999,1035
2680,995,1033
2681,993,1029
2682,995,1030
2683,999,1031
2684,998,1033
2685,1000,1034
2686,998,1032
2687,997,1029
2688,997,1026
2689,999,1029
2690,1002,1031
2691,997,1030
2692,995,1030
2693,995,1024
2694,994,1024
2695,999,1024
2696,1000,1030
2697,1001,1030
2698,998,1026
2699,995,1023
2700,996,1025
2701,1000,1028
2702,1002,1031
2703,1002,1031
2704,999,1029
2705,1003,1031
2706,1006,1028
2707,1012,1033
2708,1016,1034
2709,1016,1034
2710,1016,1033
2711,1017,1032
2712,1024,1030
2713,1032,1028
2714,1035,1033
2715,1032,1032
2716,1028,1031
2717,1025,1028
2718,1026,1024
2719,1029,1024
2720,1031,1026
2721,1030,1028
2722,1024,1027
2723,1025,1024
2724,1033,1015
2725,1039,1010
2726,1046,1008
2727,1046,1001
2728,1050,992
2729,1057,985
2730,1072,972
2731,1090,951
2732,1106,933
2733,1116,913
2734,1129,893
2735,1141,879
2736,1156,862
2737,1177,855
2738,1191,851
2739,1205,834
2740,1217,823
2741,1232,817
2742,1247,810
2743,1262,806
2744,1278,801
2745,1296,794
2746,1314,788
2747,1325,792
2748,1328,800
2749,1323,814
2750,1310,832
2751,1293,844
2752,1281,858
2753,1272,872
2754,1262,893
2755,1254,913
2756,1248,932
2757,1236,942
2758,1224,946
2759,1221,946
2760,1223,951
2761,1222,956
2762,1222,964
2763,1217,968
2764,1213,968
2765,1205,966
2766,1194,968
2767,1173,974
2768,1148,986
2769,1112,1000
2770,1064,1014
2771,1022,1031
2772,988,1044
2773,962,1057
2774,945,1067
2775,932,1072
2776,923,1073
2777,919,1073
2778,913,1077
2779,916,1080
2780,910,1085
2781,905,1087
2782,898,1088
2783,897,1087
2784,898,1090
2785,898,1094
2786,897,1097
2787,893,1098
2788,888,1099
2789,885,1101
2790,885,1102
2791,886,1105
2792,885,1111
2793,880,1114
2794,876,1117
2795,872,1115
2796,870,1118
2797,870,1123
2798,866,1129
2799,865,1133
2800,860,1135
2801,859,1136
2802,855,1139
2803,856,1144
2804,855,1149
2805,853,1151
2806,847,1154
2807,845,1154
2808,843,1153
2809,846,1160
2810,844,1163
2811,839,1167
2812,832,1166
2813,832,1165
2814,835,1164
2815,832,1167
2816,831,1173
2817,830,1169
2818,826,1171
2819,826,1164
2820,828,1162
2821,831,1162
2822,832,1164
2823,832,1160
2824,829,1154
2825,831,1152
2826,837,1146
2827,842,1142
2828,845,1141
2829,845,1137
2830,845,1128
2831,850,1121
2832,856,1115
2833,867,1112
2834,872,1108
2835,875,1102
2836,880,1093
2837,886,1086
2838,894,1080
2839,903,1076
2840,908,1073
2841,916,1071
2842,917,1065
2843,923,1058
2844,932,1055
2845,940,1054
2846,943,1058
2847,944,1053
2848,948,1051
2849,949,1046
2850,958,1045
2851,959,1045
2852,963,1049
2853,963,1049
2854,959,1047
2855,960,1043
2856,963,1040
2857,967,1044
2858,968,1046
2859,963,1045
2860,961,1044
2861,959,1042
2862,961,1041
2863,967,1043
2864,967,1044
2865,965,1046
2866,961,1046
2867,961,1041
2868,961,1043
2869,966,1044
2870,966,1045
2871,965,1046
2872,963,1047
2873,961,1043
2874,963,1043
2875,964,1047
2876,965,1047
2877,964,1048
2878,962,1048
2879,960,1045
2880,962,1042
2881,965,1044
2882,968,1048
2883,968,1048
2884,964,1044
2885,963,1043
2886,962,1042
2887,968,1045
2888,971,1047
2889,972,1044
2890,970,1043
2891,968,1039
2892,970,1041
2893,976,1042
2894,976,1043
2895,976,1043
2896,976,1043
2897,974,1041
2898,977,1040
2899,979,1042
2900,981,1044
2901,980,1045
2902,975,1044
2903,974,1043
2904,979,1045
2905,984,1043
2906,989,1046
2907,990,1042
2908,994,1039
2909,999,1031
2910,1010,1026
2911,1020,1022
2912,1026,1019
2913,1035,1010
2914,1043,994
2915,1051,979
2916,1073,960
2917,1095,937
2918,1114,921
2919,1127,905
2920,1143,891
2921,1157,877
2922,1177,867
2923,1196,855
2924,1214,844
2925,1236,830
2926,1253,824
2927,1270,820
2928,1295,813
2929,1322,810
2930,1336,814
2931,1342,819
2932,1331,822
2933,1315,831
2934,1302,842
2935,1290,862
2936,1280,884
2937,1273,907
2938,1263,926
2939,1256,943
2940,1249,952
2941,1243,960
2942,1235,969
2943,1230,971
2944,1221,979
2945,1219,981
2946,1224,986
2947,1229,990
2948,1221,992
2949,1204,994
2950,1178,991
2951,1148,995
2952,1115,1005
2953,1075,1018
2954,1034,1035
2955,997,1051
2956,960,1061
2957,942,1064
2958,932,1071
2959,930,1077
2960,926,1080
2961,919,1083
2962,911,1084
2963,904,1083
2964,901,1084
2965,902,1090
2966,899,1091
2967,893,1097
2968,887,1098
2969,886,1096
2970,887,1096
2971,888,1101
2972,887,1105
2973,880,1107
2974,875,1107
2975,873,1107
2976,875,1112
2977,876,1117
2978,872,1120
2979,867,1123
2980,861,1125
2981,857,1125
2982,856,1124
2983,858,1131
2984,855,1138
2985,849,1139
2986,844,1142
2987,840,1143
2988,841,1144
2989,841,1149
2990,839,1154
2991,834,1155
2992,830,1157
2993,826,1154
2994,826,1156
2995,827,1158
2996,829,1160
2997,826,1160
2998,820,1157
2999,821,1152
3000,827,1149
3001,835,1146
3002,839,1145
3003,837,1142
3004,839,1134
3005,843,1125
3006,855,1119
3007,863,1113
3008,872,1107
3009,880,1104
3010,881,1096
3011,890,1088
3012,900,1081
3013,911,1079
3014,919,1074
3015,925,1072
3016,930,1066
3017,936,1059
3018,945,1056
3019,954,1054
3020,957,1054
3021,961,1053
3022,962,1052
3023,965,1046
3024,969,1045
3025,972,1045
3026,975,1048
3027,972,1048
3028,970,1048
3029,966,1041
3030,972,1041
3031,978,1043
3032,979,1047
3033,976,1045
3034,973,1043
3035,972,1042
3036,973,1044
3037,977,1043
3038,979,1046
3039,977,1046
3040,972,1043
3041,972,1044
3042,974,1043
3043,978,1044
3044,972,1048
3045,974,1049
3046,971,1046
3047,973,1043
3048,974,1043
3049,980,1043
3050,979,1048
3051,978,1047
3052,975,1043
3053,976,1039
3054,981,1039
3055,985,1042
3056,985,1044
3057,982,1043
3058,977,1040
3059,979,1036
3060,983,1038
3061,988,1040
3062,987,1042
3063,985,1043
3064,982,1041
3065,983,1037
3066,988,1037
3067,992,1038
3068,991,1041
3069,988,1041
3070,986,1040
3071,986,1037
3072,990,1035
3073,992,1039
3074,993,1042
3075,990,1041
3076,988,1039
3077,986,1035
3078,989,1035
3079,993,1037
3080,994,1039
3081,991,1038
3082,987,1038
3083,988,1035
3084,991,1037
3085,995,1036
3086,996,1036
3087,991,1039
3088,991,1036
3089,992,1031
3090,991,1031
3091,995,1033
3092,996,1035
3093,993,1038
3094,991,1034
3095,990,1032
3096,995,1032
3097,996,1035
3098,997,1036
3099,995,1037
3100,994,1033
3101,993,1032
3102,997,1032
3103,998,1033
3104,997,1034
3105,997,1034
3106,993,1034
3107,992,1033
3108,994,1031
3109,998,1033
3110,996,1034
3111,997,1036
3112,992,1034
3113,993,1032
3114,995,1031
3115,999,1032
3116,1000,1036
3117,998,1034
3118,994,1033
3119,993,1029
3120,999,1032
3121,999,1034
3122,995,1037
3123,995,1036
3124,995,1035
3125,995,1032
3126,997,1031
3127,999,1033
3128,997,1035
3129,993,1036
3130,996,1033
3131,996,1030
3132,999,1031
3133,1000,1032
3134,1001,1036
3135,999,1034
3136,995,1033
3137,995,1032
3138,997,1032
3139,1001,1033
3140,1003,1034
3141,1002,1035
3142,1003,1037
3143,1004,1038
3144,1008,1038
3145,1014,1040
3146,1015,1042
3147,1017,1045
3148,1019,1042
3149,1021,1040
3150,1028,1037
3151,1034,1034
3152,1034,1035
3153,1031,1030
3154,1030,1025
3155,1029,1022
3156,1031,1019
3157,1029,1022
3158,1025,1022
3159,1020,1023
3160,1014,1023
3161,1014,1019
3162,1013,1015
3163,1013,1017
3164,1011,1022
3165,1006,1025
3166,1001,1025
3167,999,1023
3168,999,1026
3169,999,1023
3170,999,1028
3171,996,1028
3172,991,1024
3173,995,1023
3174,995,1023
3175,997,1023
3176,998,1027
3177,995,1026
3178,993,1025
3179,996,1023
3180,999,1022
3181,1001,1023
3182,999,1024
3183,996,1025
3184,995,1022
3185,995,1021
3186,1000,1020
3187,1001,1022
3188,999,1019
3189,993,1019
3190,991,1017
3191,994,1015
3192,1010,1016
3193,1032,1014
3194,1059,1003
3195,1092,986
3196,1130,979
3197,1174,974
3198,1223,975
3199,1274,973
3200,1318,971
3201,1344,974
3202,1332,986
3203,1280,996
3204,1211,999
3205,1143,1004
3206,1082,1008
3207,1044,1008
3208,1024,1001
3209,1010,997
3210,1001,1000
3211,995,1005
3212,992,1014
3213,991,1019
3214,997,1020
3215,998,1020
3216,997,1022
3217,997,1025
3218,994,1028
3219,989,1026
3220,987,1025
3221,987,1024
3222,988,1023
3223,991,1027
3224,990,1030
3225,983,1029
3226,984,1028
3227,985,1025
3228,989,1026
3229,988,1027
3230,991,1028
3231,988,1029
3232,986,1028
3233,985,1024
3234,990,1024
3235,994,1025
3236,993,1029
3237,991,1027
3238,988,1025
3239,987,1022
3240,993,1026
3241,994,1026
3242,996,1030
3243,996,1026
3244,993,1023
3245,993,1021
3246,999,1021
3247,1004,1021
3248,1005,1023
3249,1003,1025
3250,999,1021
3251,996,1017
3252,1002,1016
3253,1009,1018
3254,1009,1018
3255,1006,1017
3256,1004,1014
3257,1007,1012
3258,1011,1011
3259,1018,1013
3260,1022,1013
3261,1016,1011
3262,1016,1007
3263,1013,1003
3264,1021,1000
3265,1029,1002
3266,1033,1003
3267,1031,1002
3268,1027,997
3269,1029,992
3270,1035,990
3271,1046,990
3272,1047,989
3273,1048,987
3274,1046,982
3275,1049,977
3276,1055,976
3277,1062,976
3278,1065,978
3279,1066,975
3280,1065,971
3281,1066,967
3282,1071,966
3283,1075,967
3284,1078,971
3285,1078,969
3286,1077,967
3287,1076,962
3288,1079,964
3289,1086,966
3290,1088,969
3291,1087,971
3292,1083,972
3293,1079,969
3294,1079,971
3295,1082,977
3296,1082,984
3297,1072,986
3298,1065,988
3299,1058,989
3300,1058,996
3301,1059,1003
3302,1055,1008
3303,1052,1014
3304,1040,1014
3305,1036,1016
3306,1034,1017
3307,1035,1021
3308,1028,1025
3309,1030,1028
3310,1020,1028
3311,1017,1027
3312,1015,1029
3313,1018,1032
3314,1017,1035
3315,1013,1036
3316,1008,1035
3317,1000,1032
3318,996,1032
3319,1002,1035
3320,1003,1036
3321,1003,1037
3322,999,1039
3323,999,1037
3324,999,1033
3325,1002,1036
3326,1002,1038
3327,1003,1040
3328,1000,1038
3329,997,1036
3330,997,1035
3331,1000,1035
3332,1001,1040
3333,1004,1037
3334,999,1037
3335,998,1035
3336,999,1034
3337,1000,1035
3338,1003,1037
3339,1005,1039
3340,999,1034
3341,1001,1033
3342,1004,1031
3343,1008,1034
3344,1008,1036
3345,1003,1035
3346,1000,1035
3347,998,1030
3348,998,1029
3349,1001,1029
3350,1003,1030
3351,1005,1030
3352,1002,1029
3353,1004,1026
3354,1003,1028
3355,1005,1030
3356,1004,1029
3357,1002,1032
3358,1002,1031
3359,1000,1027
3360,1003,1027
3361,1002,1032
3362,1002,1031
3363,1002,1032
3364,1000,1032
3365,1006,1031
3366,1010,1029
3367,1012,1033
3368,1014,1037
3369,1014,1039
3370,1015,1039
3371,1016,1036
3372,1021,1035
3373,1025,1039
3374,1028,1039
3375,1029,1038
3376,1029,1035
3377,1029,1032
3378,1033,1031
3379,1037,1030
3380,1035,1033
3381,1028,1031
3382,1025,1029
3383,1026,1028
3384,1030,1027
3385,1033,1027
3386,1033,1028
3387,1031,1029
3388,1029,1019
3389,1034,1012
3390,1038,1007
3391,1049,1002
3392,1056,999
3393,1058,990
3394,1065,979
3395,1078,965
3396,1094,943
3397,1111,922
3398,1127,903
3399,1138,887
3400,1147,869
3401,1160,858
3402,1175,847
3403,1190,839
3404,1204,831
3405,1217,817
3406,1232,807
3407,1247,799
3408,1261,797
3409,1273,795
3410,1292,790
3411,1308,785
3412,1323,781
3413,1334,780
3414,1335,791
3415,1333,801
3416,1325,815
3417,1313,826
3418,1302,836
3419,1290,851
3420,1283,869
3421,1281,889
3422,1273,911
3423,1268,922
3424,1258,928
3425,1252,932
3426,1253,934
3427,1256,944
3428,1255,955
3429,1252,962
3430,1249,964
3431,1242,963
3432,1230,964
3433,1216,969
3434,1197,977
3435,1167,986
3436,1128,996
3437,1083,1010
3438,1043,1026
3439,1006,1040
3440,981,1050
3441,959,1061
3442,945,1063
3443,935,1065
3444,932,1068
3445,933,1072
3446,931,1078
3447,925,1082
3448,916,1079
3449,909,1082
3450,908,1081
3451,908,1084
3452,909,1087
3453,908,1089
3454,903,1089
3455,902,1091
3456,900,1091
3457,900,1094
3458,899,1099
3459,894,1099
3460,890,1101
3461,890,1100
3462,893,1105
3463,897,1104
3464,891,1110
3465,887,1110
3466,886,1112
3467,884,1112
3468,885,1112
3469,886,1118
3470,884,1122
3471,879,1125
3472,876,1125
3473,875,1127
3474,874,1129
3475,874,1134
3476,870,1137
3477,864,1141
3478,859,1141
3479,859,1140
3480,861,1146
3481,862,1148
3482,862,1153
3483,858,1153
3484,852,1151
3485,851,1151
3486,852,1152
3487,852,1154
3488,854,1158
3489,851,1158
3490,846,1156
3491,842,1152
3492,848,1150
3493,853,1153
3494,858,1153
3495,852,1153
3496,852,1148
3497,850,1143
3498,855,1140
3499,861,1138
3500,863,1136
3501,865,1134
3502,863,1127
3503,865,1120
3504,869,1117
3505,877,1112
3506,881,1111
3507,885,1108
3508,888,1099
3509,892,1092
3510,895,1086
3511,904,1085
3512,911,1083
3513,918,1077
3514,923,1070
3515,925,1064
3516,931,1060
3517,939,1059
3518,947,1060
3519,955,1055
3520,955,1052
3521,961,1045
3522,966,1042
3523,974,1039
3524,977,1044
3525,977,1043
3526,976,1040
3527,977,1037
3528,979,1034
3529,984,1036
3530,985,1039
3531,985,1038
3532,982,1037
3533,983,1033
3534,983,1035
3535,985,1036
3536,988,1037
3537,985,1038
3538,983,1037
3539,982,1034
3540,983,1034
3541,986,1037
3542,988,1036
3543,989,1041
3544,987,1035
3545,986,1035
3546,988,1033
3547,989,1034
3548,989,1038
3549,989,1037
3550,988,1036
3551,990,1035
3552,992,1034
3553,989,1038
3554,988,1041
3555,986,1041
3556,986,1039
3557,989,1037
3558,990,1037
3559,990,1041
3560,991,1039
3561,988,1041
3562,987,1039
3563,988,1036
3564,990,1034
3565,991,1038
3566,990,1037
3567,991,1039
3568,987,1036
3569,989,1033
3570,990,1033
3571,991,1032
3572,990,1037
3573,989,1041
3574,990,1040
3575,989,1038
3576,993,1038
3577,997,1037
3578,1000,1039
3579,1004,1039
3580,1003,1036
3581,1008,1029
3582,1017,1024
3583,1027,1020
3584,1036,1016
3585,1041,1010
3586,1048,1002
3587,1057,991
3588,1071,978
3589,1088,964
3590,1102,949
3591,1119,932
3592,1133,918
3593,1148,906
3594,1166,896
3595,1185,887
3596,1201,880
3597,1212,872
3598,1229,864
3599,1250,850
3600,1269,847
3601,1285,844
3602,1301,842
3603,1315,839
3604,1334,832
3605,1350,829
3606,1358,833
3607,1356,844
3608,1348,859
3609,1332,872
3610,1320,885
3611,1308,892
3612,1295,908
3613,1287,929
3614,1271,945
3615,1258,962
3616,1245,967
3617,1235,973
3618,1231,977
3619,1231,981
3620,1228,981
3621,1224,981
3622,1223,979
3623,1217,972
3624,1201,971
3625,1176,971
3626,1143,978
3627,1104,988
3628,1062,1003
3629,1026,1016
3630,999,1033
3631,979,1045
3632,963,1055
3633,950,1061
3634,941,1064
3635,935,1064
3636,933,1066
3637,929,1070
3638,927,1073
3639,922,1076
3640,920,1077
3641,917,1075
3642,916,1077
3643,915,1079
3644,912,1083
3645,910,1085
3646,905,1087
3647,904,1086
3648,904,1084
3649,903,1089
3650,903,1092
3651,898,1094
3652,895,1093
3653,894,1094
3654,895,1098
3655,894,1100
3656,890,1102
3657,888,1105
3658,883,1107
3659,886,1106
3660,885,1110
3661,884,1114
3662,882,1120
3663,877,1121
3664,871,1121
3665,870,1120
3666,868,1124
3667,870,1125
3668,868,1130
3669,863,1134
3670,860,1133
3671,859,1130
3672,859,1131
3673,859,1133
3674,859,1138
3675,854,1139
3676,852,1136
3677,852,1134
3678,852,1134
3679,854,1134
3680,853,1136
3681,850,1135
3682,850,1131
3683,849,1126
3684,853,1127
3685,859,1127
3686,860,1125
3687,858,1122
3688,860,1116
3689,865,1111
3690,871,1108
3691,876,1105
3692,876,1101
3693,878,1096
3694,884,1089
3695,889,1082
3696,897,1078
3697,908,1075
3698,913,1071
3699,914,1066
3700,921,1063
3701,928,1054
3702,938,1051
3703,949,1050
3704,953,1051
3705,954,1047
3706,958,1044
3707,962,1040
3708,967,1037
3709,976,1038
3710,977,1038
3711,977,1036
3712,976,1035
3713,979,1031
3714,980,1033
3715,988,1034
3716,986,1037
3717,983,1035
3718,982,1030
3719,981,1031
3720,986,1029
3721,987,1033
3722,988,1035
3723,985,1034
3724,981,1033
3725,984,1031
3726,986,1030
3727,987,1031
3728,985,1035
3729,979,1035
3730,981,1033
3731,983,1030
3732,986,1030
3733,990,1034
3734,987,1035
3735,981,1035
3736,976,1031
3737,979,1031
3738,985,1031
3739,991,1033
3740,993,1034
3741,987,1034
3742,984,1032
3743,985,1029
3744,987,1028
3745,990,1030
3746,992,1033
3747,988,1032
3748,986,1031
3749,988,1028
3750,990,1029
3751,994,1029
3752,996,1031
3753,990,1031
3754,990,1030
3755,993,1027
3756,996,1026
3757,999,1029
3758,997,1029
3759,997,1030
3760,990,1027
3761,992,1024
3762,998,1022
3763,1002,1027
3764,1002,1030
3765,997,1027
3766,995,1027
3767,995,1024
3768,997,1023
3769,1000,1026
3770,1006,1028
3771,1002,1027
3772,995,1024
3773,997,1021
3774,1002,1023
3775,1006,1026
3776,1005,1027
3777,1003,1026
3778,996,1023
3779,997,1021
3780,1002,1022
3781,1005,1023
3782,1006,1026
3783,1003,1028
3784,1002,1024
3785,1001,1020
3786,1004,1020
3787,1007,1021
3788,1007,1026
3789,1002,1027
3790,996,1023
3791,996,1020
3792,1000,1021
3793,1006,1023
3794,1006,1026
3795,1004,1026
3796,999,1022
3797,998,1021
3798,999,1021
3799,1004,1023
3800,1007,1025
3801,1003,1024
3802,1003,1022
3803,999,1020
3804,1001,1020
3805,1006,1019
3806,1008,1023
3807,1006,1025
3808,1003,1022
3809,1001,1020
3810,1002,1017
3811,1006,1021
3812,1006,1025
3813,1005,1022
3814,1004,1021
3815,999,1018
3816,1003,1018
3817,1009,1020
3818,1010,1022
3819,1007,1023
3820,1007,1022
3821,1003,1018
3822,1007,1017
3823,1010,1020
3824,1012,1026
3825,1011,1024
3826,1013,1024
3827,1013,1024
3828,1018,1025
3829,1022,1027
3830,1025,1030
3831,1024,1030
3832,1027,1031
3833,1029,1027
3834,1032,1025
3835,1038,1025
3836,1041,1026
3837,1042,1027
3838,1042,1020
3839,1041,1013
3840,1040,1012
3841,1041,1010
3842,1041,1013
3843,1035,1013
3844,1033,1012
3845,1031,1011
3846,1029,1010
3847,1028,1009
3848,1022,1012
3849,1019,1014
3850,1013,1012
3851,1012,1013
3852,1013,1015
3853,1014,1013
3854,1011,1017
3855,1008,1017
3856,1004,1015
3857,1002,1013
3858,1002,1015
3859,1003,1014
3860,1005,1017
3861,1004,1017
3862,1001,1014
3863,1002,1013
3864,1000,1012
3865,1006,1015
3866,1007,1016
3867,1005,1017
3868,1003,1014
3869,1004,1013
3870,1002,1012
3871,1003,1014
3872,1007,1016
3873,1004,1012
3874,1001,1008
3875,996,1008
3876,996,1011
3877,1010,1013
3878,1035,1010
3879,1062,999
3880,1094,986
3881,1131,970
3882,1184,969
3883,1245,971
3884,1302,972
3885,1349,972
3886,1368,972
3887,1348,978
3888,1289,992
3889,1215,1002
3890,1140,1007
3891,1073,1005
3892,1024,998
3893,1003,991
3894,998,989
3895,1000,992
3896,1003,999
3897,995,1004
3898,997,1008
3899,997,1010
3900,1002,1013
3901,1001,1016
3902,1001,1019
3903,998,1019
3904,996,1016
3905,996,1017
3906,997,1018
3907,996,1018
3908,994,1018
3909,993,1018
3910,992,1019
3911,993,1014
3912,994,1015
3913,995,1018
3914,996,1021
3915,997,1021
3916,994,1019
3917,995,1015
3918,995,1017
3919,994,1019
3920,998,1021
3921,995,1021
3922,993,1018
3923,997,1018
3924,997,1017
3925,1000,1017
3926,1002,1021
3927,1000,1021
3928,998,1018
3929,1000,1017
3930,1004,1014
3931,1002,1015
3932,1005,1017
3933,1003,1015
3934,1005,1013
3935,1007,1011
3936,1010,1008
3937,1013,1008
3938,1017,1010
3939,1014,1009
3940,1014,1007
3941,1014,1004
3942,1016,1003
3943,1022,1005
3944,1023,1004
3945,1026,1004
3946,1027,1000
3947,1027,998
3948,1030,995
3949,1033,994
3950,1035,995
3951,1037,992
3952,1039,990
3953,1040,983
3954,1041,979
3955,1048,980
3956,1052,980
3957,1052,980
3958,1056,974
3959,1058,969
3960,1061,968
3961,1068,970
3962,1067,968
3963,1070,968
3964,1072,966
3965,1070,965
3966,1073,963
3967,1077,961
3968,1077,964
3969,1081,965
3970,1079,964
3971,1080,963
3972,1078,964
3973,1083,966
3974,1081,968
3975,1078,970
3976,1075,972
3977,1075,972
3978,1078,976
3979,1074,981
3980,1067,989
3981,1066,989
3982,1059,992
3983,1057,993
3984,1052,1001
3985,1052,1003
3986,1046,1010
3987,1041,1016
3988,1038,1015
3989,1031,1017
3990,1030,1018
3991,1025,1022
3992,1024,1029
3993,1020,1029
3994,1013,1030
3995,1012,1027
3996,1007,1028
3997,1010,1029
3998,1009,1034
3999,1004,1033
4000,1003,1034
4001,1003,1032
4002,1003,1031
4003,1004,1033
4004,1004,1036
4005,1003,1037
4006,1001,1035
4007,998,1033
4008,1001,1035
4009,1004,1035
4010,1007,1038
4011,1006,1039
4012,1003,1036
4013,1002,1032
4014,1001,1033
4015,1006,1033
4016,1008,1038
4017,1007,1037
4018,1003,1035
4019,1001,1031
4020,1004,1031
4021,1008,1032
4022,1011,1036
4023,1006,1035
4024,1004,1033
4025,1000,1029
4026,1002,1028
4027,1005,1031
4028,1006,1033
4029,1008,1032
4030,1005,1031
4031,1001,1028
4032,1003,1027
4033,1010,1028
4034,1008,1030
4035,1009,1032
4036,1005,1030
4037,1001,1030
4038,1005,1031
4039,1009,1033
4040,1012,1036
4041,1012,1039
4042,1012,1037
4043,1012,1036
4044,1018,1037
4045,1021,1038
4046,1024,1042
4047,1025,1042
4048,1028,1038
4049,1028,1033
4050,1032,1030
4051,1039,1033
4052,1039,1034
4053,1038,1028
4054,1031,1024
4055,1027,1021
4056,1029,1020
4057,1030,1023
4058,1028,1028
4059,1024,1026
4060,1016,1026
4061,1007,1026
4062,1005,1026
4063,1007,1031
4064,1007,1035
4065,1004,1041
4066,1001,1035
4067,1004,1030
4068,1014,1028
4069,1024,1022
4070,1030,1015
4071,1036,1008
4072,1044,997
4073,1058,984
4074,1073,971
4075,1091,957
4076,1105,938
4077,1119,913
4078,1127,892
4079,1143,874
4080,1162,861
4081,1174,848
4082,1184,839
4083,1193,822
4084,1208,808
4085,1229,794
4086,1246,791
4087,1258,788
4088,1270,782
4089,1281,774
4090,1296,768
4091,1322,768
4092,1341,770
4093,1355,771
4094,1363,771
4095,1370,773
4096,1383,778
4097,1405,795
4098,1424,819
4099,1433,845
4100,1395,873
4101,1318,907
4102,1233,941
4103,1163,973
4104,1108,997
4105,1057,1015
4106,1018,1030
4107,989,1038
4108,971,1043
4109,962,1050
4110,960,1055
4111,954,1066
4112,946,1069
4113,940,1072
4114,935,1073
4115,931,1074
4116,931,1076
4117,927,1080
4118,923,1085
4119,920,1086
4120,919,1083
4121,919,1083
4122,919,1083
4123,921,1088
4124,918,1090
4125,915,1090
4126,913,1092
4127,915,1090
4128,916,1092
4129,917,1095
4130,915,1097
4131,909,1099
4132,907,1101
4133,908,1103
4134,910,1103
4135,911,1108
4136,906,1110
4137,904,1114
4138,903,1116
4139,898,1115
4140,902,1117
4141,900,1122
4142,897,1124
4143,895,1126
4144,893,1130
4145,891,1129
4146,891,1132
4147,889,1136
4148,889,1139
4149,883,1145
4150,882,1143
4151,884,1143
4152,884,1146
4153,883,1149
4154,881,1152
4155,880,1155
4156,877,1154
4157,880,1153
4158,880,1151
4159,882,1152
4160,882,1154
4161,882,1154
4162,882,1151
4163,882,1148
4164,884,1145
4165,884,1148
4166,889,1145
4167,889,1141
4168,894,1136
4169,897,1129
4170,902,1127
4171,905,1125
4172,908,1123
4173,913,1117
4174,915,1108
4175,922,1101
4176,927,1096
4177,933,1093
4178,938,1090
4179,943,1086
4180,947,1080
4181,953,1076
4182,955,1069
4183,961,1067
4184,963,1067
4185,968,1062
4186,968,1059
4187,970,1055
4188,976,1055
4189,978,1053
4190,981,1054
4191,979,1052
4192,982,1051
4193,981,1048
4194,983,1051
4195,984,1050
4196,979,1049
4197,981,1049
4198,976,1047
4199,976,1045
4200,982,1046
4201,980,1046
4202,979,1048
4203,979,1048
4204,975,1045
4205,977,1041
4206,979,1043
4207,981,1045
4208,981,1046
4209,980,1043
4210,977,1042
4211,980,1041
4212,984,1042
4213,985,1044
4214,985,1046
4215,982,1047
4216,978,1043
4217,978,1044
4218,983,1042
4219,983,1044
4220,985,1047
4221,983,1044
4222,978,1043
4223,980,1043
4224,982,1041
4225,983,1044
4226,982,1046
4227,978,1044
4228,976,1044
4229,978,1039
4230,981,1042
4231,985,1041
4232,986,1047
4233,984,1044
4234,978,1044
4235,978,1045
4236,983,1045
4237,988,1046
4238,992,1045
4239,993,1044
4240,994,1037
4241,996,1031
4242,1005,1030
4243,1012,1028
4244,1020,1027
4245,1024,1020
4246,1028,1011
4247,1039,997
4248,1056,984
4249,1074,974
4250,1091,957
4251,1103,941
4252,1115,922
4253,1127,908
4254,1147,894
4255,1168,884
4256,1183,873
4257,1193,856
4258,1201,840
4259,1214,828
4260,1230,821
4261,1241,821
4262,1260,820
4263,1276,816
4264,1289,817
4265,1296,820
4266,1301,827
4267,1300,840
4268,1291,855
4269,1279,870
4270,1269,880
4271,1264,898
4272,1258,919
4273,1261,941
4274,1258,957
4275,1249,966
4276,1237,972
4277,1232,972
4278,1230,972
4279,1229,977
4280,1233,983
4281,1235,983
4282,1230,983
4283,1218,977
4284,1198,978
4285,1170,982
4286,1138,991
4287,1097,1004
4288,1050,1016
4289,1009,1034
4290,979,1050
4291,959,1062
4292,945,1068
4293,935,1072
4294,927,1073
4295,923,1074
4296,919,1077
4297,918,1083
4298,912,1084
4299,904,1085
4300,904,1086
4301,900,1085
4302,899,1087
4303,897,1091
4304,896,1093
4305,892,1095
4306,885,1095
4307,886,1095
4308,886,1094
4309,888,1101
4310,887,1101
4311,881,1104
4312,875,1103
4313,873,1103
4314,872,1106
4315,873,1110
4316,871,1113
4317,867,1114
4318,861,1114
4319,859,1115
4320,861,1117
4321,856,1124
4322,852,1126
4323,847,1129
4324,844,1128
4325,845,1128
4326,844,1127
4327,845,1135
4328,841,1135
4329,836,1141
4330,830,1136
4331,824,1137
4332,831,1138
4333,832,1138
4334,828,1142
4335,827,1143
4336,824,1139
4337,823,1136
4338,828,1139
4339,833,1137
4340,831,1137
4341,829,1137
4342,829,1130
4343,831,1129
4344,837,1125
4345,843,1124
4346,846,1121
4347,850,1117
4348,852,1112
4349,855,1103
4350,862,1102
4351,870,1100
4352,878,1096
4353,883,1092
4354,885,1083
4355,893,1078
4356,902,1072
4357,913,1071
4358,919,1071
4359,920,1067
4360,923,1064
4361,929,1058
4362,938,1054
4363,945,1055
4364,947,1055
4365,951,1053
4366,952,1050
4367,955,1045
4368,962,1047
4369,966,1050
4370,966,1049
4371,965,1049
4372,965,1047
4373,965,1044
4374,970,1045
4375,973,1047
4376,973,1048
4377,968,1050
4378,965,1047
4379,965,1045
4380,966,1043
4381,969,1047
4382,970,1049
4383,971,1048
4384,971,1047
4385,970,1043
4386,968,1045
4387,973,1046
4388,972,1049
4389,969,1049
4390,968,1047
4391,968,1043
4392,975,1045
4393,974,1046
4394,975,1047
4395,972,1049
4396,970,1043
4397,972,1043
4398,974,1041
4399,978,1042
4400,980,1044
4401,977,1043
4402,974,1043
4403,975,1039
4404,976,1041
4405,977,1042
4406,979,1043
4407,979,1042
4408,974,1041
4409,975,1043
4410,980,1038
4411,983,1042
4412,983,1045
4413,980,1043
4414,980,1042
4415,979,1039
4416,983,1038
4417,982,1040
4418,984,1042
4419,982,1039
4420,978,1037
4421,978,1035
4422,982,1037
4423,985,1037
4424,984,1038
4425,981,1038
4426,978,1037
4427,982,1035
4428,984,1034
4429,983,1035
4430,981,1036
4431,977,1036
4432,978,1033
4433,982,1033
4434,982,1033
4435,985,1034
4436,987,1035
4437,983,1036
4438,979,1033
4439,981,1031
4440,981,1031
4441,985,1032
4442,985,1036
4443,984,1035
4444,982,1036
4445,981,1030
4446,984,1032
4447,987,1033
4448,989,1035
4449,984,1037
4450,979,1033
4451,984,1031
4452,987,1029
4453,990,1033
4454,989,1035
4455,984,1031
4456,982,1032
4457,983,1029
4458,985,1029
4459,989,1032
4460,990,1032
4461,986,1033
4462,982,1032
4463,982,1029
4464,987,1030
4465,989,1033
4466,986,1033
4467,984,1030
4468,981,1031
4469,983,1030
4470,988,1029
4471,989,1030
4472,988,1032
4473,984,1031
4474,985,1030
4475,984,1027
4476,986,1028
4477,991,1032
4478,990,1031
4479,985,1031
4480,985,1027
4481,985,1027
4482,987,1030
4483,990,1027
4484,990,1030
4485,983,1031
4486,985,1030
4487,987,1027
4488,989,1030
4489,992,1030
4490,990,1031
4491,988,1031
4492,982,1029
4493,984,1029
4494,989,1029
4495,993,1030
4496,993,1030
4497,987,1030
4498,984,1028
4499,985,1025
4500,990,1027
4501,990,1030
4502,993,1034
4503,991,1031
4504,988,1030
4505,989,1028
4506,994,1027
4507,997,1031
4508,998,1034
4509,998,1034
4510,997,1034
4511,1000,1032
4512,1002,1033
4513,1008,1037
4514,1006,1040
4515,1009,1040
4516,1013,1033
4517,1017,1029
4518,1022,1029
4519,1027,1028
4520,1027,1024
4521,1023,1024
4522,1016,1019
4523,1016,1015
4524,1016,1017
4525,1018,1018
4526,1017,1021
4527,1010,1022
4528,1001,1021
4529,998,1016
4530,995,1018
4531,996,1020
4532,993,1025
4533,988,1025
4534,983,1022
4535,988,1019
4536,990,1018
4537,992,1023
4538,990,1024
4539,990,1024
4540,987,1021
4541,986,1018
4542,990,1018
4543,991,1020
4544,994,1024
4545,987,1020
4546,989,1018
4547,985,1016
4548,988,1018
4549,990,1019
4550,990,1022
4551,990,1021
4552,987,1018
4553,989,1015
4554,990,1011
4555,989,1012
4556,989,1015
4557,1001,1013
4558,1022,1003
4559,1049,992
4560,1087,980
4561,1133,977
4562,1183,977
4563,1240,978
4564,1294,976
4565,1330,979
4566,1324,986
4567,1272,1003
4568,1198,1010
4569,1119,1015
4570,1046,1011
4571,1002,1003
4572,989,1000
4573,991,1002
4574,986,1007
4575,983,1015
4576,981,1016
4577,985,1017
4578,986,1019
4579,986,1022
4580,984,1024
4581,981,1026
4582,975,1023
4583,979,1021
4584,979,1022
4585,983,1023
4586,981,1026
4587,979,1025
4588,976,1024
4589,974,1021
4590,979,1021
4591,983,1023
4592,983,1025
4593,983,1026
4594,980,1020
4595,977,1017
4596,977,1022
4597,984,1022
4598,985,1022
4599,984,1024
4600,983,1020
4601,983,1019
4602,985,1020
4603,987,1022
4604,988,1022
4605,985,1024
4606,983,1018
4607,985,1018
4608,988,1017
4609,995,1018
4610,995,1017
4611,996,1016
4612,993,1013
4613,998,1013
4614,1002,1013
4615,1005,1014
4616,1005,1011
4617,1003,1009
4618,1004,1009
4619,1008,1003
4620,1011,1004
4621,1018,1002
4622,1018,1006
4623,1013,1002
4624,1016,999
4625,1018,994
4626,1024,991
4627,1027,993
4628,1030,990
4629,1029,991
4630,1030,986
4631,1034,981
4632,1039,981
4633,1042,984
4634,1044,983
4635,1042,982
4636,1042,978
4637,1046,974
4638,1051,972
4639,1056,976
4640,1058,976
4641,1057,975
4642,1057,972
4643,1061,970
4644,1063,971
4645,1069,973
4646,1071,976
4647,1067,979
4648,1063,979
4649,1063,979
4650,1065,982
4651,1067,986
4652,1059,991
4653,1049,993
4654,1049,995
4655,1041,996
4656,1042,999
4657,1046,1007
4658,1043,1012
4659,1037,1015
4660,1030,1015
4661,1025,1017
4662,1024,1019
4663,1020,1025
4664,1020,1028
4665,1016,1030
4666,1008,1030
4667,1003,1032
4668,1004,1033
4669,1003,1035
4670,1005,1041
4671,1000,1039
4672,993,1039
4673,994,1037
4674,995,1038
4675,998,1042
4676,997,1041
4677,995,1042
4678,992,1042
4679,992,1040
4680,995,1041
4681,999,1041
4682,998,1043
4683,997,1043
4684,995,1042
4685,998,1039
4686,994,1039
4687,1000,1042
4688,1001,1043
4689,998,1040
4690,996,1040
4691,994,1035
4692,997,1038
4693,1003,1039
4694,1002,1040
4695,997,1040
4696,994,1037
4697,995,1036
4698,999,1036
4699,1000,1039
4700,1002,1039
4701,1000,1039
4702,996,1036
4703,992,1036
4704,1000,1036
4705,1005,1038
4706,1005,1042
4707,1003,1041
4708,1002,1039
4709,1004,1039
4710,1010,1040
4711,1014,1043
4712,1016,1044
4713,1012,1045
4714,1015,1043
4715,1019,1038
4716,1027,1039
4717,1034,1039
4718,1037,1038
4719,1032,1036
4720,1030,1032
4721,1028,1029
4722,1030,1030
4723,1030,1031
4724,1029,1034
4725,1022,1035
4726,1015,1036
4727,1017,1033
4728,1016,1034
4729,1016,1036
4730,1009,1040
4731,1003,1038
4732,994,1038
4733,1000,1033
4734,1008,1030
4735,1022,1026
4736,1027,1022
4737,1031,1013
4738,1037,1002
4739,1047,991
4740,1064,978
4741,1081,962
4742,1099,946
4743,1112,928
4744,1125,912
4745,1137,896
4746,1153,888
4747,1171,879
4748,1184,875
4749,1193,866
4750,1207,854
4751,1227,846
4752,1246,838
4753,1260,835
4754,1273,833
4755,1290,825
4756,1310,820
4757,1331,815
4758,1339,821
4759,1337,832
4760,1332,846
4761,1334,855
4762,1345,856
4763,1358,855
4764,1365,861
4765,1376,875
4766,1384,888
4767,1387,901
4768,1387,909
4769,1377,919
4770,1338,934
4771,1273,951
4772,1203,973
4773,1142,991
4774,1090,1005
4775,1045,1016
4776,1015,1026
4777,995,1038
4778,981,1050
4779,964,1057
4780,949,1062
4781,942,1063
4782,939,1068
4783,935,1075
4784,932,1078
4785,926,1080
4786,920,1080
4787,922,1080
4788,920,1082
4789,923,1085
4790,917,1089
4791,911,1089
4792,907,1091
4793,910,1087
4794,913,1091
4795,915,1095
4796,911,1099
4797,906,1099
4798,902,1096
4799,902,1098
4800,905,1100
4801,907,1106
4802,905,1110
4803,899,1115
4804,896,1110
4805,896,1110
4806,895,1115
4807,897,1118
4808,891,1125
4809,888,1124
4810,881,1125
4811,883,1127
4812,883,1130
4813,887,1135
4814,884,1140
4815,880,1142
4816,872,1141
4817,871,1142
4818,870,1144
4819,873,1147
4820,873,1152
4821,868,1154
4822,865,1152
4823,864,1152
4824,864,1152
4825,865,1157
4826,865,1159
4827,861,1159
4828,857,1154
4829,860,1154
4830,862,1153
4831,865,1154
4832,866,1153
4833,864,1150
4834,862,1147
4835,866,1142
4836,874,1140
4837,878,1139
4838,882,1136
4839,880,1129
4840,880,1124
4841,888,1115
4842,896,1111
4843,906,1108
4844,913,1107
4845,912,1103
4846,914,1095
4847,920,1087
4848,927,1084
4849,938,1083
4850,944,1079
4851,947,1075
4852,951,1071
4853,958,1064
4854,964,1062
4855,971,1061
4856,974,1060
4857,974,1059
4858,975,1055
4859,977,1051
4860,982,1051
4861,987,1052
4862,985,1052
4863,982,1051
4864,980,1047
4865,982,1044
4866,984,1048
4867,989,1047
4868,987,1050
4869,983,1049
4870,983,1043
4871,986,1042
4872,989,1045
4873,992,1046
4874,992,1047
4875,989,1048
4876,986,1045
4877,990,1043
4878,992,1044
4879,994,1044
4880,992,1050
4881,989,1046
4882,989,1045
4883,991,1041
4884,992,1043
4885,993,1046
4886,994,1048
4887,991,1049
4888,987,1045
4889,991,1042
4890,992,1046
4891,994,1048
4892,997,1050
4893,992,1047
4894,995,1047
4895,998,1045
4896,999,1047
4897,1001,1047
4898,1001,1048
4899,997,1046
4900,999,1046
4901,998,1044
4902,1002,1045
4903,1002,1049
4904,1005,1047
4905,1002,1043
4906,1002,1043
4907,1003,1042
4908,1004,1043
4909,1007,1045
4910,1009,1046
4911,1007,1047
4912,1005,1043
4913,1008,1042
4914,1011,1045
4915,1012,1046
4916,1009,1050
4917,1013,1050
4918,1018,1046
4919,1022,1044
4920,1028,1048
4921,1035,1044
4922,1043,1043
4923,1051,1038
4924,1061,1032
4925,1072,1023
4926,1087,1015
4927,1098,1005
4928,1112,995
4929,1127,979
4930,1140,955
4931,1154,934
4932,1171,914
4933,1189,899
4934,1202,889
4935,1210,875
4936,1218,862
4937,1230,847
4938,1249,839
4939,1272,828
4940,1282,824
4941,1295,820
4942,1312,814
4943,1330,810
4944,1348,814
4945,1353,819
4946,1348,830
4947,1332,840
4948,1314,849
4949,1302,860
4950,1293,874
4951,1286,894
4952,1282,915
4953,1278,932
4954,1269,944
4955,1262,952
4956,1256,962
4957,1256,969
4958,1249,976
4959,1243,978
4960,1240,982
4961,1241,982
4962,1237,985
4963,1230,984
4964,1210,988
4965,1183,990
4966,1150,994
4967,1120,1001
4968,1085,1009
4969,1048,1026
4970,1017,1040
4971,989,1054
4972,963,1058
4973,954,1065
4974,946,1070
4975,946,1075
4976,940,1082
4977,934,1086
4978,929,1084
4979,924,1084
4980,920,1088
4981,920,1091
4982,917,1098
4983,912,1097
4984,906,1097
4985,905,1098
4986,907,1100
4987,907,1104
4988,904,1107
4989,898,1110
4990,891,1111
4991,888,1112
4992,891,1114
4993,890,1120
4994,891,1124
4995,886,1126
4996,878,1127
4997,878,1129
4998,876,1133
4999,877,1138
5000,876,1141
5001,871,1141
5002,868,1144
5003,863,1144
5004,862,1148
5005,862,1153
5006,862,1158
5007,856,1161
5008,850,1162
5009,851,1161
5010,851,1164
5011,851,1170
5012,852,1169
5013,848,1170
5014,845,1171
5015,844,1168
5016,844,1169
5017,847,1170
5018,847,1171
5019,845,1171
5020,843,1164
5021,843,1161
5022,844,1159
5023,848,1160
5024,854,1153
5025,856,1150
5026,856,1141
5027,860,1139
5028,867,1132
5029,872,1129
5030,880,1124
5031,882,1117
5032,886,1110
5033,897,1100
5034,906,1095
5035,914,1092
5036,924,1089
5037,927,1081
5038,931,1074
5039,935,1067
5040,948,1064
5041,958,1063
5042,963,1060
5043,969,1056
5044,971,1053
5045,977,1050
5046,982,1047
5047,991,1047
5048,994,1049
5049,995,1046
5050,994,1044
5051,998,1041
5052,1000,1041
5053,1002,1043
5054,1005,1044
5055,1001,1044
5056,996,1041
5057,998,1042
5058,1001,1039
5059,1004,1045
5060,1002,1046
5061,1002,1043
5062,997,1040
5063,997,1039
5064,1001,1039
5065,1005,1042
5066,1004,1044
5067,1001,1044
5068,999,1042
5069,997,1042
5070,999,1042
5071,1002,1043
5072,1003,1045
5073,997,1044
5074,994,1041
5075,997,1039
5076,1002,1041
5077,1004,1043
5078,1007,1046
5079,1000,1045
5080,1001,1043
5081,1001,1041
5082,1005,1044
5083,1009,1043
5084,1009,1045
5085,1005,1044
5086,1007,1042
5087,1006,1042
5088,1009,1042
5089,1012,1045
5090,1012,1045
5091,1009,1044
5092,1010,1045
5093,1012,1043
5094,1015,1040
5095,1019,1044
5096,1018,1047
5097,1012,1044
5098,1009,1042
5099,1008,1039
5100,1015,1041
5101,1018,1041
5102,1019,1045
5103,1017,1041
5104,1013,1041
5105,1011,1039
5106,1016,1040
5107,1020,1040
5108,1020,1043
5109,1018,1041
5110,1016,1039
5111,1014,1037
5112,1018,1038
5113,1021,1038
5114,1021,1042
5115,1015,1038
5116,1012,1036
5117,1013,1037
5118,1017,1037
5119,1017,1039
5120,1018,1039
5121,1013,1040
5122,1010,1038
5123,1011,1035
5124,1016,1034
5125,1021,1038
5126,1020,1038
5127,1018,1039
5128,1016,1035
5129,1014,1031
5130,1017,1033
5131,1023,1036
5132,1022,1036
5133,1019,1037
5134,1015,1034
5135,1016,1031
5136,1020,1034
5137,1024,1036
5138,1023,1037
5139,1020,1036
5140,1019,1034
5141,1020,1035
5142,1025,1034
5143,1027,1038
5144,1031,1040
5145,1028,1041
5146,1029,1041
5147,1033,1040
5148,1037,1041
5149,1043,1045
5150,1045,1047
5151,1045,1044
5152,1052,1040
5153,1057,1032
5154,1059,1027
5155,1060,1026
5156,1057,1028
5157,1049,1027
5158,1046,1026
5159,1045,1022
5160,1042,1023
5161,1039,1023
5162,1036,1026
5163,1028,1028
5164,1024,1027
5165,1023,1029
5166,1024,1027
5167,1024,1028
5168,1023,1030
5169,1020,1029
5170,1018,1026
5171,1018,1026
5172,1020,1025
5173,1027,1027
5174,1023,1029
5175,1023,1027
5176,1020,1023
5177,1021,1023
5178,1023,1024
5179,1027,1028
5180,1025,1027
5181,1023,1025
5182,1018,1023
5183,1019,1019
5184,1022,1021
5185,1019,1019
5186,1017,1020
5187,1015,1019
5188,1026,1018
5189,1050,1013
5190,1079,999
5191,1118,985
5192,1162,972
5193,1209,961
5194,1262,954
5195,1314,942
5196,1360,939
5197,1381,949
5198,1348,967
5199,1269,984
5200,1188,989
5201,1118,991
5202,1073,993
5203,1053,995
5204,1042,1000
5205,1027,1007
5206,1013,1012
5207,1008,1015
5208,1012,1021
5209,1020,1026
5210,1020,1032
5211,1014,1035
5212,1011,1034
5213,1007,1032
5214,1007,1032
5215,1006,1038
5216,1006,1038
5217,1003,1039
5218,999,1037
5219,1001,1035
5220,1004,1036
5221,1007,1041
5222,1004,1044
5223,1003,1040
5224,1004,1040
5225,1003,1037
5226,1002,1039
5227,1008,1039
5228,1007,1041
5229,1005,1041
5230,1001,1040
5231,1002,1038
5232,1005,1040
5233,1009,1041
5234,1012,1042
5235,1009,1042
5236,1004,1040
5237,1009,1039
5238,1008,1038
5239,1012,1037
5240,1016,1042
5241,1011,1038
5242,1012,1033
5243,1014,1031
5244,1016,1033
5245,1021,1032
5246,1021,1033
5247,1018,1031
5248,1022,1027
5249,1026,1025
5250,1026,1023
5251,1036,1022
5252,1036,1022
5253,1033,1022
5254,1034,1017
5255,1037,1012
5256,1043,1009
5257,1050,1009
5258,1050,1010
5259,1051,1007
5260,1052,1001
5261,1058,996
5262,1062,995
5263,1068,993
5264,1074,992
5265,1071,991
5266,1073,984
5267,1076,980
5268,1077,981
5269,1081,980
5270,1084,980
5271,1084,978
5272,1084,976
5273,1089,974
5274,1092,975
5275,1096,977
5276,1095,980
5277,1092,976
5278,1092,975
5279,1094,975
5280,1098,981
5281,1097,986
5282,1093,992
5283,1085,996
5284,1080,996
5285,1078,999
5286,1076,1003
5287,1072,1010
5288,1066,1018
5289,1059,1020
5290,1051,1024
5291,1049,1023
5292,1047,1029
5293,1045,1032
5294,1042,1040
5295,1034,1045
5296,1026,1042
5297,1025,1042
5298,1024,1044
5299,1023,1046
5300,1021,1053
5301,1016,1051
5302,1012,1051
5303,1010,1050
5304,1011,1051
5305,1012,1053
5306,1006,1056
5307,1000,1054
5308,998,1052
5309,998,1053
5310,1001,1052
5311,1007,1056
5312,1010,1058
5313,1007,1055
5314,1008,1055
5315,1007,1055
5316,1008,1053
5317,1013,1051
5318,1013,1057
5319,1008,1056
5320,1006,1054
5321,1006,1053
5322,1010,1054
5323,1013,1056
5324,1011,1058
5325,1009,1055
5326,1006,1053
5327,1006,1050
5328,1011,1049
5329,1008,1051
5330,1010,1054
5331,1005,1053
5332,1003,1049
5333,1003,1046
5334,1009,1048
5335,1011,1049
5336,1011,1050
5337,1008,1050
5338,1005,1048
5339,1008,1048
5340,1009,1048
5341,1011,1051
5342,1010,1051
5343,1006,1050
5344,1007,1049
5345,1006,1047
5346,1009,1047
5347,1006,1049
5348,1005,1050
5349,1003,1049
5350,1003,1049
5351,1003,1046
5352,1005,1047
5353,1008,1050
5354,1010,1054
5355,1010,1054
5356,1012,1053
5357,1014,1053
5358,1015,1053
5359,1020,1056
5360,1025,1058
5361,1025,1056
5362,1025,1055
5363,1027,1049
5364,1034,1047
5365,1037,1050
5366,1037,1049
5367,1033,1046
5368,1030,1038
5369,1032,1035
5370,1033,1035
5371,1031,1039
5372,1028,1041
5373,1020,1043
5374,1016,1043
5375,1012,1042
5376,1009,1043
5377,1009,1047
5378,1006,1053
5379,1003,1054
5380,1003,1052
5381,1006,1047
5382,1015,1041
5383,1023,1035
5384,1031,1029
5385,1036,1020
5386,1048,1009
5387,1063,994
5388,1080,987
5389,1098,975
5390,1108,962
5391,1116,941
5392,1128,921
5393,1142,904
5394,1159,888
5395,1174,878
5396,1185,867
5397,1195,853
5398,1208,837
5399,1227,822
5400,1251,814
5401,1266,809
5402,1279,805
5403,1295,794
5404,1310,785
5405,1332,779
5406,1342,782
5407,1355,792
5408,1357,803
5409,1363,806
5410,1370,806
5411,1382,801
5412,1398,807
5413,1411,820
5414,1423,839
5415,1436,860
5416,1440,873
5417,1418,887
5418,1365,911
5419,1292,943
5420,1224,972
5421,1162,998
5422,1099,1020
5423,1054,1030
5424,1022,1041
5425,999,1052
5426,984,1061
5427,968,1069
5428,959,1073
5429,955,1077
5430,953,1081
5431,953,1088
5432,948,1090
5433,942,1096
5434,936,1096
5435,935,1096
5436,934,1097
5437,933,1101
5438,931,1105
5439,925,1108
5440,923,1105
5441,923,1106
5442,925,1109
5443,926,1112
5444,925,1115
5445,918,1116
5446,915,1114
5447,911,1116
5448,918,1118
5449,919,1122
5450,918,1127
5451,912,1126
5452,908,1128
5453,906,1129
5454,907,1128
5455,910,1134
5456,906,1135
5457,899,1138
5458,895,1140
5459,895,1137
5460,897,1144
5461,899,1147
5462,897,1153
5463,892,1156
5464,888,1153
5465,884,1157
5466,888,1160
5467,890,1165
5468,891,1169
5469,886,1171
5470,879,1169
5471,879,1169
5472,882,1171
5473,885,1177
5474,886,1181
5475,885,1181
5476,881,1177
5477,882,1178
5478,885,1177
5479,886,1181
5480,886,1180
5481,887,1178
5482,885,1175
5483,889,1171
5484,893,1171
5485,897,1170
5486,899,1168
5487,897,1163
5488,898,1157
5489,904,1152
5490,909,1149
5491,914,1144
5492,919,1139
5493,919,1134
5494,919,1127
5495,927,1121
5496,934,1117
5497,942,1114
5498,946,1110
5499,946,1102
5500,948,1096
5501,950,1091
5502,958,1083
5503,964,1085
5504,969,1082
5505,971,1076
5506,971,1073
5507,974,1067
5508,976,1066
5509,983,1068
5510,988,1066
5511,987,1063
5512,984,1060
5513,985,1060
5514,987,1058
5515,990,1063
5516,990,1062
5517,984,1059
5518,987,1057
5519,984,1057
5520,989,1058
5521,990,1060
5522,991,1063
5523,987,1063
5524,982,1058
5525,986,1056
5526,990,1057
5527,992,1059
5528,992,1058
5529,988,1060
5530,988,1057
5531,990,1056
5532,992,1056
5533,992,1058
5534,996,1060
5535,992,1059
5536,990,1055
5537,990,1056
5538,992,1058
5539,995,1060
5540,997,1060
5541,993,1059
5542,993,1055
5543,996,1052
5544,1002,1047
5545,1009,1050
5546,1016,1048
5547,1018,1042
5548,1023,1034
5549,1028,1023
5550,1036,1018
5551,1055,1011
5552,1071,1002
5553,1083,991
5554,1096,976
5555,1112,961
5556,1129,948
5557,1147,937
5558,1165,928
5559,1181,917
5560,1201,902
5561,1214,890
5562,1229,879
5563,1248,872
5564,1261,867
5565,1272,861
5566,1279,858
5567,1300,854
5568,1322,854
5569,1333,859
5570,1331,862
5571,1317,875
5572,1306,881
5573,1296,893
5574,1290,910
5575,1283,925
5576,1275,945
5577,1269,962
5578,1262,969
5579,1253,975
5580,1250,977
5581,1247,983
5582,1242,989
5583,1237,988
5584,1234,989
5585,1233,987
5586,1221,990
5587,1203,987
5588,1181,991
5589,1149,994
5590,1111,1001
5591,1074,1014
5592,1046,1031
5593,1023,1046
5594,1004,1056
5595,989,1063
5596,977,1067
5597,970,1068
5598,967,1072
5599,963,1078
5600,955,1080
5601,946,1085
5602,934,1083
5603,928,1085
5604,927,1090
5605,924,1097
5606,919,1099
5607,915,1101
5608,906,1099
5609,905,1098
5610,905,1100
5611,904,1105
5612,903,1105
5613,898,1108
5614,896,1105
5615,892,1106
5616,893,1106
5617,895,1112
5618,893,1115
5619,887,1116
5620,881,1115
5621,880,1115
5622,882,1118
5623,881,1121
5624,879,1124
5625,875,1123
5626,869,1123
5627,868,1122
5628,867,1126
5629,870,1128
5630,870,1132
5631,868,1134
5632,865,1131
5633,861,1131
5634,864,1133
5635,866,1138
5636,862,1139
5637,857,1140
5638,855,1138
5639,853,1134
5640,857,1134
5641,859,1137
5642,858,1138
5643,856,1136
5644,856,1133
5645,857,1128
5646,862,1129
5647,868,1127
5648,868,1128
5649,867,1125
5650,867,1120
5651,872,1116
5652,881,1114
5653,888,1112
5654,892,1108
5655,893,1106
5656,897,1104
5657,901,1095
5658,906,1091
5659,913,1093
5660,917,1088
5661,918,1084
5662,924,1080
5663,932,1073
5664,939,1071
5665,948,1074
5666,953,1071
5667,954,1068
5668,956,1062
5669,960,1060
5670,965,1059
5671,971,1059
5672,972,1060
5673,971,1057
5674,969,1054
5675,970,1051
5676,975,1053
5677,978,1053
5678,980,1057
5679,975,1055
5680,974,1052
5681,975,1052
5682,978,1055
5683,979,1055
5684,980,1054
5685,978,1054
5686,975,1052
5687,976,1051
5688,979,1051
5689,983,1055
5690,979,1056
5691,979,1054
5692,977,1049
5693,979,1049
5694,983,1049
5695,986,1051
5696,986,1052
5697,981,1053
5698,977,1051
5699,980,1047
5700,981,1050
5701,985,1050
5702,987,1052
5703,984,1049
5704,984,1047
5705,987,1046
5706,987,1046
5707,990,1049
5708,987,1049
5709,988,1048
5710,984,1047
5711,986,1042
5712,986,1048
5713,990,1048
5714,990,1051
5715,990,1049
5716,988,1047
5717,988,1045
5718,991,1046
5719,994,1048
5720,992,1049
5721,992,1048
5722,989,1045
5723,992,1044
5724,995,1045
5725,996,1048
5726,995,1050
5727,992,1048
5728,992,1043
5729,993,1044
5730,996,1045
5731,998,1046
5732,998,1048
5733,996,1047
5734,993,1042
5735,993,1042
5736,995,1040
5737,994,1045
5738,996,1047
5739,996,1046
5740,994,1045
5741,992,1040
5742,991,1045
5743,995,1046
5744,997,1045
5745,994,1045
5746,992,1043
5747,992,1040
5748,995,1044
5749,997,1046
5750,996,1050
5751,996,1047
5752,996,1041
5753,995,1039
5754,995,1041
5755,996,1046
5756,997,1044
5757,997,1043
5758,996,1042
5759,995,1041
5760,997,1043
5761,999,1043
5762,999,1043
5763,993,1044
5764,995,1043
5765,995,1041
5766,999,1043
5767,1000,1044
5768,998,1045
5769,995,1044
5770,993,1042
5771,995,1040
5772,1000,1040
5773,1001,1044
5774,1001,1046
5775,998,1043
5776,998,1042
5777,999,1040
5778,1000,1042
5779,1004,1042
5780,1004,1042
5781,999,1043
5782,994,1038
5783,998,1039
5784,1002,1043
5785,1002,1044
5786,1002,1044
5787,998,1042
5788,998,1039
5789,1000,1037
5790,999,1037
5791,1000,1042
5792,999,1041
5793,995,1041
5794,996,1039
5795,999,1040
5796,1003,1039
5797,1002,1043
5798,1001,1043
5799,1002,1043
5800,999,1037
5801,999,1037
5802,1003,1039
5803,1005,1041
5804,1005,1043
5805,1001,1042
5806,997,1041
5807,1000,1038
5808,1004,1038
5809,1007,1043
5810,1008,1043
5811,1004,1040
5812,1001,1041
5813,1002,1039
5814,1005,1038
5815,1009,1040
5816,1004,1041
5817,1002,1042
5818,998,1039
5819,1001,1038
5820,1005,1041
5821,1008,1041
5822,1006,1044
5823,1001,1043
5824,1001,1041
5825,999,1040
5826,1002,1043
5827,999,1043
5828,1001,1045
5829,1001,1046
5830,1000,1041
5831,999,1042
5832,1002,1042
5833,1004,1043
5834,1003,1045
5835,1001,1048
5836,999,1044
5837,1000,1042
5838,1003,1043
5839,1007,1046
5840,1008,1051
5841,1009,1053
5842,1007,1051
5843,1008,1050
5844,1010,1052
5845,1012,1054
5846,1016,1057
5847,1019,1055
5848,1018,1051
5849,1022,1050
5850,1027,1049
5851,1031,1045
5852,1031,1044
5853,1027,1040
5854,1026,1036
5855,1026,1036
5856,1027,1038
5857,1026,1039
5858,1024,1039
5859,1021,1036
5860,1015,1035
5861,1014,1035
5862,1013,1035
5863,1013,1039
5864,1009,1038
5865,1006,1041
5866,1003,1042
5867,1000,1038
5868,1003,1040
5869,1001,1041
5870,1000,1042
5871,996,1043
5872,998,1040
5873,996,1036
5874,1000,1039
5875,1003,1038
5876,1002,1042
5877,998,1042
5878,996,1038
5879,997,1037
5880,999,1040
5881,1001,1041
5882,998,1043
5883,1000,1041
5884,996,1038
5885,997,1038
5886,1001,1035
5887,999,1035
5888,996,1036
5889,996,1039
5890,1006,1037
5891,1029,1030
5892,1057,1019
5893,1094,1006
5894,1137,996
5895,1192,990
5896,1246,987
5897,1291,980
5898,1332,975
5899,1359,977
5900,1350,986
5901,1299,1001
5902,1235,1005
5903,1164,1009
5904,1092,1013
5905,1039,1017
5906,1007,1016
5907,994,1015
5908,994,1013
5909,990,1019
5910,988,1027
5911,987,1035
5912,990,1039
5913,988,1043
5914,988,1041
5915,985,1044
5916,987,1045
5917,986,1048
5918,984,1048
5919,980,1048
5920,973,1047
5921,974,1046
5922,975,1045
5923,979,1049
5924,977,1050
5925,976,1050
5926,971,1048
5927,972,1045
5928,975,1046
5929,976,1048
5930,979,1050
5931,976,1048
5932,977,1046
5933,979,1049
5934,980,1049
5935,982,1050
5936,979,1048
5937,978,1045
5938,975,1045
5939,978,1042
5940,976,1041
5941,982,1044
5942,981,1046
5943,980,1044
5944,977,1041
5945,978,1037
5946,982,1038
5947,984,1040
5948,985,1038
5949,984,1038
5950,980,1037
5951,983,1035
5952,988,1035
5953,990,1037
5954,990,1039
5955,987,1036
5956,986,1033
5957,987,1030
5958,993,1032
5959,996,1031
5960,997,1033
5961,995,1030
5962,997,1026
5963,1000,1022
5964,1007,1022
5965,1008,1023
5966,1009,1021
5967,1008,1019
5968,1008,1015
5969,1011,1013
5970,1017,1012
5971,1019,1009
5972,1022,1011
5973,1022,1008
5974,1022,1004
5975,1024,1002
5976,1029,1001
5977,1033,1002
5978,1035,1001
5979,1031,999
5980,1034,993
5981,1033,992
5982,1040,993
5983,1043,994
5984,1041,995
5985,1042,994
5986,1040,992
5987,1044,989
5988,1046,992
5989,1051,994
5990,1050,995
5991,1048,997
5992,1048,996
5993,1048,996
5994,1052,1002
5995,1054,1005
5996,1050,1008
5997,1045,1010
5998,1042,1011
5999,1038,1012
6000,1038,1016
6001,1036,1023
6002,1033,1026
6003,1028,1030
6004,1019,1031
6005,1017,1034
6006,1018,1037
6007,1016,1043
6008,1009,1045
6009,1004,1048
6010,995,1050
6011,994,1048
6012,994,1051
6013,994,1057
6014,995,1058
6015,987,1057
6016,984,1056
6017,983,1057
6018,987,1061
6019,987,1062
6020,987,1064
6021,983,1064
6022,980,1061
6023,978,1061
6024,978,1062
6025,979,1064
6026,980,1063
6027,980,1065
6028,977,1060
6029,979,1060
6030,982,1062
6031,983,1064
6032,981,1064
6033,977,1062
6034,976,1062
6035,977,1059
6036,980,1061
6037,981,1065
6038,982,1066
6039,978,1063
6040,977,1061
6041,979,1061
6042,981,1060
6043,983,1063
6044,980,1063
6045,977,1062
6046,975,1060
6047,978,1056
6048,982,1056
6049,982,1060
6050,982,1060
6051,978,1060
6052,976,1055
6053,978,1052
6054,982,1057
6055,983,1058
6056,980,1059
6057,979,1059
6058,978,1055
6059,980,1056
6060,981,1056
6061,984,1057
6062,982,1058
6063,979,1057
6064,978,1056
6065,980,1055
6066,983,1055
6067,982,1059
6068,984,1063
6069,984,1061
6070,986,1064
6071,989,1064
6072,991,1067
6073,994,1071
6074,995,1075
6075,993,1076
6076,1000,1071
6077,1007,1068
6078,1014,1068
6079,1022,1066
6080,1021,1064
6081,1025,1056
6082,1030,1046
6083,1040,1035
6084,1048,1030
6085,1057,1026
6086,1061,1022
6087,1067,1008
6088,1077,990
6089,1091,966
6090,1110,946
6091,1122,929
6092,1132,912
6093,1139,899
6094,1149,886
6095,1159,873
6096,1176,862
6097,1191,851
6098,1206,832
6099,1219,823
6100,1231,811
6101,1241,805
6102,1256,801
6103,1273,796
6104,1287,790
6105,1294,789
6106,1295,792
6107,1293,800
6108,1287,811
6109,1275,827
6110,1263,843
6111,1249,861
6112,1236,878
6113,1230,902
6114,1226,928
6115,1220,951
6116,1212,963
6117,1199,977
6118,1192,981
6119,1186,986
6120,1183,994
6121,1180,999
6122,1170,1003
6123,1166,1002
6124,1162,1003
6125,1161,1004
6126,1153,1006
6127,1144,1009
6128,1123,1014
6129,1096,1018
6130,1060,1029
6131,1023,1041
6132,991,1057
6133,961,1074
6134,938,1085
6135,917,1092
6136,905,1098
6137,897,1099
6138,896,1104
6139,895,1109
6140,892,1112
6141,884,1115
6142,877,1115
6143,875,1115
6144,875,1116
6145,874,1121
6146,872,1126
6147,867,1126
6148,862,1124
6149,864,1125
6150,864,1128
6151,864,1132
6152,860,1138
6153,858,1138
6154,854,1136
6155,856,1140
6156,856,1141
6157,854,1145
6158,854,1151
6159,849,1151
6160,843,1154
6161,843,1156
6162,845,1158
6163,844,1164
6164,841,1167
6165,837,1171
6166,835,1171
6167,829,1174
6168,831,1177
6169,832,1183
6170,828,1187
6171,824,1188
6172,823,1189
6173,822,1190
6174,823,1194
6175,821,1197
6176,820,1200
6177,814,1201
6178,811,1200
6179,811,1200
6180,813,1204
6181,814,1206
6182,810,1210
6183,804,1207
6184,805,1202
6185,806,1199
6186,810,1198
6187,811,1198
6188,812,1197
6189,812,1189
6190,813,1186
6191,814,1180
6192,818,1175
6193,821,1172
6194,824,1170
6195,827,1163
6196,833,1156
6197,840,1147
6198,847,1145
6199,851,1142
6200,855,1138
6201,861,1129
6202,864,1120
6203,870,1114
6204,878,1110
6205,885,1108
6206,891,1106
6207,894,1099
6208,900,1091
6209,909,1088
6210,917,1089
6211,921,1090
6212,921,1090
6213,921,1089
6214,921,1083
6215,925,1081
6216,930,1083
6217,933,1086
6218,934,1084
6219,932,1084
6220,929,1083
6221,929,1081
6222,932,1082
6223,933,1083
6224,933,1085
6225,931,1084
6226,931,1081
6227,931,1078
6228,930,1080
6229,933,1081
6230,935,1082
6231,934,1081
6232,931,1078
6233,931,1076
6234,935,1082
6235,933,1082
6236,929,1084
6237,925,1081
6238,923,1078
6239,925,1080
6240,928,1080
6241,928,1082
6242,923,1085
6243,919,1086
6244,918,1087
6245,918,1087
6246,919,1087
6247,921,1091
6248,921,1092
6249,924,1090
6250,926,1087
6251,932,1089
6252,940,1095
6253,948,1102
6254,954,1101
6255,956,1101
6256,952,1096
6257,953,1095
6258,958,1094
6259,962,1093
6260,965,1089
6261,966,1089
6262,967,1084
6263,971,1081
6264,977,1082
6265,976,1083
6266,974,1085
6267,970,1083
6268,969,1080
6269,972,1080
6270,978,1080
6271,983,1080
6272,983,1080
6273,982,1077
6274,978,1076
6275,976,1073
6276,979,1075
6277,983,1077
6278,987,1079
6279,988,1077
6280,993,1071
6281,995,1067
6282,999,1066
6283,1000,1066
6284,1004,1057
6285,1007,1052
6286,1008,1044
6287,1016,1032
6288,1026,1021
6289,1038,1008
6290,1050,992
6291,1063,969
6292,1080,943
6293,1097,921
6294,1115,901
6295,1134,890
6296,1149,874
6297,1163,856
6298,1179,841
6299,1199,825
6300,1219,813
6301,1242,808
6302,1256,803
6303,1272,796
6304,1287,788
6305,1300,787
6306,1307,792
6307,1303,802
6308,1299,815
6309,1284,827
6310,1268,835
6311,1257,854
6312,1255,878
6313,1257,905
6314,1256,925
6315,1247,941
6316,1237,950
6317,1231,961
6318,1225,974
6319,1217,984
6320,1209,991
6321,1204,1000
6322,1200,1006
6323,1204,1011
6324,1204,1012
6325,1194,1018
6326,1170,1020
6327,1132,1030
6328,1087,1042
6329,1042,1061
6330,999,1079
6331,964,1100
6332,931,1115
6333,903,1120
6334,889,1125
6335,881,1131
6336,880,1136
6337,879,1142
6338,876,1145
6339,869,1146
6340,862,1147
6341,858,1149
6342,855,1158
6343,853,1167
6344,850,1175
6345,841,1183
6346,836,1189
6347,843,1196
6348,847,1194
6349,846,1193
6350,844,1191
6351,839,1184
6352,837,1180
6353,837,1175
6354,842,1174
6355,839,1179
6356,838,1178
6357,835,1175
6358,830,1170
6359,830,1170
6360,829,1173
6361,826,1176
6362,827,1177
6363,823,1177
6364,819,1177
6365,818,1177
6366,816,1180
6367,815,1182
6368,809,1188
6369,802,1190
6370,801,1189
6371,802,1189
6372,805,1192
6373,807,1198
6374,804,1201
6375,797,1203
6376,794,1202
6377,798,1197
6378,802,1201
6379,801,1201
6380,803,1203
6381,799,1200
6382,798,1196
6383,804,1192
6384,811,1188
6385,815,1187
6386,818,1183
6387,819,1182
6388,821,1176
6389,824,1166
6390,831,1161
6391,837,1155
6392,843,1150
6393,850,1138
6394,856,1128
6395,865,1116
6396,877,1107
6397,885,1104
6398,892,1098
6399,895,1087
6400,902,1074
6401,911,1067
6402,919,1060
6403,928,1055
6404,933,1052
6405,934,1046
6406,933,1038
6407,939,1035
6408,943,1034
6409,947,1033
6410,951,1032
6411,951,1028
6412,951,1027
6413,954,1023
6414,954,1026
6415,954,1033
6416,954,1034
6417,950,1031
6418,946,1028
6419,950,1028
6420,948,1031
6421,946,1031
6422,941,1035
6423,935,1033
6424,932,1034
6425,933,1031
6426,936,1033
6427,939,1036
6428,936,1038
6429,932,1039
6430,927,1037
6431,929,1037
6432,930,1042
6433,932,1043
6434,931,1043
6435,930,1042
6436,926,1039
6437,928,1035
6438,928,1036
6439,929,1040
6440,925,1042
6441,923,1040
6442,920,1038
6443,920,1037
6444,922,1041
6445,926,1042
6446,928,1044
6447,924,1043
6448,924,1041
6449,925,1039
6450,929,1038
6451,931,1042
6452,930,1044
6453,928,1044
6454,927,1040
6455,931,1040
6456,934,1043
6457,934,1048
6458,931,1046
6459,928,1039
6460,927,1036
6461,927,1032
6462,933,1035
6463,937,1037
6464,936,1040
6465,934,1037
6466,931,1035
6467,930,1034
6468,932,1033
6469,932,1036
6470,933,1033
6471,930,1034
6472,931,1030
6473,931,1032
6474,933,1032
6475,933,1033
6476,933,1034
6477,929,1033
6478,928,1031
6479,931,1030
6480,938,1031
6481,941,1036
6482,939,1036
6483,936,1036
6484,936,1037
6485,939,1036
6486,942,1039
6487,943,1041
6488,942,1043
6489,944,1043
6490,947,1038
6491,953,1036
6492,954,1036
6493,951,1039
6494,949,1039
6495,946,1034
6496,943,1034
6497,947,1029
6498,950,1032
6499,947,1033
6500,950,1033
6501,944,1031
6502,941,1027
6503,941,1025
6504,945,1026
6505,950,1027
6506,953,1023
6507,952,1024
6508,949,1021
6509,946,1019
6510,947,1018
6511,949,1020
6512,950,1018
6513,949,1016
6514,947,1010
6515,954,1010
6516,960,1008
6517,962,1014
6518,959,1012
6519,956,1012
6520,957,1013
6521,964,1011
6522,973,1013
6523,976,1017
6524,977,1018
6525,973,1015
6526,976,1013
6527,982,1010
6528,989,1009
6529,999,1011
6530,1002,1010
6531,999,1009
6532,997,1002
6533,998,996
6534,1001,992
6535,1001,996
6536,1000,995
6537,994,996
6538,993,994
6539,992,995
6540,990,996
6541,990,996
6542,986,996
6543,974,997
6544,967,996
6545,969,999
6546,970,1001
6547,972,1005
6548,969,1006
6549,963,1005
6550,960,1002
6551,958,1003
6552,964,1005
6553,963,1010
6554,963,1009
6555,961,1011
6556,958,1009
6557,959,1004
6558,963,1008
6559,965,1009
6560,967,1010
6561,964,1010
6562,962,1006
6563,958,1005
6564,960,1007
6565,964,1007
6566,964,1006
6567,963,1002
6568,962,996
6569,963,1000
6570,971,1003
6571,991,998
6572,1015,985
6573,1044,962
6574,1079,946
6575,1123,928
6576,1184,924
6577,1249,922
6578,1303,920
6579,1332,928
6580,1312,946
6581,1262,967
6582,1197,990
6583,1128,1005
6584,1056,1008
6585,998,998
6586,970,983
6587,971,978
6588,980,980
6589,983,987
6590,982,993
6591,979,997
6592,986,994
6593,987,993
6594,987,996
6595,980,1000
6596,975,1002
6597,970,1000
6598,963,999
6599,965,998
6600,965,999
6601,965,1001
6602,968,998
6603,964,998
6604,957,994
6605,959,991
6606,968,991
6607,976,992
6608,980,990
6609,986,988
6610,986,984
6611,980,986
6612,976,990
6613,977,992
6614,978,994
6615,974,994
6616,967,993
6617,963,991
6618,972,990
6619,983,991
6620,974,994
6621,948,997
6622,933,997
6623,935,998
6624,951,996
6625,960,997
6626,960,998
6627,957,1001
6628,958,994
6629,962,992
6630,964,995
6631,958,1001
6632,953,999
6633,951,999
6634,957,997
6635,969,996
6636,976,994
6637,984,996
6638,986,994
6639,986,992
6640,986,988
6641,987,992
6642,994,993
6643,1000,993
6644,1004,992
6645,1005,989
6646,1004,984
6647,1006,974
6648,1009,971
6649,1013,970
6650,1016,966
6651,1021,959
6652,1025,953
6653,1031,950
6654,1031,951
6655,1034,953
6656,1030,953
6657,1032,952
6658,1037,943
6659,1051,941
6660,1063,941
6661,1066,944
6662,1055,948
6663,1035,950
6664,1025,952
6665,1026,955
6666,1031,959
6667,1034,965
6668,1032,969
6669,1028,972
6670,1024,977
6671,1025,977
6672,1023,986
6673,1021,994
6674,1014,997
6675,1006,1002
6676,1002,1004
6677,995,1007
6678,995,1013
6679,997,1020
6680,997,1024
6681,1000,1024
6682,1005,1023
6683,1013,1022
6684,1018,1023
6685,1008,1028
6686,990,1031
6687,972,1032
6688,960,1036
6689,952,1042
6690,942,1048
6691,938,1051
6692,942,1051
6693,944,1051
6694,948,1050
6695,950,1049
6696,955,1051
6697,961,1047
6698,964,1042
6699,965,1036
6700,968,1029
6701,968,1030
6702,970,1035
6703,970,1038
6704,967,1036
6705,963,1035
6706,958,1027
6707,958,1026
6708,961,1025
6709,964,1027
6710,963,1028
6711,961,1027
6712,962,1025
6713,965,1026
6714,966,1026
6715,969,1030
6716,971,1031
6717,971,1034
6718,975,1033
6719,981,1032
6720,987,1036
6721,991,1036
6722,992,1038
6723,991,1037
6724,989,1035
6725,993,1032
6726,995,1034
6727,1005,1034
6728,1007,1035
6729,1008,1029
6730,999,1023
6731,998,1019
6732,1009,1015
6733,1019,1017
6734,1019,1017
6735,1005,1020
6736,989,1021
6737,992,1017
6738,997,1019
6739,988,1026
6740,968,1031
6741,946,1034
6742,941,1035
6743,951,1034
6744,959,1032
6745,958,1032
6746,952,1030
6747,949,1031
6748,950,1025
6749,952,1024
6750,956,1021
6751,956,1025
6752,955,1029
6753,949,1032
6754,944,1031
6755,943,1030
6756,948,1031
6757,951,1037
6758,949,1045
6759,947,1045
6760,950,1046
6761,961,1037
6762,966,1029
6763,972,1018
6764,983,1002
6765,995,981
6766,1008,958
6767,1023,943
6768,1052,925
6769,1100,901
6770,1146,874
6771,1195,845
6772,1252,818
6773,1323,805
6774,1392,798
6775,1445,795
6776,1474,803
6777,1462,824
6778,1404,854
6779,1321,888
6780,1227,921
6781,1131,951
6782,1056,968
6783,1015,978
6784,994,985
6785,983,993
6786,972,1004
6787,961,1016
6788,951,1024
6789,945,1025
6790,944,1026
6791,949,1025
6792,958,1031
6793,963,1031
6794,973,1032
6795,983,1027
6796,991,1026
6797,977,1031
6798,938,1042
6799,900,1054
6800,886,1054
6801,901,1055
6802,915,1057
6803,923,1060
6804,921,1062
6805,924,1059
6806,927,1057
6807,929,1058
6808,921,1056
6809,917,1045
6810,918,1034
6811,927,1029
6812,931,1036
6813,937,1050
6814,937,1057
6815,935,1055
6816,927,1048
6817,923,1041
6818,922,1042
6819,921,1048
6820,918,1054
6821,918,1059
6822,917,1066
6823,920,1063
6824,927,1053
6825,931,1045
6826,936,1041
6827,941,1044
6828,940,1054
6829,938,1057
6830,939,1058
6831,936,1057
6832,934,1056
6833,936,1058
6834,945,1061
6835,952,1065
6836,950,1068
6837,943,1076
6838,932,1081
6839,928,1076
6840,931,1066
6841,934,1051
6842,942,1032
6843,948,1031
6844,955,1034
6845,960,1038
6846,963,1032
6847,963,1024
6848,960,1029
6849,959,1041
6850,965,1058
6851,970,1071
6852,974,1080
6853,978,1077
6854,981,1057
6855,985,1037
6856,984,1017
6857,980,1018
6858,981,1026
6859,986,1039
6860,995,1038
6861,1000,1029
6862,1000,1023
6863,1002,1036
6864,997,1074
6865,994,1110
6866,994,1114
6867,995,1087
6868,1004,1052
6869,1015,1047
6870,1028,1075
6871,1029,1107
6872,1028,1113
6873,1025,1085
6874,1023,1051
6875,1012,1040
6876,1000,1052
6877,1000,1073
6878,1001,1088
6879,996,1108
6880,982,1159
6881,967,1237
6882,943,1315
6883,922,1357
6884,898,1344
6885,894,1276
6886,917,1185
6887,948,1104
6888,960,1060
6889,951,1051
6890,944,1031
6891,964,982
6892,1001,929
6893,1022,912
6894,1006,930
6895,968,954
6896,940,957
6897,948,952
6898,974,961
6899,984,980
6900,967,995
6901,938,1017
6902,927,1061
6903,935,1118
6904,952,1157
6905,959,1146
6906,960,1083
6907,970,1021
6908,979,990
6909,970,996
6910,956,1029
6911,961,1067
6912,981,1085
6913,1004,1069
6914,1011,1047
6915,1000,1033
6916,978,1028
6917,969,1023
6918,993,1014
6919,1027,1018
6920,1040,1032
6921,1027,1061
6922,1016,1075
6923,1031,1051
6924,1068,995
6925,1115,937
6926,1154,910
6927,1164,903
6928,1158,896
6929,1155,881
6930,1165,879
6931,1181,906
6932,1199,930
6933,1220,912
6934,1262,852
6935,1306,788
6936,1339,757
6937,1348,758
6938,1353,774
6939,1349,784
6940,1354,774
6941,1377,751
6942,1418,729
6943,1426,731
6944,1387,750
6945,1338,778
6946,1323,808
6947,1321,837
6948,1323,874
6949,1309,904
6950,1300,921
6951,1285,933
6952,1265,942
6953,1241,952
6954,1222,964
6955,1229,966
6956,1238,957
6957,1241,952
6958,1236,952
6959,1229,964
6960,1216,974
6961,1190,974
6962,1147,974
6963,1096,974
6964,1053,982
6965,1015,1000
6966,992,1029
6967,996,1059
6968,1012,1075
6969,1019,1073
6970,1019,1062
6971,1008,1058
6972,982,1067
6973,960,1077
6974,961,1073
6975,982,1069
6976,1000,1079
6977,1008,1086
6978,989,1090
6979,956,1092
6980,932,1093
6981,924,1096
6982,932,1096
6983,961,1090
6984,987,1092
6985,999,1101
6986,1003,1115
6987,1003,1119
6988,987,1110
6989,960,1109
6990,935,1117
6991,914,1127
6992,909,1132
6993,929,1131
6994,959,1130
6995,971,1132
6996,974,1141
6997,965,1150
6998,946,1158
6999,919,1160
7000,905,1158
7001,928,1163
7002,955,1174
7003,954,1177
7004,932,1174
7005,924,1172
7006,911,1169
7007,890,1171
7008,877,1177
7009,873,1183
7010,873,1182
7011,886,1181
7012,910,1176
7013,920,1164
7014,924,1161
7015,932,1167
7016,950,1172
7017,953,1170
7018,944,1156
7019,930,1147
7020,914,1146
7021,893,1145
7022,891,1139
7023,917,1125
7024,949,1112
7025,968,1097
7026,976,1085
7027,978,1088
7028,985,1088
7029,994,1083
7030,1005,1076
7031,1015,1065
7032,1020,1054
7033,1018,1048
7034,1013,1044
7035,1007,1038
7036,1007,1028
7037,1017,1021
7038,1029,1016
7039,1031,1015
7040,1027,1008
7041,1019,999
7042,1017,992
7043,1024,984
7044,1032,976
7045,1035,977
7046,1036,981
7047,1031,984
7048,1024,983
7049,1020,983
7050,1016,983
7051,1011,986
7052,1009,991
7053,1012,994
7054,1009,989
7055,1011,985
7056,1011,989
7057,1008,998
7058,1003,1005
7059,1000,1005
7060,998,1005
7061,1000,1006
7062,1008,1016
7063,1011,1021
7064,1009,1019
7065,1001,1015
7066,995,1012
7067,997,1015
7068,1000,1016
7069,999,1017
7070,994,1018
7071,998,1020
7072,1003,1014
7073,1009,1010
7074,1004,1007
7075,998,1011
7076,993,1012
7077,991,1013
7078,992,1010
7079,995,1012
7080,1002,1017
7081,1003,1025
7082,1000,1025
7083,996,1018
7084,993,1013
7085,996,1009
7086,998,1011
7087,1002,1016
7088,1002,1020
7089,1002,1019
7090,1000,1020
7091,1003,1022
7092,1007,1028
7093,1012,1035
7094,1014,1038
7095,1013,1042
7096,1012,1045
7097,1013,1050
7098,1014,1057
7099,1009,1064
7100,1006,1071
7101,1007,1077
7102,1008,1076
7103,1011,1081
7104,1010,1087
7105,1008,1095
7106,1009,1103
7107,1010,1104
7108,1008,1108
7109,1010,1107
7110,1015,1114
7111,1017,1119
7112,1016,1121
7113,1015,1119
7114,1017,1117
7115,1025,1115
7116,1030,1118
7117,1037,1121
7118,1040,1121
7119,1043,1123
7120,1050,1116
7121,1052,1111
7122,1051,1103
7123,1051,1090
7124,1049,1074
7125,1044,1051
7126,1041,1034
7127,1040,1018
7128,1042,1009
7129,1043,1006
7130,1041,1005
7131,1032,1002
7132,1022,997
7133,1017,998
7134,1020,1002
7135,1016,1010
7136,1015,1009
7137,1011,1006
7138,1007,998
7139,1007,994
7140,1007,992
7141,1008,996
7142,1010,998
7143,1008,1000
7144,1007,999
7145,1008,999
7146,1016,1002
7147,1016,1005
7148,1017,1007
7149,1011,1007
7150,1007,1000
7151,1009,1003
7152,1011,1004
7153,1016,1008
7154,1019,1008
7155,1018,1008
7156,1016,1005
7157,1015,1003
7158,1016,1002
7159,1019,1002
7160,1018,1006
7161,1023,1005
7162,1035,999
7163,1061,990
7164,1097,976
7165,1143,964
7166,1202,959
7167,1266,955
7168,1325,950
7169,1377,949
7170,1394,958
7171,1360,981
7172,1278,1005
7173,1177,1016
7174,1087,1011
7175,1038,1008
7176,1025,1003
7177,1026,1000
7178,1026,998
7179,1023,999
7180,1021,1000
7181,1027,1005
7182,1031,1007
7183,1026,1007
7184,1019,1010
7185,1010,1009
7186,1008,1008
7187,1006,1004
7188,1006,1003
7189,1008,1007
7190,1009,1009
7191,1004,1012
7192,1003,1014
7193,1006,1017
7194,1012,1023
7195,1010,1029
7196,1008,1034
7197,997,1034
7198,998,1034
7199,1002,1033
7200,1007,1037
7201,1005,1038
7202,999,1038
7203,994,1035
7204,991,1035
7205,997,1031
7206,1001,1034
7207,1003,1036
7208,1003,1040
7209,1001,1039
7210,999,1041
7211,999,1037
7212,1002,1038
7213,1006,1040
7214,1007,1039
7215,1003,1035
7216,1004,1031
7217,1011,1026
7218,1017,1027
7219,1020,1023
7220,1018,1018
7221,1013,1010
7222,1015,1004
7223,1016,999
7224,1024,995
7225,1029,993
7226,1030,986
7227,1030,980
7228,1031,973
7229,1030,967
7230,1031,963
7231,1038,964
7232,1039,959
7233,1039,953
7234,1047,950
7235,1056,949
7236,1067,948
7237,1072,951
7238,1072,945
7239,1071,941
7240,1072,934
7241,1081,930
7242,1088,929
7243,1099,933
7244,1102,930
7245,1106,927
7246,1108,919
7247,1114,917
7248,1116,921
7249,1118,924
7250,1116,927
7251,1107,928
7252,1101,929
7253,1101,932
7254,1092,937
7255,1085,942
7256,1077,954
7257,1067,960
7258,1060,965
7259,1051,970
7260,1046,976
7261,1044,983
7262,1033,991
7263,1024,995
7264,1018,993
7265,1014,998
7266,1014,1001
7267,1012,1008
7268,1007,1013
7269,1005,1013
7270,999,1015
7271,999,1014
7272,997,1017
7273,994,1014
7274,989,1013
7275,986,1007
7276,985,1002
7277,989,1002
7278,991,1001
7279,993,1002
7280,989,1001
7281,984,996
7282,981,991
7283,976,989
7284,979,992
7285,980,992
7286,979,995
7287,975,997
7288,973,999
7289,969,998
7290,971,1000
7291,964,1007
7292,961,1009
7293,952,1012
7294,947,1011
7295,944,1013
7296,945,1014
7297,946,1017
7298,947,1016
7299,940,1010
7300,926,1008
7301,920,1005
7302,916,1003
7303,914,1005
7304,921,1003
7305,944,1007
7306,971,1003
7307,980,997
7308,983,999
7309,1002,1005
7310,1017,1012
7311,1012,1014
7312,1002,1017
7313,1004,1012
7314,1014,1002
7315,1021,993
7316,1025,985
7317,1031,984
7318,1035,988
7319,1029,993
7320,1021,999
7321,1010,1007
7322,999,1014
7323,993,1023
7324,994,1026
7325,1000,1033
7326,1010,1035
7327,1009,1039
7328,1010,1045
7329,1005,1047
7330,1002,1049
7331,1002,1050
7332,1008,1052
7333,1008,1051
7334,1007,1051
7335,1006,1047
7336,1006,1046
7337,1010,1049
7338,1016,1051
7339,1017,1057
7340,1018,1061
7341,1021,1066
7342,1033,1070
7343,1058,1065
7344,1099,1047
7345,1155,1031
7346,1210,1026
7347,1261,1027
7348,1312,1027
7349,1356,1023
7350,1373,1020
7351,1338,1029
7352,1262,1035
7353,1173,1038
7354,1099,1038
7355,1050,1039
7356,1029,1049
7357,1027,1056
7358,1030,1071
7359,1034,1085
7360,1033,1099
7361,1032,1105
7362,1039,1113
7363,1039,1120
7364,1041,1127
7365,1037,1130
7366,1032,1127
7367,1026,1127
7368,1023,1131
7369,1017,1129
7370,1013,1126
7371,1005,1120
7372,999,1106
7373,998,1096
7374,1002,1091
7375,1005,1093
7376,1004,1093
7377,1002,1091
7378,999,1087
7379,1000,1084
7380,1004,1086
7381,1006,1088
7382,1008,1089
7383,1007,1086
7384,1010,1086
7385,1015,1085
7386,1027,1086
7387,1038,1089
7388,1043,1092
7389,1046,1093
7390,1042,1090
7391,1039,1089
7392,1038,1095
7393,1033,1096
7394,1026,1095
7395,1021,1094
7396,1025,1088
7397,1034,1088
7398,1033,1095
7399,1025,1096
7400,1017,1096
7401,1012,1092
7402,1016,1083
7403,1022,1074
7404,1026,1071
7405,1027,1071
7406,1023,1067
7407,1020,1062
7408,1018,1060
7409,1021,1058
7410,1028,1060
7411,1033,1060
7412,1031,1060
7413,1032,1056
7414,1036,1054
7415,1043,1048
7416,1048,1046
7417,1049,1049
7418,1050,1047
7419,1050,1046
7420,1053,1042
7421,1055,1036
7422,1060,1035
7423,1068,1031
7424,1070,1032
7425,1074,1029
7426,1078,1028
7427,1083,1024
7428,1101,1026
7429,1107,1025
7430,1108,1027
7431,1098,1028
7432,1089,1028
7433,1095,1029
7434,1105,1032
7435,1111,1036
7436,1113,1043
7437,1103,1051
7438,1092,1059
7439,1083,1065
7440,1077,1070
7441,1075,1077
7442,1073,1077
7443,1072,1074
7444,1076,1073
7445,1080,1075
7446,1080,1079
7447,1078,1083
7448,1069,1090
7449,1064,1092
7450,1059,1091
7451,1069,1091
7452,1072,1096
7453,1069,1104
7454,1059,1108
7455,1048,1105
7456,1045,1100
7457,1051,1099
7458,1056,1097
7459,1055,1100
7460,1048,1101
7461,1042,1097
7462,1042,1096
7463,1045,1096
7464,1048,1099
7465,1046,1105
7466,1045,1107
7467,1039,1107
7468,1039,1105
7469,1040,1102
7470,1042,1104
7471,1037,1106
7472,1033,1108
7473,1032,1105
7474,1026,1100
7475,1027,1097
7476,1032,1097
7477,1034,1101
7478,1027,1103
7479,1018,1102
7480,1014,1099
7481,1019,1097
7482,1022,1098
7483,1019,1098
7484,1017,1098
7485,1015,1094
7486,1015,1090
7487,1016,1090
7488,1025,1095
7489,1028,1101
7490,1025,1104
7491,1021,1104
7492,1018,1102
7493,1021,1100
7494,1028,1103
7495,1031,1105
7496,1035,1107
7497,1038,1103
7498,1045,1099
7499,1048,1095
7500,1053,1094
7501,1054,1092
7502,1058,1096
7503,1058,1090
7504,1057,1087
7505,1050,1086
7506,1042,1088
7507,1040,1088
7508,1037,1087
7509,1037,1084
7510,1032,1076
7511,1029,1073
7512,1028,1074
7513,1027,1076
7514,1025,1076
7515,1023,1075
7516,1017,1068
7517,1013,1066
7518,1016,1064
7519,1021,1065
7520,1025,1066
7521,1029,1062
7522,1033,1054
7523,1042,1049
7524,1052,1044
7525,1068,1039
7526,1076,1031
7527,1079,1016
7528,1087,999
7529,1099,980
7530,1122,961
7531,1137,945
7532,1144,932
7533,1148,915
7534,1158,893
7535,1173,869
7536,1195,847
7537,1204,825
7538,1210,810
7539,1220,802
7540,1238,792
7541,1274,781
7542,1320,767
7543,1368,759
7544,1397,762
7545,1419,772
7546,1422,784
7547,1434,807
7548,1444,844
7549,1434,890
7550,1388,935
7551,1306,978
7552,1217,1011
7553,1144,1039
7554,1091,1056
7555,1060,1068
7556,1040,1079
7557,1018,1089
7558,996,1095
7559,975,1102
7560,963,1113
7561,962,1123
7562,962,1132
7563,954,1136
7564,948,1140
7565,949,1146
7566,949,1156
7567,953,1159
7568,948,1163
7569,948,1165
7570,938,1163
7571,929,1159
7572,926,1156
7573,926,1148
7574,927,1137
7575,923,1121
7576,922,1103
7577,920,1092
7578,922,1087
7579,920,1090
7580,917,1090
7581,911,1091
7582,910,1092
7583,911,1095
7584,911,1104
7585,906,1108
7586,898,1112
7587,890,1114
7588,887,1117
7589,885,1120
7590,888,1127
7591,897,1138
7592,893,1142
7593,890,1147
7594,887,1148
7595,888,1149
7596,885,1153
7597,884,1159
7598,887,1159
7599,886,1162
7600,882,1162
7601,875,1162
7602,870,1166
7603,864,1169
7604,862,1169
7605,858,1168
7606,857,1163
7607,858,1163
7608,869,1166
7609,870,1167
7610,869,1167
7611,863,1164
7612,865,1162
7613,872,1158
7614,879,1156
7615,885,1160
7616,888,1156
7617,881,1155
7618,877,1150
7619,879,1147
7620,880,1144
7621,883,1143
7622,887,1142
7623,887,1137
7624,889,1130
7625,894,1122
7626,900,1120
7627,899,1116
7628,899,1111
7629,899,1105
7630,899,1096
7631,906,1087
7632,916,1084
7633,922,1079
7634,923,1075
7635,922,1071
7636,925,1060
7637,934,1053
7638,938,1051
7639,944,1048
7640,950,1047
7641,949,1043
7642,949,1037
7643,948,1036
7644,954,1033
7645,954,1034
7646,948,1034
7647,945,1030
7648,944,1026
7649,945,1025
7650,949,1021
7651,950,1024
7652,948,1022
7653,945,1022
7654,941,1018
7655,939,1014
7656,939,1019
7657,936,1017
7658,933,1016
7659,931,1010
7660,931,1006
7661,931,1006
7662,935,1006
7663,931,1001
7664,927,999
7665,924,996
7666,919,988
7667,923,986
7668,926,985
7669,924,982
7670,921,978
7671,918,973
7672,920,968
7673,920,965
7674,921,965
7675,924,965
7676,926,963
7677,922,955
7678,921,953
7679,924,952
7680,930,950
7681,934,947
7682,935,946
7683,932,945
7684,931,944
7685,938,949
7686,944,955
7687,947,964
7688,948,973
7689,950,982
7690,952,989
7691,955,998
7692,960,1011
7693,966,1020
7694,968,1019
7695,972,1022
7696,975,1023
7697,977,1022
7698,980,1022
7699,980,1019
7700,980,1017
7701,979,1014
7702,982,1012
7703,984,1014
7704,986,1011
7705,985,1014
7706,978,1013
7707,972,1010
7708,967,1005
7709,962,1001
7710,963,996
7711,958,997
7712,951,1000
7713,944,1004
7714,940,1004
7715,942,1004
7716,941,1004
7717,939,1006
7718,931,1010
7719,924,1006
7720,919,1003
7721,919,999
7722,917,1004
7723,914,1002
7724,910,1005
7725,908,1001
7726,909,998
7727,910,994
7728,911,996
7729,914,996
7730,914,995
7731,909,991
7732,907,985
7733,905,983
7734,906,985
7735,908,986
7736,905,986
7737,898,979
7738,887,975
7739,884,975
7740,887,978
7741,902,978
7742,923,971
7743,954,958
7744,991,949
7745,1039,951
7746,1087,962
7747,1130,976
7748,1171,985
7749,1206,992
7750,1228,1005
7751,1216,1015
7752,1166,1022
7753,1092,1017
7754,1015,1005
7755,954,992
7756,914,975
7757,905,963
7758,901,954
7759,897,957
7760,888,958
7761,879,959
7762,880,955
7763,888,952
7764,897,955
7765,899,954
7766,891,952
7767,886,950
7768,884,946
7769,883,945
7770,881,950
7771,878,954
7772,877,953
7773,872,954
7774,874,950
7775,880,953
7776,886,950
7777,888,954
7778,886,953
7779,884,951
7780,884,950
7781,892,946
7782,898,953
7783,900,956
7784,899,960
7785,896,965
7786,895,968
7787,899,972
7788,902,979
7789,906,985
7790,904,993
7791,904,997
7792,904,998
7793,907,1004
7794,909,1011
7795,911,1021
7796,908,1030
7797,910,1035
7798,912,1043
7799,915,1049
7800,918,1060
7801,920,1068
7802,918,1072
7803,913,1063
7804,911,1051
7805,915,1040
7806,920,1037
7807,923,1035
7808,923,1035
7809,923,1031
7810,923,1026
7811,926,1026
7812,931,1023
7813,931,1022
7814,932,1019
7815,930,1016
7816,929,1013
7817,935,1011
7818,937,1008
7819,937,1011
7820,934,1010
7821,930,1005
7822,930,998
7823,931,995
7824,933,989
7825,937,989
7826,934,981
7827,931,979
7828,934,972
7829,942,969
7830,950,965
7831,955,965
7832,958,959
7833,953,956
7834,949,949
7835,953,948
7836,955,946
7837,960,945
7838,957,949
7839,954,948
7840,952,946
7841,954,950
7842,956,953
7843,955,962
7844,953,967
7845,948,971
7846,945,976
7847,941,979
7848,941,986
7849,941,993
7850,934,1000
7851,930,999
7852,923,999
7853,920,999
7854,919,1003
7855,918,1009
7856,917,1011
7857,909,1013
7858,903,1010
7859,905,1010
7860,907,1014
7861,907,1021
7862,903,1024
7863,900,1025
7864,897,1024
7865,898,1021
7866,903,1026
7867,904,1027
7868,904,1026
7869,899,1023
7870,898,1021
7871,895,1020
7872,899,1021
7873,901,1025
7874,902,1027
7875,898,1025
7876,897,1023
7877,898,1021
7878,903,1024
7879,905,1028
7880,904,1027
7881,900,1024
7882,904,1022
7883,904,1020
7884,907,1025
7885,909,1029
7886,908,1031
7887,907,1035
7888,906,1034
7889,907,1033
7890,912,1035
7891,918,1043
7892,921,1046
7893,923,1046
7894,922,1045
7895,923,1049
7896,923,1052
7897,929,1057
7898,936,1059
7899,937,1053
7900,939,1050
7901,939,1050
7902,943,1049
7903,943,1050
7904,945,1045
7905,943,1045
7906,940,1044
7907,937,1044
7908,935,1044
7909,936,1047
7910,932,1050
7911,924,1050
7912,917,1048
7913,915,1046
7914,916,1050
7915,914,1056
7916,911,1060
7917,904,1059
7918,904,1059
7919,904,1054
7920,907,1056
7921,907,1062
7922,909,1061
7923,902,1060
7924,895,1057
7925,893,1058
7926,894,1059
7927,899,1063
7928,902,1062
7929,897,1062
7930,893,1058
7931,893,1060
7932,894,1059
7933,895,1063
7934,891,1062
7935,889,1059
7936,886,1055
7937,882,1056
7938,884,1053
7939,884,1053
7940,885,1048
7941,880,1045
7942,884,1041
7943,901,1036
7944,935,1029
7945,973,1022
7946,1014,1014
7947,1058,1021
7948,1110,1032
7949,1165,1046
7950,1214,1065
7951,1245,1083
7952,1231,1101
7953,1168,1102
7954,1081,1091
7955,995,1080
7956,925,1070
7957,885,1058
7958,871,1047
7959,869,1043
7960,876,1044
7961,881,1046
7962,887,1051
7963,898,1056
7964,902,1059
7965,899,1057
7966,895,1055
7967,897,1055
7968,898,1059
7969,899,1063
7970,898,1060
7971,897,1064
7972,894,1061
7973,896,1064
7974,902,1067
7975,904,1072
7976,905,1073
7977,903,1070
7978,899,1068
7979,901,1065
7980,905,1068
7981,908,1071
7982,904,1074
7983,906,1074
7984,906,1070
7985,909,1071
7986,913,1070
7987,915,1076
7988,916,1077
7989,915,1075
7990,915,1070
7991,917,1070
7992,921,1073
7993,924,1076
7994,923,1075
7995,922,1073
7996,921,1070
7997,927,1066
7998,930,1069
7999,930,1072
8000,932,1071
8001,935,1071
8002,934,1064
8003,939,1062
8004,945,1064
8005,951,1065
8006,951,1069
8007,949,1066
8008,948,1060
8009,952,1055
8010,959,1060
8011,963,1063
8012,965,1062
8013,965,1057
8014,967,1054
8015,974,1050
8016,978,1051
8017,985,1053
8018,984,1048
8019,982,1045
8020,985,1041
8021,990,1037
8022,995,1035
8023,999,1035
8024,1002,1034
8025,1001,1031
8026,1001,1027
8027,1007,1027
8028,1010,1028
8029,1012,1031
8030,1011,1029
8031,1006,1028
8032,1009,1026
8033,1012,1022
8034,1020,1024
8035,1022,1026
8036,1022,1029
8037,1017,1029
8038,1012,1030
8039,1017,1035
8040,1025,1042
8041,1026,1048
8042,1022,1052
8043,1019,1055
8044,1017,1055
8045,1018,1057
8046,1016,1063
8047,1016,1066
8048,1011,1069
8049,1005,1071
8050,1000,1066
8051,1001,1065
8052,1001,1071
8053,999,1076
8054,993,1079
8055,984,1080
8056,982,1081
8057,986,1080
8058,987,1083
8059,985,1087
8060,981,1091
8061,976,1090
8062,972,1091
8063,972,1094
8064,975,1100
8065,976,1106
8066,984,1108
8067,986,1105
8068,986,1105
8069,986,1104
8070,985,1108
8071,982,1112
8072,981,1117
8073,982,1123
8074,979,1123
8075,979,1125
8076,978,1129
8077,978,1134
8078,975,1134
8079,973,1130
8080,972,1123
8081,976,1120
8082,982,1121
8083,984,1121
8084,984,1121
8085,980,1124
8086,981,1120
8087,981,1118
8088,984,1123
8089,985,1126
8090,986,1124
8091,986,1124
8092,986,1119
8093,989,1113
8094,994,1108
8095,1002,1110
8096,1004,1108
8097,998,1109
8098,996,1105
8099,996,1101
8100,1000,1102
8101,1000,1101
8102,996,1102
8103,993,1098
8104,993,1097
8105,994,1093
8106,991,1095
8107,989,1096
8108,985,1098
8109,979,1092
8110,972,1090
8111,971,1090
8112,975,1095
8113,974,1100
8114,977,1102
8115,976,1100
8116,976,1097
8117,973,1095
8118,977,1097
8119,977,1096
8120,977,1096
8121,980,1093
8122,977,1091
8123,980,1088
8124,983,1091
8125,985,1094
8126,986,1091
8127,985,1087
8128,988,1084
8129,989,1086
8130,994,1087
8131,994,1089
8132,996,1090
8133,998,1091
8134,997,1088
8135,999,1085
8136,998,1086
8137,999,1089
8138,1011,1092
8139,1031,1092
8140,1059,1080
8141,1098,1069
8142,1145,1071
8143,1201,1078
8144,1259,1081
8145,1316,1076
8146,1371,1070
8147,1414,1070
8148,1411,1076
8149,1354,1077
8150,1264,1079
8151,1172,1080
8152,1093,1082
8153,1046,1078
8154,1030,1079
8155,1024,1081
8156,1021,1084
8157,1014,1085
8158,1012,1086
8159,1014,1088
8160,1017,1091
8161,1017,1100
8162,1012,1102
8163,1010,1106
8164,1007,1105
8165,1004,1107
8166,1004,1110
8167,1000,1111
8168,998,1110
8169,995,1108
8170,998,1102
8171,1001,1100
8172,1006,1095
8173,1004,1097
8174,1003,1098
8175,998,1091
8176,999,1091
8177,1004,1092
8178,1007,1096
8179,1008,1100
8180,1002,1100
8181,1000,1101
8182,997,1102
8183,998,1104
8184,1004,1106
8185,1009,1112
8186,1012,1117
8187,1010,1116
8188,1010,1115
8189,1010,1113
8190,1011,1116
8191,1013,1121
8192,1015,1114
8193,1014,1111
8194,1010,1107
8195,1011,1106
8196,1016,1107
8197,1020,1106
8198,1021,1105
8199,1017,1104
8200,1014,1102
8201,1016,1100
8202,1020,1102
8203,1024,1103
8204,1028,1102
8205,1025,1101
8206,1027,1098
8207,1027,1095
8208,1032,1094
8209,1035,1092
8210,1034,1093
8211,1032,1090
8212,1036,1087
8213,1041,1085
8214,1048,1085
8215,1050,1085
8216,1049,1083
8217,1045,1080
8218,1045,1077
8219,1049,1075
8220,1054,1076
8221,1060,1082
8222,1061,1077
8223,1060,1077
8224,1063,1074
8225,1068,1075
8226,1074,1079
8227,1076,1079
8228,1073,1079
8229,1071,1078
8230,1075,1073
8231,1083,1075
8232,1088,1078
8233,1088,1083
8234,1086,1086
8235,1084,1088
8236,1085,1088
8237,1083,1087
8238,1081,1092
8239,1083,1098
8240,1083,1102
8241,1080,1101
8242,1077,1104
8243,1077,1106
8244,1080,1112
8245,1080,1116
8246,1081,1122
8247,1080,1124
8248,1076,1126
8249,1075,1131
8250,1075,1138
8251,1078,1140
8252,1082,1142
8253,1080,1144
8254,1074,1141
8255,1070,1142
8256,1073,1145
8257,1077,1147
8258,1081,1148
8259,1078,1144
8260,1077,1143
8261,1077,1142
8262,1077,1141
8263,1077,1146
8264,1076,1144
8265,1073,1143
8266,1072,1139
8267,1072,1138
8268,1079,1140
8269,1083,1142
8270,1080,1140
8271,1075,1139
8272,1075,1135
8273,1082,1137
8274,1083,1139
8275,1085,1141
8276,1082,1142
8277,1079,1141
8278,1080,1140
8279,1086,1142
8280,1091,1143
8281,1097,1145
8282,1098,1146
8283,1095,1142
8284,1097,1140
8285,1102,1142
8286,1111,1140
8287,1115,1141
8288,1116,1142
8289,1113,1139
8290,1112,1133
8291,1115,1129
8292,1122,1126
8293,1128,1124
8294,1124,1122
8295,1124,1111
8296,1127,1103
8297,1132,1092
8298,1140,1089
8299,1153,1083
8300,1156,1075
8301,1158,1066
8302,1166,1047
8303,1180,1028
8304,1200,1011
8305,1217,999
8306,1230,990
8307,1238,977
8308,1255,966
8309,1269,953
8310,1290,940
8311,1314,932
8312,1340,922
8313,1358,916
8314,1376,911
8315,1400,905
8316,1423,907
8317,1434,914
8318,1432,923
8319,1421,935
8320,1403,951
8321,1386,970
8322,1369,993
8323,1351,1017
8324,1333,1043
8325,1313,1064
8326,1296,1078
8327,1283,1082
8328,1277,1090
8329,1266,1095
8330,1254,1098
8331,1239,1102
8332,1234,1099
8333,1233,1103
8334,1238,1110
8335,1235,1114
8336,1227,1116
8337,1209,1114
8338,1195,1115
8339,1178,1118
8340,1156,1127
8341,1126,1141
8342,1092,1155
8343,1066,1162
8344,1044,1164
8345,1031,1170
8346,1027,1174
8347,1020,1179
8348,1014,1182
8349,1006,1184
8350,1001,1187
8351,1001,1188
8352,1000,1190
8353,998,1195
8354,994,1198
8355,989,1201
8356,990,1202
8357,987,1200
8358,986,1203
8359,988,1210
8360,986,1212
8361,983,1213
8362,977,1213
8363,979,1215
8364,980,1216
8365,978,1218
8366,976,1223
8367,970,1223
8368,962,1223
8369,960,1223
8370,961,1228
8371,958,1233
8372,956,1233
8373,947,1235
8374,940,1234
8375,938,1235
8376,938,1240
8377,940,1242
8378,938,1245
8379,932,1244
8380,926,1239
8381,925,1238
8382,924,1243
8383,927,1249
8384,925,1248
8385,921,1248
8386,916,1245
8387,918,1243
8388,921,1243
8389,923,1243
8390,919,1243
8391,917,1239
8392,916,1233
8393,923,1232
8394,925,1229
8395,927,1229
8396,930,1224
8397,932,1219
8398,935,1216
8399,941,1212
8400,950,1206
8401,955,1208
8402,962,1204
8403,963,1196
8404,970,1191
8405,982,1188
8406,996,1184
8407,1008,1182
8408,1016,1179
8409,1021,1176
8410,1026,1169
8411,1038,1166
8412,1053,1164
8413,1063,1163
8414,1073,1163
8415,1078,1159
8416,1085,1156
8417,1092,1155
8418,1104,1157
8419,1110,1159
8420,1112,1160
8421,1108,1158
8422,1115,1155
8423,1119,1153
8424,1127,1155
8425,1128,1157
8426,1127,1160
8427,1122,1159
8428,1120,1156
8429,1121,1155
8430,1122,1158
8431,1125,1161
8432,1122,1161
8433,1117,1162
8434,1114,1161
8435,1116,1159
8436,1117,1161
8437,1118,1163
8438,1118,1166
8439,1119,1163
8440,1118,1163
8441,1118,1165
8442,1122,1165
8443,1124,1167
8444,1122,1168
8445,1119,1166
8446,1114,1161
8447,1121,1162
8448,1125,1165
8449,1127,1167
8450,1125,1167
8451,1122,1164
8452,1123,1165
8453,1128,1162
8454,1130,1166
8455,1128,1166
8456,1128,1168
8457,1126,1164
8458,1124,1163
8459,1125,1162
8460,1127,1165
8461,1131,1165
8462,1130,1165
8463,1125,1166
8464,1125,1163
8465,1128,1161
8466,1128,1163
8467,1128,1167
8468,1127,1169
8469,1126,1170
8470,1126,1169
8471,1128,1169
8472,1133,1173
8473,1136,1178
8474,1136,1179
8475,1134,1179
8476,1133,1180
8477,1141,1178
8478,1145,1176
8479,1149,1178
8480,1147,1177
8481,1141,1174
8482,1137,1169
8483,1136,1164
8484,1137,1163
8485,1136,1167
8486,1132,1167
8487,1126,1165
8488,1121,1160
8489,1115,1159
8490,1118,1159
8491,1117,1161
8492,1114,1162
8493,1120,1160
