'sample #','MLII','V1'
0,1033,872
1,1033,872
2,1033,872
3,1033,872
4,1033,872
5,1033,872
6,1033,872
7,1033,870
8,1033,872
9,1031,876
10,1030,880
11,1033,887
12,1034,893
13,1037,896
14,1031,895
15,1030,902
16,1027,910
17,1032,918
18,1033,927
19,1028,930
20,1026,934
21,1020,940
22,1022,945
23,1022,954
24,1021,960
25,1017,965
26,1013,966
27,1010,974
28,1007,979
29,1009,989
30,1009,992
31,1004,995
32,1000,999
33,997,1003
34,994,1008
35,998,1015
36,998,1020
37,997,1022
38,993,1023
39,990,1024
40,989,1032
41,991,1034
42,992,1040
43,989,1039
44,983,1037
45,984,1039
46,985,1041
47,983,1044
48,986,1048
49,985,1046
50,982,1045
51,982,1045
52,983,1044
53,986,1047
54,989,1047
55,986,1044
56,985,1040
57,983,1038
58,984,1040
59,987,1046
60,990,1047
61,993,1049
62,987,1046
63,985,1048
64,983,1049
65,987,1053
66,989,1054
67,988,1052
68,986,1051
69,980,1051
70,984,1052
71,988,1055
72,987,1058
73,988,1054
74,985,1054
75,980,1055
76,984,1056
77,989,1059
78,989,1059
79,987,1058
80,984,1054
81,981,1054
82,979,1058
83,982,1061
84,985,1062
85,984,1058
86,981,1056
87,977,1056
88,977,1058
89,980,1059
90,979,1060
91,981,1057
92,978,1056
93,976,1053
94,975,1055
95,978,1057
96,982,1057
97,981,1054
98,980,1053
99,977,1050
100,980,1053
101,983,1057
102,981,1054
103,983,1053
104,983,1054
105,981,1055
106,974,1057
107,981,1059
108,984,1061
109,981,1057
110,980,1056
111,976,1056
112,978,1059
113,981,1060
114,984,1061
115,984,1061
116,981,1056
117,982,1056
118,981,1059
119,984,1061
120,986,1062
121,986,1058
122,984,1054
123,985,1057
124,983,1058
125,981,1060
126,986,1060
127,985,1060
128,979,1055
129,980,1056
130,977,1058
131,978,1060
132,985,1062
133,982,1057
134,980,1051
135,979,1053
136,980,1053
137,985,1055
138,989,1055
139,989,1055
140,986,1052
141,984,1052
142,982,1053
143,985,1051
144,987,1053
145,991,1051
146,988,1049
147,985,1047
148,985,1051
149,987,1053
150,990,1055
151,987,1056
152,985,1053
153,984,1053
154,984,1056
155,988,1057
156,994,1056
157,989,1056
158,990,1054
159,986,1051
160,985,1054
161,991,1055
162,995,1058
163,995,1052
164,991,1051
165,990,1052
166,992,1056
167,994,1058
168,994,1058
169,995,1055
170,993,1050
171,990,1051
172,992,1049
173,991,1053
174,996,1054
175,994,1049
176,991,1045
177,983,1044
178,985,1045
179,986,1049
180,993,1046
181,991,1043
182,989,1042
183,991,1040
184,993,1045
185,995,1045
186,998,1044
187,999,1039
188,1001,1033
189,1003,1034
190,1007,1036
191,1018,1040
192,1033,1039
193,1058,1037
194,1115,1037
195,1205,1037
196,1307,1038
197,1354,1037
198,1328,1028
199,1269,1008
200,1230,974
201,1212,919
202,1196,852
203,1183,809
204,1164,809
205,1142,833
206,1114,852
207,1094,857
208,1074,864
209,1053,871
210,1031,874
211,1010,873
212,983,871
213,958,872
214,931,873
215,905,871
216,874,869
217,842,866
218,814,863
219,787,863
220,769,863
221,754,862
222,740,860
223,727,857
224,714,853
225,704,851
226,703,846
227,706,846
228,714,842
229,722,836
230,731,827
231,740,819
232,759,812
233,783,807
234,810,805
235,830,802
236,851,802
237,868,808
238,889,817
239,900,833
240,909,842
241,917,847
242,929,850
243,947,859
244,966,870
245,986,886
246,1004,904
247,1017,920
248,1023,938
249,1027,960
250,1031,986
251,1036,1006
252,1041,1025
253,1045,1034
254,1042,1040
255,1042,1045
256,1043,1048
257,1048,1054
258,1052,1060
259,1050,1058
260,1044,1059
261,1043,1060
262,1045,1063
263,1047,1067
264,1055,1070
265,1053,1068
266,1052,1065
267,1050,1069
268,1049,1068
269,1054,1075
270,1060,1077
271,1059,1076
272,1060,1071
273,1061,1071
274,1063,1074
275,1069,1073
276,1074,1078
277,1081,1075
278,1078,1073
279,1081,1073
280,1084,1075
281,1090,1080
282,1095,1081
283,1097,1081
284,1095,1081
285,1096,1085
286,1100,1090
287,1103,1093
288,1109,1096
289,1111,1093
290,1111,1095
291,1111,1097
292,1113,1101
293,1118,1104
294,1124,1106
295,1127,1102
296,1127,1101
297,1130,1103
298,1129,1109
299,1135,1114
300,1140,1114
301,1146,1114
302,1143,1112
303,1148,1114
304,1150,1117
305,1154,1120
306,1158,1124
307,1158,1122
308,1157,1121
309,1154,1123
310,1153,1129
311,1156,1131
312,1154,1134
313,1157,1134
314,1155,1133
315,1154,1132
316,1154,1136
317,1156,1140
318,1158,1143
319,1158,1139
320,1154,1137
321,1150,1135
322,1144,1140
323,1146,1138
324,1145,1138
325,1142,1135
326,1135,1132
327,1128,1132
328,1125,1133
329,1122,1139
330,1119,1135
331,1114,1135
332,1105,1129
333,1098,1127
334,1092,1127
335,1088,1128
336,1085,1124
337,1084,1120
338,1077,1116
339,1071,1113
340,1065,1112
341,1066,1113
342,1062,1110
343,1060,1103
344,1054,1097
345,1048,1094
346,1044,1092
347,1042,1092
348,1042,1088
349,1038,1086
350,1034,1078
351,1032,1075
352,1030,1073
353,1031,1077
354,1030,1075
355,1027,1071
356,1023,1067
357,1021,1064
358,1018,1067
359,1019,1070
360,1021,1068
361,1020,1067
362,1018,1064
363,1016,1061
364,1014,1062
365,1014,1062
366,1018,1062
367,1017,1060
368,1015,1058
369,1011,1057
370,1011,1057
371,1014,1056
372,1016,1056
373,1021,1052
374,1021,1046
375,1019,1048
376,1017,1049
377,1021,1056
378,1022,1055
379,1021,1051
380,1019,1048
381,1014,1048
382,1014,1051
383,1014,1056
384,1017,1057
385,1016,1054
386,1011,1052
387,1011,1052
388,1010,1056
389,1012,1058
390,1014,1058
391,1011,1058
392,1008,1056
393,1005,1055
394,1003,1056
395,1005,1058
396,1009,1058
397,1004,1055
398,1004,1052
399,1000,1053
400,1000,1055
401,1002,1059
402,1001,1059
403,1002,1056
404,1000,1055
405,994,1052
406,997,1056
407,998,1059
408,996,1060
409,995,1059
410,994,1057
411,989,1055
412,987,1058
413,988,1058
414,990,1058
415,988,1055
416,987,1053
417,984,1051
418,986,1054
419,993,1054
420,995,1056
421,995,1053
422,993,1048
423,989,1047
424,992,1048
425,995,1049
426,996,1048
427,994,1047
428,993,1041
429,990,1040
430,992,1044
431,994,1045
432,994,1044
433,992,1045
434,994,1042
435,990,1043
436,990,1046
437,992,1047
438,994,1049
439,992,1046
440,994,1045
441,989,1044
442,990,1045
443,988,1049
444,992,1050
445,991,1047
446,988,1044
447,986,1044
448,987,1044
449,988,1047
450,990,1047
451,988,1043
452,983,1045
453,981,1044
454,984,1046
455,987,1047
456,989,1047
457,990,1046
458,986,1045
459,985,1044
460,984,1048
461,981,1050
462,984,1049
463,982,1049
464,983,1046
465,981,1045
466,980,1047
467,984,1046
468,986,1048
469,985,1047
470,981,1042
471,984,1041
472,981,1042
473,989,1043
474,992,1041
475,992,1040
476,994,1035
477,993,1037
478,992,1038
479,998,1041
480,1001,1039
481,1000,1037
482,1001,1031
483,1001,1032
484,1008,1035
485,1016,1036
486,1026,1037
487,1044,1034
488,1079,1032
489,1149,1033
490,1249,1034
491,1330,1034
492,1344,1027
493,1297,1011
494,1241,985
495,1215,938
496,1201,873
497,1188,810
498,1171,771
499,1153,774
500,1135,795
501,1113,816
502,1094,830
503,1074,838
504,1057,844
505,1036,847
506,1009,849
507,986,851
508,960,854
509,938,857
510,917,855
511,891,853
512,859,849
513,829,845
514,799,847
515,775,848
516,756,849
517,738,846
518,721,845
519,704,846
520,691,844
521,682,845
522,676,845
523,666,842
524,662,838
525,658,835
526,657,836
527,669,837
528,679,833
529,686,825
530,695,819
531,708,815
532,730,816
533,754,813
534,785,810
535,810,806
536,834,809
537,848,816
538,859,828
539,869,840
540,880,848
541,891,854
542,901,862
543,911,870
544,924,883
545,938,894
546,951,908
547,962,914
548,971,925
549,979,937
550,989,952
551,1004,968
552,1019,981
553,1028,990
554,1034,998
555,1037,1013
556,1043,1024
557,1048,1034
558,1058,1040
559,1058,1047
560,1057,1049
561,1061,1051
562,1062,1055
563,1065,1060
564,1070,1065
565,1071,1064
566,1070,1062
567,1070,1064
568,1071,1068
569,1075,1071
570,1081,1073
571,1082,1072
572,1080,1070
573,1079,1071
574,1076,1072
575,1085,1073
576,1088,1073
577,1088,1071
578,1087,1068
579,1087,1068
580,1093,1072
581,1097,1075
582,1101,1074
583,1104,1073
584,1105,1073
585,1106,1071
586,1112,1074
587,1116,1076
588,1124,1075
589,1124,1076
590,1125,1071
591,1125,1076
592,1131,1080
593,1138,1085
594,1144,1090
595,1147,1090
596,1149,1090
597,1151,1090
598,1154,1095
599,1160,1099
600,1165,1100
601,1169,1103
602,1172,1102
603,1175,1104
604,1179,1108
605,1184,1110
606,1193,1111
607,1194,1111
608,1196,1113
609,1200,1115
610,1205,1115
611,1209,1121
612,1213,1120
613,1215,1117
614,1219,1119
615,1220,1120
616,1225,1125
617,1229,1131
618,1235,1131
619,1233,1132
620,1230,1132
621,1229,1135
622,1233,1138
623,1236,1141
624,1236,1140
625,1234,1141
626,1235,1140
627,1228,1142
628,1225,1144
629,1222,1146
630,1219,1147
631,1212,1144
632,1205,1139
633,1201,1138
634,1194,1141
635,1189,1143
636,1187,1141
637,1177,1137
638,1169,1132
639,1160,1128
640,1154,1126
641,1148,1130
642,1146,1128
643,1136,1123
644,1123,1118
645,1113,1115
646,1104,1115
647,1100,1115
648,1095,1113
649,1084,1107
650,1077,1103
651,1067,1100
652,1060,1098
653,1059,1098
654,1056,1096
655,1049,1088
656,1040,1083
657,1035,1080
658,1034,1083
659,1031,1083
660,1029,1079
661,1026,1075
662,1020,1072
663,1015,1069
664,1015,1072
665,1012,1072
666,1013,1069
667,1011,1069
668,1005,1063
669,1003,1063
670,1002,1062
671,1003,1061
672,1005,1065
673,1004,1062
674,1001,1059
675,993,1057
676,992,1058
677,995,1062
678,998,1061
679,995,1057
680,994,1055
681,994,1054
682,993,1053
683,998,1055
684,998,1053
685,998,1047
686,994,1044
687,994,1045
688,996,1045
689,1000,1048
690,1004,1047
691,1004,1044
692,1001,1042
693,997,1042
694,998,1044
695,997,1047
696,1000,1049
697,998,1045
698,996,1045
699,995,1042
700,991,1044
701,990,1048
702,995,1047
703,995,1045
704,991,1042
705,988,1044
706,987,1045
707,986,1051
708,989,1048
709,984,1044
710,983,1046
711,980,1046
712,982,1050
713,983,1052
714,983,1048
715,981,1048
716,979,1047
717,978,1046
718,977,1048
719,977,1050
720,980,1053
721,975,1051
722,973,1048
723,969,1046
724,969,1050
725,966,1055
726,968,1055
727,966,1052
728,965,1051
729,961,1051
730,969,1054
731,971,1055
732,975,1055
733,977,1053
734,973,1051
735,972,1049
736,976,1047
737,976,1050
738,980,1046
739,978,1042
740,974,1042
741,976,1042
742,976,1043
743,982,1045
744,984,1046
745,983,1045
746,979,1041
747,977,1041
748,981,1042
749,981,1047
750,985,1044
751,983,1042
752,981,1038
753,977,1041
754,973,1043
755,978,1041
756,981,1043
757,980,1044
758,979,1038
759,975,1040
760,973,1042
761,975,1041
762,975,1043
763,975,1039
764,971,1035
765,970,1037
766,971,1041
767,971,1042
768,976,1042
769,974,1041
770,975,1039
771,970,1037
772,970,1043
773,971,1044
774,973,1044
775,969,1044
776,967,1040
777,964,1041
778,963,1042
779,963,1045
780,966,1045
781,966,1044
782,964,1042
783,967,1042
784,975,1041
785,977,1042
786,982,1045
787,984,1043
788,985,1039
789,983,1035
790,985,1032
791,987,1035
792,991,1032
793,993,1029
794,992,1027
795,994,1026
796,999,1028
797,1005,1030
798,1016,1030
799,1029,1026
800,1058,1022
801,1116,1022
802,1202,1022
803,1287,1020
804,1318,1014
805,1288,997
806,1243,974
807,1210,935
808,1197,879
809,1184,819
810,1172,780
811,1151,782
812,1131,805
813,1111,822
814,1094,835
815,1074,842
816,1056,848
817,1032,850
818,1010,851
819,984,855
820,962,856
821,936,860
822,911,859
823,884,855
824,853,852
825,820,847
826,792,851
827,764,853
828,744,850
829,724,850
830,705,849
831,685,849
832,673,847
833,664,847
834,658,846
835,651,846
836,643,839
837,638,837
838,641,837
839,651,837
840,664,832
841,671,826
842,678,814
843,688,812
844,708,806
845,731,809
846,757,809
847,777,807
848,803,806
849,822,814
850,838,824
851,849,832
852,858,844
853,869,849
854,879,853
855,888,863
856,903,874
857,920,888
858,937,897
859,950,909
860,961,919
861,969,929
862,982,946
863,994,960
864,1007,970
865,1014,982
866,1020,990
867,1023,999
868,1027,1010
869,1032,1021
870,1035,1027
871,1038,1029
872,1039,1033
873,1039,1037
874,1041,1044
875,1047,1051
876,1049,1054
877,1049,1052
878,1050,1053
879,1046,1054
880,1046,1059
881,1051,1065
882,1052,1067
883,1055,1065
884,1056,1063
885,1056,1065
886,1060,1067
887,1068,1071
888,1071,1071
889,1075,1071
890,1075,1071
891,1077,1072
892,1081,1074
893,1087,1076
894,1093,1076
895,1094,1073
896,1097,1071
897,1094,1071
898,1094,1074
899,1101,1077
900,1108,1078
901,1109,1078
902,1110,1076
903,1108,1076
904,1112,1080
905,1120,1083
906,1124,1084
907,1127,1083
908,1127,1083
909,1127,1087
910,1130,1088
911,1137,1093
912,1144,1093
913,1148,1092
914,1151,1091
915,1153,1094
916,1155,1098
917,1159,1103
918,1166,1103
919,1169,1101
920,1167,1102
921,1168,1104
922,1173,1109
923,1178,1112
924,1184,1113
925,1190,1113
926,1192,1112
927,1193,1113
928,1198,1118
929,1202,1123
930,1207,1127
931,1208,1125
932,1203,1125
933,1205,1128
934,1205,1130
935,1210,1132
936,1211,1136
937,1205,1136
938,1204,1133
939,1196,1133
940,1195,1136
941,1194,1139
942,1193,1139
943,1189,1138
944,1184,1136
945,1179,1138
946,1178,1139
947,1175,1139
948,1174,1139
949,1168,1136
950,1155,1133
951,1147,1136
952,1137,1132
953,1135,1133
954,1130,1129
955,1120,1124
956,1110,1119
957,1099,1115
958,1093,1114
959,1086,1116
960,1076,1111
961,1071,1106
962,1061,1097
963,1055,1098
964,1051,1096
965,1048,1094
966,1047,1091
967,1039,1085
968,1033,1078
969,1028,1074
970,1025,1074
971,1025,1075
972,1024,1074
973,1019,1071
974,1014,1065
975,1006,1064
976,1007,1064
977,1006,1064
978,1007,1063
979,1005,1059
980,1002,1054
981,998,1054
982,998,1054
983,998,1058
984,1001,1057
985,1001,1054
986,999,1049
987,995,1048
988,992,1052
989,998,1055
990,999,1053
991,995,1048
992,991,1045
993,989,1046
994,988,1045
995,991,1047
996,995,1046
997,992,1044
998,984,1043
999,985,1045
1000,986,1048
1001,988,1049
1002,989,1048
1003,988,1045
1004,986,1045
1005,991,1050
1006,990,1052
1007,992,1050
1008,996,1051
1009,992,1046
1010,989,1045
1011,989,1048
1012,985,1052
1013,992,1051
1014,991,1049
1015,988,1049
1016,989,1047
1017,989,1050
1018,990,1052
1019,990,1053
1020,989,1049
1021,987,1048
1022,982,1047
1023,983,1049
1024,987,1051
1025,988,1051
1026,986,1052
1027,981,1049
1028,982,1048
1029,980,1051
1030,984,1053
1031,984,1052
1032,980,1047
1033,979,1047
1034,981,1046
1035,975,1049
1036,979,1052
1037,982,1051
1038,977,1049
1039,976,1048
1040,975,1046
1041,975,1045
1042,979,1048
1043,978,1047
1044,978,1045
1045,973,1041
1046,974,1041
1047,974,1045
1048,977,1046
1049,973,1044
1050,974,1040
1051,967,1036
1052,965,1034
1053,961,1035
1054,961,1036
1055,966,1038
1056,966,1035
1057,962,1036
1058,963,1033
1059,967,1038
1060,974,1040
1061,975,1040
1062,975,1038
1063,972,1035
1064,970,1035
1065,971,1035
1066,976,1042
1067,980,1040
1068,975,1039
1069,973,1038
1070,972,1037
1071,974,1042
1072,977,1043
1073,978,1045
1074,981,1041
1075,977,1041
1076,975,1039
1077,978,1042
1078,977,1043
1079,979,1046
1080,978,1044
1081,975,1041
1082,974,1042
1083,975,1043
1084,976,1046
1085,980,1046
1086,978,1044
1087,975,1043
1088,972,1042
1089,973,1045
1090,975,1046
1091,977,1046
1092,973,1043
1093,973,1039
1094,970,1038
1095,970,1038
1096,974,1043
1097,977,1040
1098,975,1038
1099,972,1034
1100,969,1034
1101,970,1031
1102,974,1034
1103,977,1032
1104,977,1030
1105,977,1026
1106,973,1026
1107,972,1028
1108,975,1030
1109,978,1029
1110,978,1025
1111,977,1021
1112,978,1023
1113,984,1025
1114,992,1024
1115,1000,1025
1116,1006,1019
1117,1010,1018
1118,1022,1015
1119,1054,1017
1120,1120,1022
1121,1215,1018
1122,1295,1010
1123,1318,1000
1124,1281,988
1125,1237,969
1126,1212,935
1127,1200,876
1128,1186,813
1129,1173,783
1130,1152,787
1131,1137,811
1132,1124,830
1133,1109,836
1134,1091,838
1135,1068,841
1136,1046,845
1137,1028,855
1138,1007,860
1139,983,858
1140,957,860
1141,930,856
1142,902,856
1143,873,856
1144,844,859
1145,814,857
1146,781,852
1147,754,851
1148,731,849
1149,712,853
1150,700,849
1151,686,849
1152,668,842
1153,657,833
1154,652,832
1155,647,830
1156,649,833
1157,651,832
1158,653,827
1159,661,814
1160,664,808
1161,673,803
1162,684,804
1163,708,802
1164,732,796
1165,752,795
1166,777,799
1167,803,806
1168,828,815
1169,845,824
1170,847,826
1171,844,826
1172,850,830
1173,861,840
1174,880,852
1175,898,861
1176,915,867
1177,925,879
1178,932,889
1179,946,900
1180,960,916
1181,974,929
1182,985,940
1183,994,948
1184,1001,960
1185,1011,977
1186,1020,989
1187,1029,999
1188,1034,1006
1189,1034,1013
1190,1033,1022
1191,1038,1032
1192,1044,1039
1193,1048,1043
1194,1049,1047
1195,1051,1049
1196,1050,1050
1197,1052,1053
1198,1055,1057
1199,1059,1059
1200,1059,1058
1201,1058,1059
1202,1058,1062
1203,1060,1063
1204,1064,1068
1205,1067,1068
1206,1068,1066
1207,1067,1067
1208,1064,1064
1209,1067,1069
1210,1073,1072
1211,1075,1073
1212,1075,1069
1213,1079,1068
1214,1079,1070
1215,1081,1077
1216,1085,1080
1217,1091,1080
1218,1093,1080
1219,1094,1080
1220,1096,1082
1221,1100,1081
1222,1106,1087
1223,1112,1088
1224,1114,1086
1225,1115,1087
1226,1119,1091
1227,1125,1095
1228,1132,1097
1229,1138,1100
1230,1137,1100
1231,1139,1095
1232,1142,1099
1233,1146,1103
1234,1155,1105
1235,1159,1107
1236,1164,1109
1237,1164,1106
1238,1165,1108
1239,1167,1114
1240,1176,1118
1241,1181,1119
1242,1186,1120
1243,1185,1119
1244,1186,1120
1245,1187,1124
1246,1193,1128
1247,1201,1127
1248,1201,1127
1249,1202,1126
1250,1204,1128
1251,1202,1130
1252,1206,1134
1253,1208,1134
1254,1207,1133
1255,1205,1134
1256,1202,1134
1257,1201,1139
1258,1201,1143
1259,1200,1145
1260,1197,1144
1261,1191,1143
1262,1187,1143
1263,1186,1145
1264,1182,1146
1265,1179,1147
1266,1172,1143
1267,1160,1140
1268,1154,1138
1269,1148,1142
1270,1144,1145
1271,1139,1142
1272,1127,1137
1273,1119,1131
1274,1110,1126
1275,1103,1125
1276,1100,1125
1277,1092,1121
1278,1084,1115
1279,1077,1110
1280,1068,1106
1281,1063,1106
1282,1058,1106
1283,1057,1101
1284,1051,1096
1285,1040,1090
1286,1031,1085
1287,1027,1084
1288,1027,1084
1289,1028,1080
1290,1022,1076
1291,1020,1069
1292,1016,1067
1293,1016,1067
1294,1014,1067
1295,1014,1063
1296,1008,1059
1297,1004,1055
1298,1000,1056
1299,1000,1056
1300,1003,1059
1301,1003,1057
1302,999,1052
1303,994,1052
1304,994,1051
1305,996,1053
1306,999,1055
1307,1003,1054
1308,1002,1051
1309,998,1046
1310,996,1048
1311,994,1050
1312,992,1055
1313,996,1055
1314,997,1049
1315,995,1050
1316,994,1050
1317,996,1050
1318,997,1056
1319,1002,1055
1320,1003,1053
1321,997,1050
1322,996,1051
1323,996,1052
1324,998,1056
1325,1004,1054
1326,1002,1051
1327,998,1050
1328,996,1051
1329,995,1054
1330,998,1057
1331,1000,1057
1332,997,1052
1333,994,1051
1334,991,1050
1335,992,1054
1336,992,1056
1337,996,1055
1338,993,1052
1339,994,1048
1340,989,1048
1341,992,1047
1342,993,1053
1343,995,1052
1344,990,1050
1345,990,1048
1346,990,1046
1347,988,1048
1348,990,1050
1349,995,1048
1350,991,1045
1351,990,1043
1352,985,1043
1353,984,1043
1354,984,1046
1355,985,1047
1356,983,1043
1357,977,1041
1358,974,1042
1359,976,1043
1360,980,1046
1361,983,1045
1362,984,1045
1363,982,1040
1364,978,1039
1365,983,1042
1366,988,1045
1367,993,1042
1368,990,1042
1369,987,1039
1370,984,1042
1371,982,1045
1372,983,1046
1373,984,1049
1374,986,1049
1375,985,1045
1376,983,1044
1377,984,1046
1378,988,1048
1379,990,1046
1380,992,1044
1381,989,1039
1382,987,1038
1383,987,1041
1384,987,1042
1385,991,1040
1386,987,1037
1387,983,1034
1388,981,1033
1389,983,1035
1390,987,1037
1391,988,1040
1392,990,1037
1393,984,1036
1394,981,1039
1395,982,1039
1396,983,1044
1397,986,1045
1398,984,1043
1399,981,1038
1400,981,1037
1401,980,1040
1402,980,1040
1403,981,1038
1404,979,1035
1405,977,1030
1406,976,1030
1407,976,1033
1408,979,1036
1409,983,1033
1410,985,1033
1411,981,1027
1412,982,1027
1413,983,1029
1414,987,1033
1415,989,1031
1416,989,1026
1417,989,1025
1418,990,1025
1419,990,1023
1420,995,1028
1421,999,1028
1422,1004,1024
1423,1003,1022
1424,1008,1021
1425,1017,1021
1426,1034,1022
1427,1068,1021
1428,1135,1018
1429,1221,1014
1430,1292,1011
1431,1307,1005
1432,1276,992
1433,1234,972
1434,1207,933
1435,1190,874
1436,1175,819
1437,1162,798
1438,1144,808
1439,1131,829
1440,1112,840
1441,1087,843
1442,1063,845
1443,1040,851
1444,1020,856
1445,994,857
1446,965,854
1447,930,852
1448,902,851
1449,873,850
1450,843,851
1451,811,848
1452,786,845
1453,758,843
1454,736,841
1455,720,844
1456,709,848
1457,696,847
1458,684,844
1459,674,838
1460,667,840
1461,672,843
1462,684,846
1463,696,845
1464,708,841
1465,721,836
1466,735,835
1467,750,834
1468,767,833
1469,782,832
1470,793,828
1471,814,824
1472,830,829
1473,853,837
1474,877,846
1475,901,851
1476,921,854
1477,936,857
1478,952,864
1479,974,873
1480,996,888
1481,1011,898
1482,1015,915
1483,1019,930
1484,1019,949
1485,1023,968
1486,1026,987
1487,1031,996
1488,1031,1006
1489,1029,1006
1490,1028,1011
1491,1029,1018
1492,1031,1023
1493,1032,1025
1494,1031,1028
1495,1033,1029
1496,1029,1032
1497,1030,1038
1498,1032,1041
1499,1036,1043
1500,1036,1041
1501,1033,1042
1502,1031,1044
1503,1037,1049
1504,1039,1052
1505,1043,1055
1506,1045,1054
1507,1041,1057
1508,1043,1058
1509,1044,1059
1510,1049,1063
1511,1050,1064
1512,1054,1062
1513,1052,1063
1514,1052,1066
1515,1050,1067
1516,1056,1070
1517,1059,1069
1518,1059,1065
1519,1061,1062
1520,1060,1065
1521,1063,1068
1522,1065,1069
1523,1070,1067
1524,1070,1064
1525,1066,1064
1526,1066,1066
1527,1072,1068
1528,1076,1072
1529,1082,1072
1530,1079,1071
1531,1084,1068
1532,1083,1069
1533,1088,1074
1534,1093,1074
1535,1100,1075
1536,1102,1075
1537,1098,1074
1538,1101,1078
1539,1106,1080
1540,1110,1084
1541,1119,1084
1542,1121,1082
1543,1124,1081
1544,1123,1078
1545,1124,1083
1546,1129,1088
1547,1131,1088
1548,1134,1091
1549,1133,1089
1550,1131,1093
1551,1136,1095
1552,1142,1100
1553,1144,1103
1554,1142,1104
1555,1141,1104
1556,1139,1106
1557,1138,1111
1558,1138,1114
1559,1141,1113
1560,1136,1112
1561,1128,1110
1562,1124,1110
1563,1121,1112
1564,1117,1114
1565,1115,1113
1566,1110,1114
1567,1103,1109
1568,1094,1109
1569,1090,1109
1570,1086,1110
1571,1084,1107
1572,1076,1104
1573,1066,1099
1574,1059,1098
1575,1054,1097
1576,1047,1098
1577,1047,1095
1578,1042,1091
1579,1034,1087
1580,1027,1082
1581,1024,1083
1582,1023,1080
1583,1023,1080
1584,1021,1076
1585,1016,1073
1586,1009,1070
1587,1009,1070
1588,1006,1068
1589,1004,1065
1590,999,1062
1591,995,1057
1592,990,1055
1593,991,1058
1594,993,1058
1595,995,1056
1596,995,1056
1597,992,1054
1598,988,1059
1599,989,1059
1600,989,1064
1601,993,1064
1602,989,1060
1603,984,1060
1604,985,1060
1605,984,1063
1606,990,1065
1607,991,1064
1608,988,1062
1609,984,1062
1610,980,1061
1611,981,1064
1612,982,1065
1613,984,1063
1614,985,1060
1615,985,1057
1616,982,1053
1617,983,1055
1618,985,1055
1619,982,1053
1620,983,1052
1621,982,1048
1622,981,1047
1623,980,1050
1624,983,1050
1625,987,1049
1626,987,1046
1627,986,1043
1628,985,1045
1629,984,1049
1630,986,1051
1631,984,1051
1632,981,1052
1633,982,1045
1634,978,1046
1635,974,1047
1636,977,1048
1637,977,1048
1638,978,1047
1639,977,1047
1640,973,1047
1641,974,1053
1642,978,1054
1643,979,1052
1644,978,1052
1645,978,1049
1646,975,1052
1647,975,1055
1648,974,1057
1649,977,1057
1650,977,1054
1651,973,1049
1652,972,1051
1653,970,1053
1654,973,1056
1655,977,1056
1656,973,1055
1657,972,1051
1658,970,1053
1659,974,1053
1660,977,1054
1661,978,1053
1662,975,1050
1663,971,1049
1664,966,1047
1665,966,1049
1666,971,1051
1667,970,1047
1668,970,1045
1669,972,1044
1670,972,1042
1671,972,1044
1672,974,1046
1673,979,1047
1674,975,1045
1675,971,1043
1676,967,1040
1677,969,1041
1678,970,1042
1679,974,1041
1680,969,1040
1681,967,1037
1682,965,1039
1683,964,1042
1684,968,1044
1685,968,1044
1686,967,1042
1687,965,1039
1688,964,1042
1689,963,1043
1690,963,1044
1691,964,1044
1692,963,1043
1693,962,1041
1694,960,1039
1695,959,1041
1696,962,1045
1697,966,1047
1698,964,1044
1699,964,1040
1700,966,1043
1701,966,1045
1702,967,1049
1703,971,1047
1704,968,1046
1705,967,1044
1706,966,1042
1707,964,1041
1708,965,1046
1709,964,1043
1710,962,1044
1711,957,1039
1712,958,1040
1713,960,1041
1714,963,1047
1715,969,1042
1716,970,1039
1717,967,1034
1718,968,1034
1719,967,1038
1720,967,1034
1721,969,1035
1722,972,1030
1723,972,1027
1724,975,1025
1725,977,1028
1726,982,1029
1727,989,1032
1728,999,1029
1729,1013,1024
1730,1048,1025
1731,1121,1026
1732,1221,1026
1733,1294,1019
1734,1299,1007
1735,1260,989
1736,1215,961
1737,1191,913
1738,1182,847
1739,1172,793
1740,1155,777
1741,1133,791
1742,1117,816
1743,1102,830
1744,1084,838
1745,1072,841
1746,1052,845
1747,1032,847
1748,1010,852
1749,988,852
1750,968,858
1751,952,859
1752,930,856
1753,901,852
1754,878,850
1755,858,853
1756,846,858
1757,848,858
1758,856,856
1759,864,852
1760,869,853
1761,872,855
1762,871,856
1763,869,851
1764,868,845
1765,869,839
1766,876,837
1767,881,836
1768,887,843
1769,886,847
1770,876,848
1771,871,849
1772,877,853
1773,897,859
1774,922,870
1775,944,876
1776,958,887
1777,965,903
1778,965,924
1779,970,942
1780,974,959
1781,980,973
1782,980,988
1783,977,995
1784,976,1004
1785,974,1014
1786,975,1020
1787,978,1023
1788,978,1023
1789,976,1022
1790,972,1024
1791,973,1030
1792,977,1035
1793,980,1037
1794,979,1036
1795,976,1033
1796,972,1033
1797,972,1037
1798,972,1043
1799,974,1040
1800,970,1043
1801,970,1041
1802,968,1040
1803,970,1045
1804,972,1049
1805,975,1048
1806,973,1049
1807,971,1045
1808,967,1047
1809,968,1049
1810,967,1052
1811,970,1051
1812,970,1051
1813,961,1049
1814,959,1054
1815,959,1058
1816,965,1060
1817,968,1061
1818,967,1057
1819,969,1057
1820,970,1056
1821,970,1061
1822,970,1064
1823,973,1064
1824,973,1062
1825,971,1058
1826,969,1061
1827,971,1065
1828,976,1069
1829,979,1068
1830,977,1067
1831,975,1063
1832,975,1064
1833,977,1068
1834,979,1069
1835,982,1069
1836,982,1070
1837,980,1067
1838,979,1067
1839,983,1069
1840,988,1073
1841,990,1073
1842,988,1073
1843,985,1068
1844,980,1069
1845,983,1070
1846,983,1069
1847,985,1072
1848,983,1071
1849,979,1070
1850,975,1072
1851,973,1076
1852,971,1079
1853,970,1076
1854,967,1074
1855,961,1072
1856,960,1075
1857,958,1077
1858,956,1080
1859,955,1081
1860,953,1081
1861,945,1081
1862,940,1080
1863,937,1082
1864,936,1086
1865,935,1085
1866,933,1085
1867,926,1080
1868,928,1078
1869,930,1081
1870,930,1079
1871,935,1081
1872,935,1078
1873,935,1073
1874,935,1074
1875,937,1075
1876,942,1078
1877,948,1077
1878,946,1074
1879,944,1071
1880,943,1068
1881,944,1068
1882,948,1070
1883,956,1064
1884,954,1061
1885,953,1061
1886,952,1066
1887,952,1069
1888,950,1071
1889,953,1070
1890,950,1066
1891,948,1065
1892,946,1065
1893,945,1067
1894,948,1069
1895,948,1065
1896,945,1056
1897,941,1054
1898,939,1055
1899,939,1058
1900,938,1055
1901,943,1056
1902,941,1054
1903,940,1056
1904,937,1056
1905,937,1060
1906,943,1060
1907,942,1062
1908,937,1057
1909,934,1059
1910,931,1058
1911,932,1062
1912,934,1063
1913,933,1065
1914,934,1061
1915,933,1059
1916,932,1061
1917,935,1062
1918,940,1063
1919,943,1062
1920,946,1064
1921,946,1058
1922,946,1060
1923,946,1065
1924,949,1066
1925,954,1066
1926,952,1062
1927,950,1058
1928,950,1059
1929,949,1062
1930,953,1066
1931,951,1061
1932,951,1058
1933,949,1053
1934,948,1055
1935,950,1057
1936,952,1059
1937,952,1060
1938,946,1057
1939,941,1054
1940,943,1057
1941,943,1060
1942,948,1063
1943,953,1061
1944,952,1058
1945,950,1054
1946,948,1056
1947,947,1059
1948,947,1064
1949,948,1064
1950,945,1060
1951,940,1057
1952,936,1061
1953,938,1063
1954,940,1065
1955,937,1065
1956,938,1062
1957,933,1060
1958,929,1060
1959,929,1062
1960,934,1063
1961,938,1063
1962,938,1063
1963,937,1062
1964,933,1061
1965,938,1063
1966,940,1068
1967,946,1063
1968,948,1064
1969,946,1057
1970,944,1056
1971,944,1056
1972,945,1057
1973,943,1058
1974,942,1058
1975,938,1058
1976,937,1058
1977,939,1059
1978,946,1063
1979,948,1058
1980,945,1056
1981,944,1054
1982,940,1057
1983,940,1056
1984,943,1059
1985,943,1055
1986,938,1052
1987,933,1051
1988,935,1052
1989,936,1054
1990,942,1060
1991,943,1055
1992,945,1055
1993,942,1051
1994,939,1052
1995,941,1052
1996,941,1060
1997,939,1058
1998,939,1054
1999,934,1049
2000,929,1053
2001,929,1054
2002,933,1059
2003,935,1056
2004,935,1052
2005,932,1049
2006,933,1047
2007,934,1048
2008,936,1050
2009,938,1052
2010,938,1053
2011,936,1050
2012,933,1049
2013,931,1049
2014,938,1053
2015,942,1052
2016,944,1050
2017,946,1045
2018,950,1046
2019,956,1049
2020,967,1052
2021,983,1052
2022,1012,1051
2023,1074,1048
2024,1173,1049
2025,1262,1049
2026,1285,1046
2027,1244,1031
2028,1191,994
2029,1160,942
2030,1141,864
2031,1128,793
2032,1107,771
2033,1087,798
2034,1069,834
2035,1048,850
2036,1024,855
2037,1001,863
2038,977,871
2039,948,873
2040,920,871
2041,892,872
2042,863,872
2043,837,872
2044,806,874
2045,772,873
2046,740,870
2047,707,866
2048,687,866
2049,672,871
2050,660,872
2051,647,868
2052,629,863
2053,620,855
2054,612,853
2055,612,856
2056,612,859
2057,615,856
2058,619,847
2059,625,841
2060,625,832
2061,640,827
2062,659,825
2063,685,822
2064,712,817
2065,737,819
2066,754,822
2067,774,834
2068,784,842
2069,791,852
2070,793,856
2071,799,860
2072,806,870
2073,818,882
2074,834,896
2075,850,907
2076,861,920
2077,876,929
2078,886,942
2079,901,956
2080,918,974
2081,935,987
2082,945,1001
2083,951,1008
2084,953,1023
2085,960,1036
2086,966,1050
2087,970,1058
2088,972,1059
2089,974,1063
2090,976,1072
2091,977,1081
2092,980,1088
2093,982,1091
2094,983,1094
2095,982,1094
2096,987,1096
2097,990,1101
2098,995,1105
2099,999,1101
2100,1006,1103
2101,1008,1099
2102,1011,1102
2103,1013,1104
2104,1017,1110
2105,1022,1108
2106,1024,1104
2107,1025,1103
2108,1023,1106
2109,1027,1109
2110,1030,1110
2111,1033,1110
2112,1036,1109
2113,1037,1109
2114,1040,1109
2115,1041,1113
2116,1041,1117
2117,1044,1119
2118,1046,1117
2119,1046,1114
2120,1045,1115
2121,1051,1117
2122,1057,1123
2123,1064,1125
2124,1071,1122
2125,1076,1122
2126,1077,1125
2127,1083,1127
2128,1090,1132
2129,1095,1133
2130,1095,1132
2131,1096,1132
2132,1100,1133
2133,1104,1138
2134,1109,1141
2135,1110,1144
2136,1116,1143
2137,1118,1142
2138,1123,1145
2139,1129,1151
2140,1135,1156
2141,1144,1153
2142,1146,1153
2143,1148,1153
2144,1154,1159
2145,1158,1166
2146,1166,1169
2147,1169,1171
2148,1168,1171
2149,1166,1167
2150,1162,1171
2151,1164,1171
2152,1164,1174
2153,1168,1170
2154,1163,1168
2155,1160,1165
2156,1154,1165
2157,1152,1170
2158,1148,1172
2159,1143,1174
2160,1133,1167
2161,1122,1161
2162,1111,1161
2163,1105,1161
2164,1102,1162
2165,1097,1160
2166,1088,1151
2167,1077,1148
2168,1064,1145
2169,1054,1143
2170,1048,1143
2171,1042,1138
2172,1035,1132
2173,1024,1125
2174,1018,1125
2175,1009,1125
2176,1003,1125
2177,995,1117
2178,986,1111
2179,979,1103
2180,971,1101
2181,971,1101
2182,965,1104
2183,964,1101
2184,959,1096
2185,959,1093
2186,953,1095
2187,953,1092
2188,955,1097
2189,958,1093
2190,958,1091
2191,958,1086
2192,954,1088
2193,953,1088
2194,955,1093
2195,954,1090
2196,954,1083
2197,955,1080
2198,953,1078
2199,948,1080
2200,952,1080
2201,955,1083
2202,957,1081
2203,955,1077
2204,954,1074
2205,952,1077
2206,955,1079
2207,957,1077
2208,958,1075
2209,955,1071
2210,953,1070
2211,952,1072
2212,955,1076
2213,956,1074
2214,955,1073
2215,954,1072
2216,950,1073
2217,949,1076
2218,952,1080
2219,953,1077
2220,954,1075
2221,952,1075
2222,948,1074
2223,947,1077
2224,949,1077
2225,948,1075
2226,946,1074
2227,944,1071
2228,940,1073
2229,938,1074
2230,940,1077
2231,940,1075
2232,938,1072
2233,934,1074
2234,934,1073
2235,936,1077
2236,941,1079
2237,949,1080
2238,950,1078
2239,951,1077
2240,945,1073
2241,942,1076
2242,943,1076
2243,942,1071
2244,940,1067
2245,937,1064
2246,939,1061
2247,944,1063
2248,946,1070
2249,950,1067
2250,950,1066
2251,946,1067
2252,940,1066
2253,937,1066
2254,939,1067
2255,941,1063
2256,940,1060
2257,938,1056
2258,935,1057
2259,939,1060
2260,941,1063
2261,943,1062
2262,940,1060
2263,941,1057
2264,941,1055
2265,939,1060
2266,941,1060
2267,945,1062
2268,943,1059
2269,939,1056
2270,937,1057
2271,935,1062
2272,933,1062
2273,934,1063
2274,936,1059
2275,935,1060
2276,931,1059
2277,932,1063
2278,934,1064
2279,939,1065
2280,940,1060
2281,938,1057
2282,936,1060
2283,939,1062
2284,941,1065
2285,945,1066
2286,946,1063
2287,944,1061
2288,944,1058
2289,941,1057
2290,941,1058
2291,945,1055
2292,942,1055
2293,943,1050
2294,943,1051
2295,945,1053
2296,946,1054
2297,949,1051
2298,948,1048
2299,943,1044
2300,943,1046
2301,946,1048
2302,946,1047
2303,948,1045
2304,944,1044
2305,947,1043
2306,945,1043
2307,950,1045
2308,952,1049
2309,957,1047
2310,956,1043
2311,961,1039
2312,965,1038
2313,984,1039
2314,1023,1040
2315,1099,1039
2316,1203,1036
2317,1286,1027
2318,1294,1014
2319,1244,1002
2320,1194,963
2321,1168,900
2322,1153,819
2323,1134,772
2324,1110,780
2325,1086,814
2326,1064,842
2327,1041,847
2328,1011,849
2329,986,854
2330,962,860
2331,942,868
2332,917,871
2333,892,869
2334,862,865
2335,826,860
2336,791,854
2337,761,855
2338,734,855
2339,715,854
2340,696,849
2341,674,846
2342,655,839
2343,640,842
2344,629,842
2345,624,837
2346,617,834
2347,612,828
2348,610,828
2349,617,825
2350,626,824
2351,636,818
2352,644,810
2353,655,801
2354,672,797
2355,701,798
2356,730,802
2357,756,803
2358,779,806
2359,796,811
2360,802,821
2361,809,831
2362,822,841
2363,833,844
2364,840,852
2365,852,859
2366,862,869
2367,877,885
2368,896,896
2369,910,908
2370,923,921
2371,937,933
2372,950,945
2373,959,963
2374,972,977
2375,977,989
2376,983,1000
2377,985,1010
2378,991,1020
2379,1001,1032
2380,1006,1042
2381,1008,1047
2382,1008,1050
2383,1009,1049
2384,1012,1050
2385,1020,1056
2386,1026,1059
2387,1031,1059
2388,1034,1057
2389,1034,1055
2390,1035,1057
2391,1037,1063
2392,1043,1068
2393,1047,1069
2394,1046,1070
2395,1045,1068
2396,1047,1069
2397,1048,1074
2398,1052,1076
2399,1057,1075
2400,1058,1074
2401,1060,1072
2402,1058,1073
2403,1062,1074
2404,1065,1078
2405,1067,1081
2406,1068,1081
2407,1067,1082
2408,1069,1080
2409,1075,1086
2410,1082,1088
2411,1088,1090
2412,1092,1089
2413,1090,1084
2414,1090,1087
2415,1093,1091
2416,1103,1094
2417,1109,1096
2418,1111,1093
2419,1115,1091
2420,1118,1096
2421,1122,1099
2422,1128,1104
2423,1133,1104
2424,1135,1103
2425,1137,1102
2426,1140,1104
2427,1147,1110
2428,1154,1112
2429,1161,1115
2430,1164,1113
2431,1169,1111
2432,1172,1113
2433,1176,1115
2434,1182,1119
2435,1187,1120
2436,1189,1117
2437,1187,1114
2438,1191,1116
2439,1195,1121
2440,1201,1125
2441,1204,1128
2442,1200,1127
2443,1199,1125
2444,1197,1127
2445,1197,1135
2446,1199,1139
2447,1197,1139
2448,1190,1138
2449,1183,1135
2450,1177,1137
2451,1172,1139
2452,1172,1139
2453,1165,1139
2454,1157,1135
2455,1147,1135
2456,1136,1132
2457,1135,1134
2458,1125,1136
2459,1118,1132
2460,1106,1127
2461,1092,1121
2462,1080,1121
2463,1073,1118
2464,1066,1118
2465,1061,1112
2466,1052,1107
2467,1040,1097
2468,1032,1097
2469,1025,1095
2470,1019,1098
2471,1015,1092
2472,1010,1088
2473,1006,1081
2474,998,1080
2475,994,1079
2476,990,1078
2477,982,1076
2478,980,1071
2479,974,1066
2480,968,1065
2481,970,1062
2482,972,1065
2483,972,1063
2484,973,1059
2485,969,1054
2486,965,1049
2487,966,1052
2488,966,1049
2489,964,1047
2490,965,1046
2491,963,1041
2492,963,1040
2493,964,1041
2494,964,1045
2495,963,1043
2496,964,1043
2497,962,1038
2498,962,1036
2499,965,1039
2500,968,1042
2501,970,1041
2502,969,1039
2503,966,1038
2504,960,1042
2505,963,1045
2506,964,1046
2507,967,1046
2508,964,1044
2509,963,1039
2510,962,1041
2511,964,1046
2512,968,1050
2513,968,1048
2514,969,1047
2515,963,1045
2516,961,1043
2517,963,1046
2518,965,1046
2519,966,1047
2520,960,1046
2521,959,1043
2522,956,1042
2523,958,1047
2524,962,1048
2525,960,1047
2526,960,1047
2527,954,1045
2528,956,1046
2529,955,1048
2530,958,1050
2531,961,1050
2532,957,1046
2533,953,1045
2534,950,1043
2535,954,1040
2536,953,1042
2537,951,1042
2538,948,1037
2539,950,1034
2540,948,1038
2541,949,1038
2542,953,1043
2543,959,1042
2544,955,1041
2545,950,1040
2546,947,1036
2547,948,1040
2548,951,1041
2549,953,1040
2550,952,1036
2551,949,1031
2552,949,1032
2553,949,1036
2554,953,1039
2555,953,1037
2556,955,1037
2557,952,1034
2558,949,1035
2559,951,1036
2560,952,1036
2561,951,1037
2562,947,1035
2563,948,1032
2564,946,1035
2565,949,1037
2566,950,1041
2567,953,1040
2568,951,1036
2569,950,1036
2570,947,1036
2571,949,1038
2572,949,1038
2573,952,1038
2574,950,1037
2575,946,1034
2576,944,1033
2577,943,1036
2578,945,1037
2579,948,1040
2580,944,1039
2581,943,1038
2582,945,1037
2583,946,1038
2584,947,1040
2585,950,1037
2586,950,1034
2587,948,1030
2588,948,1027
2589,947,1030
2590,951,1030
2591,952,1031
2592,951,1028
2593,949,1026
2594,952,1028
2595,950,1031
2596,954,1033
2597,957,1032
2598,956,1030
2599,955,1026
2600,953,1024
2601,954,1025
2602,956,1029
2603,959,1027
2604,959,1024
2605,956,1022
2606,958,1023
2607,959,1026
2608,961,1027
2609,965,1025
2610,963,1021
2611,963,1019
2612,963,1020
2613,968,1018
2614,973,1020
2615,988,1018
2616,1005,1011
2617,1049,1012
2618,1130,1013
2619,1237,1014
2620,1313,1010
2621,1315,998
2622,1266,982
2623,1214,954
2624,1188,909
2625,1170,847
2626,1155,792
2627,1133,765
2628,1109,779
2629,1085,804
2630,1061,822
2631,1040,831
2632,1016,837
2633,991,841
2634,963,844
2635,935,845
2636,909,847
2637,881,846
2638,858,846
2639,830,843
2640,800,835
2641,771,831
2642,742,829
2643,722,832
2644,707,835
2645,695,831
2646,678,828
2647,658,824
2648,645,821
2649,635,822
2650,630,825
2651,627,818
2652,622,814
2653,618,811
2654,616,811
2655,623,810
2656,635,805
2657,646,799
2658,652,793
2659,666,784
2660,684,782
2661,708,784
2662,738,789
2663,770,791
2664,794,793
2665,808,798
2666,815,808
2667,819,817
2668,827,824
2669,834,829
2670,844,834
2671,855,842
2672,867,852
2673,882,867
2674,897,882
2675,913,890
2676,929,902
2677,937,915
2678,950,932
2679,963,950
2680,976,968
2681,990,984
2682,998,993
2683,1000,1003
2684,1000,1015
2685,1002,1025
2686,1010,1033
2687,1016,1038
2688,1021,1039
2689,1021,1040
2690,1022,1042
2691,1027,1047
2692,1027,1052
2693,1033,1048
2694,1031,1047
2695,1029,1044
2696,1031,1047
2697,1032,1049
2698,1036,1051
2699,1039,1051
2700,1041,1051
2701,1043,1052
2702,1047,1051
2703,1051,1057
2704,1057,1062
2705,1063,1062
2706,1062,1061
2707,1060,1059
2708,1059,1060
2709,1062,1065
2710,1069,1072
2711,1074,1073
2712,1075,1073
2713,1075,1072
2714,1075,1075
2715,1078,1077
2716,1084,1082
2717,1090,1086
2718,1091,1084
2719,1095,1083
2720,1096,1087
2721,1102,1091
2722,1110,1094
2723,1116,1094
2724,1120,1093
2725,1119,1090
2726,1123,1095
2727,1129,1098
2728,1136,1103
2729,1140,1104
2730,1149,1102
2731,1152,1102
2732,1158,1103
2733,1166,1109
2734,1172,1114
2735,1177,1114
2736,1181,1114
2737,1183,1114
2738,1184,1117
2739,1190,1124
2740,1197,1125
2741,1196,1127
2742,1202,1127
2743,1199,1127
2744,1198,1127
2745,1197,1132
2746,1198,1137
2747,1199,1136
2748,1200,1134
2749,1194,1133
2750,1189,1134
2751,1189,1136
2752,1188,1134
2753,1183,1131
2754,1177,1124
2755,1167,1122
2756,1158,1120
2757,1150,1119
2758,1143,1117
2759,1132,1115
2760,1120,1108
2761,1107,1106
2762,1096,1105
2763,1088,1106
2764,1081,1106
2765,1074,1103
2766,1062,1096
2767,1053,1091
2768,1041,1088
2769,1037,1087
2770,1029,1087
2771,1019,1082
2772,1015,1078
2773,1011,1070
2774,1003,1068
2775,1000,1067
2776,999,1069
2777,995,1067
2778,993,1063
2779,987,1057
2780,985,1056
2781,984,1058
2782,983,1058
2783,984,1055
2784,979,1053
2785,975,1049
2786,976,1050
2787,976,1050
2788,979,1055
2789,978,1053
2790,978,1051
2791,976,1048
2792,973,1047
2793,976,1049
2794,979,1050
2795,977,1052
2796,975,1048
2797,972,1046
2798,971,1048
2799,972,1049
2800,970,1052
2801,971,1050
2802,967,1048
2803,965,1048
2804,961,1048
2805,964,1051
2806,965,1053
2807,971,1051
2808,968,1050
2809,965,1047
2810,968,1044
2811,968,1046
2812,970,1045
2813,973,1044
2814,970,1040
2815,967,1039
2816,969,1041
2817,969,1044
2818,971,1047
2819,973,1045
2820,971,1042
2821,969,1041
2822,969,1039
2823,970,1044
2824,970,1046
2825,970,1046
2826,969,1044
2827,963,1040
2828,960,1040
2829,959,1043
2830,965,1047
2831,964,1044
2832,962,1038
2833,963,1036
2834,962,1035
2835,960,1040
2836,963,1044
2837,968,1044
2838,963,1041
2839,959,1037
2840,959,1037
2841,960,1040
2842,964,1041
2843,964,1041
2844,961,1038
2845,958,1036
2846,956,1038
2847,957,1039
2848,957,1044
2849,960,1043
2850,959,1038
2851,956,1038
2852,952,1039
2853,954,1041
2854,957,1043
2855,957,1045
2856,955,1043
2857,952,1038
2858,948,1041
2859,950,1043
2860,953,1045
2861,952,1045
2862,952,1043
2863,948,1042
2864,951,1045
2865,950,1046
2866,958,1049
2867,962,1046
2868,962,1042
2869,960,1039
2870,961,1037
2871,960,1038
2872,962,1039
2873,963,1041
2874,960,1039
2875,957,1039
2876,958,1041
2877,957,1045
2878,963,1051
2879,962,1050
2880,962,1052
2881,961,1050
2882,963,1049
2883,963,1046
2884,966,1046
2885,967,1040
2886,968,1042
2887,966,1038
2888,961,1034
2889,964,1033
2890,965,1029
2891,963,1025
2892,963,1024
2893,962,1019
2894,961,1021
2895,963,1021
2896,966,1023
2897,969,1024
2898,966,1022
2899,959,1020
2900,961,1021
2901,963,1023
2902,969,1028
2903,971,1027
2904,968,1025
2905,966,1025
2906,965,1023
2907,971,1025
2908,974,1028
2909,976,1026
2910,977,1023
2911,976,1021
2912,977,1021
2913,985,1021
2914,1003,1025
2915,1032,1022
2916,1090,1019
2917,1180,1013
2918,1270,1013
2919,1319,1008
2920,1305,999
2921,1257,978
2922,1217,942
2923,1196,885
2924,1185,817
2925,1171,771
2926,1158,768
2927,1141,795
2928,1118,811
2929,1096,819
2930,1073,826
2931,1051,831
2932,1029,837
2933,1008,839
2934,981,837
2935,951,838
2936,927,841
2937,903,841
2938,878,842
2939,852,838
2940,818,833
2941,784,831
2942,756,831
2943,734,833
2944,722,836
2945,705,834
2946,690,830
2947,667,826
2948,653,826
2949,643,826
2950,639,828
2951,636,826
2952,634,817
2953,635,816
2954,639,815
2955,648,813
2956,662,811
2957,670,808
2958,687,803
2959,702,799
2960,723,797
2961,747,800
2962,774,804
2963,799,811
2964,815,817
2965,827,819
2966,835,826
2967,842,834
2968,850,843
2969,862,852
2970,873,858
2971,880,864
2972,893,877
2973,910,892
2974,926,907
2975,945,916
2976,959,931
2977,969,944
2978,981,953
2979,994,969
2980,1008,984
2981,1018,994
2982,1024,999
2983,1029,1004
2984,1034,1013
2985,1039,1023
2986,1044,1031
2987,1050,1033
2988,1053,1038
2989,1051,1040
2990,1054,1045
2991,1054,1049
2992,1057,1051
2993,1057,1055
2994,1057,1056
2995,1054,1055
2996,1055,1058
2997,1058,1061
2998,1063,1068
2999,1068,1065
3000,1067,1068
3001,1063,1065
3002,1065,1067
3003,1069,1072
3004,1072,1077
3005,1078,1077
3006,1078,1076
3007,1075,1075
3008,1079,1078
3009,1081,1081
3010,1085,1083
3011,1089,1085
3012,1092,1082
3013,1089,1083
3014,1093,1083
3015,1096,1085
3016,1101,1088
3017,1103,1086
3018,1107,1087
3019,1105,1086
3020,1108,1089
3021,1113,1094
3022,1115,1096
3023,1120,1096
3024,1122,1093
3025,1122,1091
3026,1125,1093
3027,1132,1098
3028,1136,1100
3029,1143,1101
3030,1142,1099
3031,1144,1095
3032,1148,1100
3033,1152,1104
3034,1160,1105
3035,1164,1106
3036,1170,1101
3037,1174,1104
3038,1176,1106
3039,1182,1109
3040,1188,1113
3041,1193,1114
3042,1197,1115
3043,1202,1116
3044,1204,1122
3045,1208,1125
3046,1211,1133
3047,1214,1133
3048,1212,1131
3049,1208,1135
3050,1209,1137
3051,1205,1141
3052,1208,1145
3053,1205,1143
3054,1200,1144
3055,1194,1143
3056,1185,1145
3057,1183,1148
3058,1178,1146
3059,1176,1146
3060,1166,1143
3061,1159,1142
3062,1149,1140
3063,1143,1140
3064,1138,1142
3065,1127,1134
3066,1116,1132
3067,1106,1127
3068,1094,1125
3069,1087,1122
3070,1082,1121
3071,1074,1116
3072,1064,1112
3073,1053,1104
3074,1045,1101
3075,1038,1097
3076,1032,1096
3077,1029,1089
3078,1023,1086
3079,1013,1080
3080,1006,1078
3081,1001,1077
3082,1001,1076
3083,1002,1072
3084,998,1067
3085,988,1063
3086,988,1060
3087,987,1062
3088,990,1062
3089,988,1057
3090,987,1055
3091,982,1050
3092,980,1051
3093,982,1055
3094,984,1058
3095,985,1058
3096,981,1056
3097,978,1055
3098,977,1056
3099,978,1061
3100,984,1063
3101,985,1062
3102,980,1058
3103,977,1052
3104,976,1053
3105,978,1059
3106,981,1059
3107,982,1058
3108,980,1054
3109,980,1055
3110,981,1056
3111,981,1056
3112,982,1061
3113,985,1057
3114,983,1055
3115,981,1054
3116,981,1053
3117,983,1055
3118,981,1057
3119,984,1055
3120,980,1053
3121,980,1053
3122,978,1053
3123,981,1054
3124,980,1055
3125,981,1053
3126,981,1049
3127,978,1046
3128,974,1046
3129,973,1048
3130,975,1051
3131,978,1049
3132,978,1046
3133,973,1044
3134,973,1043
3135,973,1042
3136,972,1044
3137,969,1044
3138,967,1044
3139,968,1040
3140,965,1039
3141,964,1041
3142,966,1046
3143,964,1044
3144,962,1045
3145,959,1043
3146,959,1043
3147,961,1047
3148,965,1047
3149,970,1047
3150,971,1047
3151,970,1044
3152,966,1048
3153,970,1050
3154,972,1055
3155,971,1049
3156,970,1047
3157,966,1045
3158,964,1044
3159,966,1048
3160,967,1049
3161,968,1048
3162,965,1043
3163,962,1043
3164,961,1047
3165,966,1047
3166,967,1052
3167,970,1050
3168,966,1048
3169,959,1046
3170,960,1046
3171,963,1045
3172,968,1046
3173,968,1045
3174,965,1041
3175,964,1037
3176,963,1039
3177,960,1041
3178,963,1041
3179,967,1040
3180,964,1035
3181,963,1037
3182,962,1038
3183,956,1035
3184,958,1038
3185,960,1036
3186,956,1033
3187,953,1031
3188,952,1032
3189,953,1037
3190,958,1040
3191,957,1039
3192,960,1035
3193,957,1034
3194,958,1032
3195,961,1033
3196,964,1038
3197,968,1037
3198,969,1034
3199,966,1031
3200,969,1032
3201,971,1035
3202,972,1038
3203,976,1037
3204,972,1034
3205,968,1033
3206,965,1034
3207,969,1035
3208,974,1038
3209,975,1036
3210,973,1032
3211,969,1029
3212,968,1031
3213,973,1032
3214,977,1035
3215,980,1032
3216,980,1028
3217,977,1025
3218,977,1026
3219,984,1025
3220,991,1028
3221,997,1025
3222,1005,1021
3223,1024,1018
3224,1064,1019
3225,1145,1020
3226,1240,1016
3227,1312,1008
3228,1318,994
3229,1275,978
3230,1230,953
3231,1203,914
3232,1191,857
3233,1185,801
3234,1166,775
3235,1145,782
3236,1123,804
3237,1106,819
3238,1086,826
3239,1060,829
3240,1030,833
3241,1003,836
3242,974,840
3243,953,843
3244,929,849
3245,903,845
3246,870,841
3247,842,836
3248,813,836
3249,789,837
3250,765,841
3251,748,839
3252,727,837
3253,707,835
3254,687,836
3255,670,835
3256,656,839
3257,647,837
3258,639,832
3259,633,830
3260,629,829
3261,632,829
3262,638,833
3263,649,827
3264,651,822
3265,655,816
3266,664,810
3267,681,808
3268,706,808
3269,733,807
3270,758,807
3271,784,808
3272,804,816
3273,822,827
3274,834,838
3275,837,843
3276,841,846
3277,847,851
3278,858,860
3279,872,871
3280,887,883
3281,904,893
3282,915,900
3283,928,907
3284,940,921
3285,959,937
3286,976,953
3287,990,964
3288,999,971
3289,1004,979
3290,1009,987
3291,1016,999
3292,1023,1008
3293,1029,1014
3294,1034,1017
3295,1036,1023
3296,1035,1028
3297,1042,1033
3298,1045,1039
3299,1049,1043
3300,1050,1041
3301,1053,1046
3302,1052,1051
3303,1056,1052
3304,1061,1057
3305,1064,1059
3306,1063,1058
3307,1063,1059
3308,1064,1061
3309,1068,1065
3310,1075,1070
3311,1077,1073
3312,1076,1072
3313,1076,1073
3314,1076,1076
3315,1082,1083
3316,1091,1088
3317,1095,1090
3318,1093,1092
3319,1090,1087
3320,1089,1086
3321,1093,1082
3322,1100,1078
3323,1103,1070
3324,1107,1070
3325,1102,1067
3326,1105,1072
3327,1111,1079
3328,1114,1083
3329,1121,1083
3330,1124,1082
3331,1122,1081
3332,1125,1083
3333,1127,1087
3334,1134,1090
3335,1141,1089
3336,1143,1087
3337,1142,1087
3338,1145,1088
3339,1153,1090
3340,1159,1094
3341,1166,1095
3342,1169,1090
3343,1172,1089
3344,1172,1089
3345,1178,1091
3346,1187,1095
3347,1191,1093
3348,1196,1093
3349,1200,1092
3350,1201,1092
3351,1208,1095
3352,1215,1100
3353,1216,1102
3354,1214,1103
3355,1212,1103
3356,1213,1107
3357,1215,1112
3358,1221,1118
3359,1221,1118
3360,1218,1118
3361,1219,1116
3362,1216,1124
3363,1217,1123
3364,1214,1130
3365,1215,1128
3366,1209,1127
3367,1199,1129
3368,1193,1131
3369,1188,1136
3370,1185,1138
3371,1182,1135
3372,1172,1129
3373,1163,1129
3374,1153,1129
3375,1142,1129
3376,1135,1127
3377,1128,1123
3378,1119,1120
3379,1106,1113
3380,1095,1110
3381,1089,1108
3382,1086,1107
3383,1079,1102
3384,1072,1096
3385,1061,1090
3386,1052,1087
3387,1046,1085
3388,1042,1084
3389,1036,1078
3390,1030,1073
3391,1020,1065
3392,1015,1066
3393,1015,1064
3394,1011,1063
3395,1013,1059
3396,1011,1052
3397,1006,1050
3398,1001,1045
3399,1002,1045
3400,1003,1044
3401,1003,1040
3402,999,1036
3403,998,1033
3404,995,1031
3405,996,1033
3406,997,1037
3407,997,1034
3408,996,1035
3409,990,1035
3410,991,1036
3411,994,1041
3412,997,1042
3413,1000,1042
3414,999,1038
3415,997,1039
3416,994,1041
3417,992,1043
3418,992,1046
3419,995,1044
3420,993,1044
3421,992,1043
3422,996,1044
3423,994,1048
3424,997,1050
3425,997,1050
3426,995,1049
3427,991,1047
3428,990,1046
3429,993,1047
3430,993,1052
3431,996,1048
3432,992,1046
3433,987,1045
3434,985,1043
3435,985,1046
3436,988,1045
3437,987,1046
3438,986,1045
3439,983,1041
3440,982,1041
3441,984,1041
3442,986,1045
3443,987,1046
3444,985,1042
3445,978,1039
3446,979,1036
3447,981,1035
3448,980,1035
3449,981,1034
3450,980,1031
3451,975,1029
3452,975,1028
3453,977,1029
3454,978,1030
3455,976,1029
3456,972,1029
3457,967,1026
3458,967,1029
3459,969,1030
3460,974,1033
3461,974,1031
3462,974,1028
3463,975,1027
3464,975,1025
3465,979,1030
3466,979,1034
3467,979,1034
3468,980,1033
3469,975,1036
3470,976,1034
3471,979,1038
3472,979,1040
3473,981,1037
3474,976,1035
3475,977,1035
3476,974,1035
3477,979,1039
3478,983,1040
3479,980,1039
3480,982,1038
3481,978,1034
3482,975,1037
3483,971,1039
3484,980,1037
3485,980,1034
3486,979,1033
3487,976,1032
3488,977,1034
3489,977,1036
3490,981,1036
3491,981,1034
3492,979,1031
3493,975,1029
3494,975,1028
3495,977,1032
3496,980,1031
3497,983,1029
3498,979,1027
3499,979,1023
3500,980,1025
3501,979,1025
3502,982,1027
3503,984,1025
3504,981,1021
3505,976,1020
3506,975,1020
3507,976,1021
3508,978,1027
3509,980,1023
3510,976,1022
3511,973,1020
3512,970,1024
3513,972,1025
3514,977,1028
3515,979,1027
3516,979,1025
3517,979,1024
3518,980,1024
3519,983,1027
3520,987,1031
3521,986,1026
3522,988,1027
3523,988,1023
3524,989,1025
3525,989,1027
3526,993,1027
3527,998,1027
3528,996,1023
3529,1002,1022
3530,1010,1024
3531,1023,1023
3532,1052,1024
3533,1100,1021
3534,1183,1017
3535,1267,1013
3536,1319,1009
3537,1312,1002
3538,1273,987
3539,1238,956
3540,1215,898
3541,1198,830
3542,1184,768
3543,1173,747
3544,1157,759
3545,1142,788
3546,1123,803
3547,1096,811
3548,1075,817
3549,1051,823
3550,1028,829
3551,1002,831
3552,973,827
3553,945,825
3554,916,830
3555,889,829
3556,860,830
3557,832,825
3558,798,823
3559,768,820
3560,735,821
3561,713,824
3562,701,825
3563,681,821
3564,660,818
3565,645,811
3566,632,815
3567,630,817
3568,631,817
3569,628,820
3570,634,817
3571,636,814
3572,642,813
3573,652,812
3574,668,811
3575,680,806
3576,699,801
3577,718,794
3578,743,793
3579,771,797
3580,800,803
3581,825,809
3582,838,814
3583,845,823
3584,853,829
3585,867,840
3586,880,847
3587,894,855
3588,906,862
3589,916,869
3590,929,882
3591,945,897
3592,962,911
3593,977,921
3594,987,928
3595,997,938
3596,1006,951
3597,1019,969
3598,1031,984
3599,1043,995
3600,1047,998
3601,1045,1006
3602,1049,1016
3603,1054,1024
3604,1058,1031
3605,1063,1034
3606,1064,1037
3607,1062,1036
3608,1064,1040
3609,1065,1044
3610,1071,1048
3611,1073,1049
3612,1070,1050
3613,1067,1052
3614,1069,1054
3615,1072,1058
3616,1074,1061
3617,1073,1062
3618,1072,1057
3619,1075,1056
3620,1075,1058
3621,1082,1067
3622,1088,1070
3623,1093,1068
3624,1094,1066
3625,1095,1064
3626,1095,1069
3627,1100,1074
3628,1105,1078
3629,1108,1077
3630,1108,1077
3631,1109,1076
3632,1112,1077
3633,1117,1080
3634,1124,1082
3635,1130,1083
3636,1130,1083
3637,1129,1081
3638,1133,1085
3639,1134,1088
3640,1141,1089
3641,1144,1091
3642,1147,1093
3643,1148,1091
3644,1151,1091
3645,1158,1096
3646,1163,1099
3647,1166,1097
3648,1169,1092
3649,1173,1089
3650,1174,1096
3651,1179,1099
3652,1182,1101
3653,1190,1102
3654,1195,1098
3655,1196,1097
3656,1199,1101
3657,1202,1104
3658,1208,1107
3659,1211,1107
3660,1211,1105
3661,1212,1107
3662,1213,1107
3663,1216,1115
3664,1222,1120
3665,1222,1119
3666,1222,1120
3667,1219,1119
3668,1219,1123
3669,1219,1129
3670,1220,1131
3671,1219,1129
3672,1216,1126
3673,1214,1128
3674,1209,1132
3675,1208,1135
3676,1205,1139
3677,1203,1138
3678,1197,1137
3679,1188,1133
3680,1177,1135
3681,1175,1138
3682,1169,1137
3683,1165,1135
3684,1158,1130
3685,1148,1127
3686,1139,1126
3687,1133,1127
3688,1128,1129
3689,1121,1124
3690,1112,1117
3691,1101,1112
3692,1090,1111
3693,1084,1110
3694,1078,1108
3695,1070,1104
3696,1062,1097
3697,1050,1089
3698,1045,1085
3699,1039,1084
3700,1037,1084
3701,1031,1086
3702,1025,1079
3703,1023,1076
3704,1019,1068
3705,1015,1064
3706,1016,1061
3707,1014,1056
3708,1009,1055
3709,1008,1047
3710,1003,1045
3711,1002,1045
3712,1002,1048
3713,1001,1047
3714,997,1041
3715,992,1038
3716,994,1037
3717,994,1039
3718,997,1043
3719,1000,1042
3720,995,1041
3721,993,1038
3722,994,1038
3723,997,1040
3724,998,1042
3725,1000,1041
3726,998,1042
3727,995,1042
3728,993,1043
3729,997,1047
3730,1002,1051
3731,1003,1047
3732,999,1046
3733,998,1043
3734,998,1043
3735,998,1048
3736,1000,1052
3737,999,1050
3738,997,1053
3739,996,1052
3740,993,1050
3741,999,1054
3742,1000,1055
3743,999,1055
3744,995,1055
3745,991,1051
3746,989,1054
3747,992,1055
3748,997,1059
3749,994,1060
3750,993,1054
3751,988,1050
3752,985,1048
3753,985,1046
3754,989,1048
3755,990,1045
3756,988,1042
3757,984,1039
3758,983,1042
3759,982,1041
3760,981,1042
3761,979,1040
3762,976,1038
3763,972,1035
3764,974,1034
3765,974,1035
3766,978,1036
3767,978,1034
3768,975,1030
3769,972,1029
3770,973,1035
3771,974,1039
3772,977,1042
3773,978,1042
3774,973,1039
3775,971,1036
3776,969,1036
3777,966,1041
3778,971,1045
3779,973,1043
3780,975,1043
3781,974,1043
3782,976,1047
3783,975,1054
3784,984,1056
3785,987,1053
3786,980,1047
3787,981,1040
3788,977,1038
3789,980,1038
3790,984,1042
3791,986,1041
3792,986,1039
3793,985,1036
3794,981,1035
3795,983,1039
3796,985,1043
3797,984,1042
3798,983,1043
3799,982,1043
3800,980,1042
3801,984,1042
3802,985,1043
3803,987,1045
3804,988,1040
3805,986,1039
3806,982,1038
3807,983,1040
3808,985,1041
3809,987,1034
3810,985,1033
3811,978,1031
3812,982,1033
3813,982,1033
3814,984,1037
3815,982,1034
3816,975,1032
3817,972,1030
3818,973,1030
3819,977,1033
3820,982,1034
3821,980,1031
3822,980,1028
3823,978,1026
3824,979,1026
3825,981,1025
3826,984,1028
3827,983,1025
3828,981,1021
3829,976,1021
3830,974,1022
3831,977,1025
3832,980,1026
3833,983,1026
3834,980,1025
3835,979,1022
3836,979,1025
3837,986,1029
3838,993,1032
3839,996,1031
3840,998,1026
3841,995,1024
3842,999,1026
3843,1009,1028
3844,1028,1030
3845,1061,1030
3846,1122,1026
3847,1206,1021
3848,1286,1020
3849,1315,1019
3850,1294,1009
3851,1253,990
3852,1223,945
3853,1205,877
3854,1190,806
3855,1173,775
3856,1153,798
3857,1132,825
3858,1109,838
3859,1083,841
3860,1064,845
3861,1042,852
3862,1018,854
3863,994,858
3864,964,857
3865,931,853
3866,906,852
3867,877,849
3868,849,849
3869,819,846
3870,787,842
3871,761,839
3872,741,837
3873,725,840
3874,709,838
3875,692,834
3876,675,831
3877,661,827
3878,654,825
3879,654,828
3880,651,828
3881,653,824
3882,657,818
3883,662,812
3884,667,812
3885,681,808
3886,702,809
3887,726,805
3888,749,799
3889,773,800
3890,798,804
3891,820,812
3892,840,820
3893,852,827
3894,856,833
3895,855,838
3896,864,848
3897,877,861
3898,894,874
3899,913,882
3900,925,889
3901,940,901
3902,952,912
3903,966,928
3904,985,944
3905,995,955
3906,1005,966
3907,1011,977
3908,1020,990
3909,1027,1005
3910,1039,1016
3911,1044,1025
3912,1045,1030
3913,1044,1035
3914,1044,1042
3915,1049,1047
3916,1059,1053
3917,1062,1055
3918,1062,1054
3919,1059,1053
3920,1059,1055
3921,1061,1058
3922,1064,1060
3923,1065,1060
3924,1065,1057
3925,1063,1057
3926,1065,1060
3927,1068,1063
3928,1078,1067
3929,1077,1062
3930,1078,1063
3931,1078,1062
3932,1080,1065
3933,1082,1068
3934,1087,1073
3935,1090,1075
3936,1091,1077
3937,1091,1077
3938,1092,1079
3939,1096,1081
3940,1102,1079
3941,1108,1076
3942,1109,1078
3943,1111,1080
3944,1114,1084
3945,1120,1088
3946,1122,1091
3947,1127,1093
3948,1127,1090
3949,1125,1089
3950,1131,1096
3951,1138,1099
3952,1145,1103
3953,1149,1103
3954,1151,1105
3955,1151,1106
3956,1153,1109
3957,1159,1114
3958,1167,1119
3959,1172,1118
3960,1174,1114
3961,1173,1115
3962,1178,1119
3963,1185,1122
3964,1191,1128
3965,1195,1126
3966,1195,1125
3967,1197,1122
3968,1199,1126
3969,1196,1129
3970,1202,1133
3971,1203,1133
3972,1203,1133
3973,1200,1131
3974,1200,1135
3975,1204,1139
3976,1205,1142
3977,1207,1141
3978,1202,1138
3979,1197,1139
3980,1194,1138
3981,1192,1142
3982,1194,1144
3983,1189,1144
3984,1181,1138
3985,1174,1136
3986,1167,1138
3987,1163,1137
3988,1159,1138
3989,1152,1137
3990,1143,1135
3991,1136,1129
3992,1129,1126
3993,1122,1127
3994,1119,1129
3995,1111,1122
3996,1105,1116
3997,1094,1111
3998,1083,1109
3999,1078,1107
4000,1072,1107
4001,1069,1101
4002,1060,1095
4003,1049,1088
4004,1044,1088
4005,1043,1089
4006,1040,1086
4007,1038,1083
4008,1030,1075
4009,1028,1071
4010,1024,1070
4011,1025,1070
4012,1024,1071
4013,1024,1069
4014,1023,1063
4015,1016,1059
4016,1012,1059
4017,1011,1058
4018,1015,1059
4019,1015,1058
4020,1014,1053
4021,1012,1050
4022,1010,1052
4023,1011,1052
4024,1013,1054
4025,1016,1053
4026,1016,1048
4027,1013,1046
4028,1010,1047
4029,1014,1049
4030,1014,1050
4031,1013,1048
4032,1012,1048
4033,1007,1046
4034,1008,1046
4035,1011,1049
4036,1014,1052
4037,1016,1050
4038,1014,1048
4039,1012,1048
4040,1007,1053
4041,1009,1055
4042,1011,1058
4043,1014,1054
4044,1010,1053
4045,1011,1052
4046,1008,1054
4047,1012,1058
4048,1016,1062
4049,1016,1059
4050,1015,1056
4051,1012,1054
4052,1011,1054
4053,1013,1057
4054,1013,1059
4055,1014,1058
4056,1012,1052
4057,1009,1050
4058,1010,1052
4059,1010,1055
4060,1012,1055
4061,1010,1052
4062,1009,1047
4063,1008,1045
4064,1009,1047
4065,1010,1047
4066,1012,1048
4067,1010,1045
4068,1005,1042
4069,1000,1039
4070,999,1039
4071,1001,1042
4072,1005,1040
4073,1005,1039
4074,1003,1038
4075,999,1035
4076,998,1039
4077,997,1040
4078,999,1043
4079,999,1043
4080,997,1041
4081,994,1039
4082,992,1036
4083,994,1039
4084,998,1042
4085,999,1040
4086,998,1038
4087,996,1036
4088,999,1038
4089,1000,1042
4090,999,1046
4091,999,1045
4092,996,1043
4093,997,1041
4094,994,1044
4095,996,1048
4096,1002,1048
4097,998,1047
4098,994,1043
4099,993,1040
4100,994,1043
4101,995,1046
4102,996,1047
4103,999,1048
4104,996,1041
4105,992,1040
4106,993,1043
4107,994,1044
4108,1000,1046
4109,999,1043
4110,997,1038
4111,994,1036
4112,996,1035
4113,995,1038
4114,998,1039
4115,1001,1037
4116,1000,1033
4117,996,1029
4118,995,1030
4119,996,1032
4120,1000,1032
4121,998,1031
4122,1000,1027
4123,997,1024
4124,997,1024
4125,998,1027
4126,1001,1028
4127,999,1027
4128,997,1027
4129,993,1025
4130,996,1026
4131,999,1030
4132,1003,1030
4133,1003,1026
4134,1003,1023
4135,1003,1022
4136,1003,1022
4137,1011,1023
4138,1018,1023
4139,1023,1020
4140,1029,1018
4141,1046,1018
4142,1081,1021
4143,1158,1022
4144,1250,1023
4145,1319,1016
4146,1325,1006
4147,1283,989
4148,1240,965
4149,1216,917
4150,1209,856
4151,1195,796
4152,1177,776
4153,1153,795
4154,1134,820
4155,1114,833
4156,1096,839
4157,1073,844
4158,1044,846
4159,1015,846
4160,985,849
4161,957,852
4162,931,854
4163,904,848
4164,871,842
4165,833,837
4166,798,838
4167,770,840
4168,745,842
4169,725,834
4170,702,830
4171,685,823
4172,667,824
4173,658,827
4174,653,829
4175,641,826
4176,638,821
4177,635,820
4178,639,817
4179,653,822
4180,664,819
4181,677,816
4182,689,808
4183,708,806
4184,733,804
4185,765,803
4186,799,806
4187,832,807
4188,852,813
4189,862,819
4190,873,828
4191,884,837
4192,899,845
4193,916,850
4194,926,856
4195,937,865
4196,947,879
4197,965,891
4198,982,908
4199,995,918
4200,1012,930
4201,1023,945
4202,1034,959
4203,1047,970
4204,1062,984
4205,1068,995
4206,1069,1001
4207,1071,1011
4208,1073,1022
4209,1080,1031
4210,1087,1040
4211,1090,1039
4212,1089,1043
4213,1088,1043
4214,1094,1046
4215,1097,1051
4216,1102,1054
4217,1104,1051
4218,1105,1050
4219,1105,1048
4220,1103,1055
4221,1106,1058
4222,1107,1061
4223,1113,1060
4224,1110,1058
4225,1110,1057
4226,1109,1062
4227,1115,1065
4228,1119,1070
4229,1125,1070
4230,1122,1068
4231,1122,1068
4232,1123,1069
4233,1129,1074
4234,1136,1076
4235,1137,1075
4236,1141,1076
4237,1141,1077
4238,1141,1081
4239,1151,1086
4240,1157,1092
4241,1164,1090
4242,1165,1090
4243,1171,1089
4244,1175,1092
4245,1177,1097
4246,1187,1102
4247,1195,1100
4248,1198,1098
4249,1200,1097
4250,1204,1101
4251,1207,1104
4252,1214,1105
4253,1219,1103
4254,1219,1103
4255,1225,1103
4256,1232,1107
4257,1237,1112
4258,1245,1113
4259,1251,1116
4260,1251,1111
4261,1253,1113
4262,1254,1119
4263,1261,1120
4264,1264,1124
4265,1268,1121
4266,1266,1125
4267,1261,1125
4268,1257,1127
4269,1254,1131
4270,1250,1128
4271,1246,1125
4272,1238,1123
4273,1233,1125
4274,1229,1131
4275,1224,1136
4276,1221,1138
4277,1215,1134
4278,1208,1135
4279,1197,1128
4280,1189,1128
4281,1182,1132
4282,1176,1130
4283,1169,1127
4284,1160,1124
4285,1148,1118
4286,1140,1119
4287,1132,1118
4288,1123,1117
4289,1115,1111
4290,1105,1103
4291,1092,1097
4292,1084,1094
4293,1080,1094
4294,1077,1091
4295,1071,1084
4296,1064,1076
4297,1055,1072
4298,1052,1070
4299,1054,1070
4300,1053,1068
4301,1049,1065
4302,1043,1059
4303,1039,1053
4304,1034,1055
4305,1038,1056
4306,1040,1055
4307,1040,1050
4308,1039,1046
4309,1035,1042
4310,1036,1043
4311,1031,1044
4312,1035,1045
4313,1036,1044
4314,1034,1041
4315,1029,1039
4316,1025,1040
4317,1024,1042
4318,1024,1045
4319,1024,1041
4320,1023,1040
4321,1019,1039
4322,1018,1043
4323,1021,1046
4324,1021,1049
4325,1018,1050
4326,1016,1046
4327,1010,1044
4328,1010,1048
4329,1009,1051
4330,1015,1056
4331,1015,1056
4332,1015,1056
4333,1013,1054
4334,1015,1055
4335,1017,1056
4336,1019,1055
4337,1021,1056
4338,1018,1048
4339,1015,1049
4340,1014,1048
4341,1011,1049
4342,1012,1051
4343,1009,1051
4344,1006,1045
4345,1000,1045
4346,1003,1047
4347,1004,1051
4348,1006,1049
4349,1005,1049
4350,999,1045
4351,998,1043
4352,999,1043
4353,1002,1044
4354,1003,1045
4355,1005,1043
4356,1001,1039
4357,999,1037
4358,994,1041
4359,995,1042
4360,997,1044
4361,994,1041
4362,997,1039
4363,997,1037
4364,997,1041
4365,998,1041
4366,999,1046
4367,1000,1043
4368,998,1043
4369,998,1041
4370,998,1043
4371,998,1048
4372,1001,1049
4373,1000,1049
4374,994,1046
4375,995,1044
4376,994,1047
4377,998,1049
4378,998,1051
4379,999,1046
4380,997,1043
4381,994,1041
4382,998,1044
4383,998,1048
4384,1003,1051
4385,999,1047
4386,997,1042
4387,996,1042
4388,992,1041
4389,996,1042
4390,998,1044
4391,997,1043
4392,998,1039
4393,995,1037
4394,995,1039
4395,996,1038
4396,998,1040
4397,1001,1039
4398,997,1038
4399,990,1034
4400,991,1035
4401,995,1038
4402,998,1041
4403,998,1039
4404,997,1035
4405,996,1032
4406,996,1033
4407,997,1037
4408,1000,1039
4409,1002,1036
4410,1004,1035
4411,1000,1031
4412,1002,1033
4413,1005,1035
4414,1008,1039
4415,1009,1039
4416,1004,1036
4417,1005,1033
4418,1005,1034
4419,1010,1036
4420,1014,1038
4421,1019,1034
4422,1022,1029
4423,1028,1025
4424,1054,1028
4425,1108,1027
4426,1197,1028
4427,1282,1019
4428,1315,1010
4429,1283,994
4430,1235,964
4431,1206,916
4432,1200,853
4433,1189,799
4434,1172,787
4435,1146,805
4436,1123,824
4437,1102,838
4438,1080,845
4439,1056,846
4440,1027,846
4441,997,848
4442,965,849
4443,930,849
4444,899,848
4445,860,845
4446,823,841
4447,784,838
4448,755,839
4449,733,841
4450,717,843
4451,697,841
4452,676,838
4453,655,833
4454,641,833
4455,632,835
4456,629,835
4457,628,834
4458,625,832
4459,622,830
4460,630,831
4461,641,832
4462,656,828
4463,672,826
4464,691,820
4465,713,818
4466,735,816
4467,770,819
4468,805,824
4469,834,827
4470,849,833
4471,860,840
4472,871,849
4473,886,859
4474,904,866
4475,918,874
4476,932,880
4477,940,888
4478,954,900
4479,967,915
4480,982,929
4481,996,942
4482,1011,951
4483,1018,963
4484,1028,975
4485,1037,988
4486,1050,1001
4487,1056,1009
4488,1062,1015
4489,1064,1022
4490,1064,1027
4491,1066,1039
4492,1074,1040
4493,1070,1044
4494,1069,1045
4495,1068,1045
4496,1072,1048
4497,1077,1056
4498,1084,1060
4499,1085,1061
4500,1083,1059
4501,1081,1058
4502,1080,1062
4503,1088,1066
4504,1091,1070
4505,1094,1068
4506,1095,1071
4507,1095,1071
4508,1095,1074
4509,1099,1079
4510,1104,1082
4511,1107,1082
4512,1108,1080
4513,1105,1080
4514,1109,1081
4515,1116,1084
4516,1119,1090
4517,1124,1086
4518,1123,1085
4519,1127,1086
4520,1125,1090
4521,1130,1092
4522,1136,1093
4523,1139,1088
4524,1142,1089
4525,1143,1090
4526,1146,1092
4527,1153,1093
4528,1161,1094
4529,1169,1092
4530,1169,1092
4531,1172,1091
4532,1180,1094
4533,1184,1097
4534,1192,1101
4535,1199,1102
4536,1200,1100
4537,1203,1100
4538,1207,1104
4539,1213,1110
4540,1218,1113
4541,1221,1116
4542,1218,1118
4543,1218,1119
4544,1220,1125
4545,1224,1128
4546,1231,1130
4547,1232,1131
4548,1230,1131
4549,1229,1132
4550,1229,1136
4551,1230,1144
4552,1229,1148
4553,1228,1146
4554,1220,1144
4555,1215,1145
4556,1209,1146
4557,1206,1152
4558,1206,1154
4559,1198,1149
4560,1189,1144
4561,1174,1144
4562,1168,1141
4563,1160,1142
4564,1152,1141
4565,1143,1136
4566,1130,1130
4567,1116,1125
4568,1112,1122
4569,1105,1121
4570,1099,1119
4571,1091,1111
4572,1081,1102
4573,1069,1095
4574,1064,1092
4575,1058,1091
4576,1055,1090
4577,1051,1084
4578,1042,1077
4579,1035,1073
4580,1031,1071
4581,1029,1071
4582,1030,1070
4583,1025,1064
4584,1022,1057
4585,1017,1054
4586,1013,1057
4587,1012,1056
4588,1016,1059
4589,1013,1058
4590,1009,1051
4591,1006,1047
4592,1004,1049
4593,1007,1050
4594,1010,1051
4595,1011,1052
4596,1008,1049
4597,1008,1049
4598,1008,1054
4599,1011,1056
4600,1011,1057
4601,1009,1057
4602,1007,1055
4603,1004,1052
4604,1003,1055
4605,1005,1056
4606,1007,1058
4607,1007,1056
4608,1002,1053
4609,1001,1055
4610,1001,1055
4611,1004,1058
4612,1008,1059
4613,1006,1057
4614,1002,1053
4615,1002,1052
4616,999,1054
4617,1000,1054
4618,1002,1056
4619,1005,1054
4620,1001,1049
4621,999,1047
4622,997,1047
4623,996,1048
4624,1000,1050
4625,999,1045
4626,997,1043
4627,992,1042
4628,994,1041
4629,996,1043
4630,999,1043
4631,994,1042
4632,995,1041
4633,992,1042
4634,991,1042
4635,991,1041
4636,994,1045
4637,993,1045
4638,989,1041
4639,983,1040
4640,985,1044
4641,987,1045
4642,990,1047
4643,993,1048
4644,986,1044
4645,983,1040
4646,982,1047
4647,983,1049
4648,985,1052
4649,988,1050
4650,985,1045
4651,981,1047
4652,982,1047
4653,984,1048
4654,985,1048
4655,986,1047
4656,987,1048
4657,982,1045
4658,982,1046
4659,989,1049
4660,989,1049
4661,991,1047
4662,988,1042
4663,984,1042
4664,982,1040
4665,984,1043
4666,984,1045
4667,986,1043
4668,985,1040
4669,979,1038
4670,980,1038
4671,985,1038
4672,987,1041
4673,985,1039
4674,984,1036
4675,983,1036
4676,982,1037
4677,985,1039
4678,986,1040
4679,984,1037
4680,982,1034
4681,977,1032
4682,974,1035
4683,980,1039
4684,983,1039
4685,982,1037
4686,982,1036
4687,981,1036
4688,982,1037
4689,986,1041
4690,988,1040
4691,987,1038
4692,989,1036
4693,986,1034
4694,986,1037
4695,986,1041
4696,990,1043
4697,985,1042
4698,984,1041
4699,983,1039
4700,984,1041
4701,986,1042
4702,993,1043
4703,996,1041
4704,997,1039
4705,998,1039
4706,1004,1036
4707,1015,1040
4708,1033,1038
4709,1070,1036
4710,1140,1033
4711,1228,1029
4712,1286,1028
4713,1284,1019
4714,1243,1007
4715,1206,978
4716,1183,931
4717,1169,868
4718,1160,813
4719,1142,788
4720,1128,797
4721,1110,819
4722,1084,835
4723,1061,840
4724,1035,846
4725,1016,851
4726,994,856
4727,970,856
4728,937,855
4729,909,852
4730,879,851
4731,848,850
4732,815,850
4733,780,843
4734,747,841
4735,721,837
4736,700,842
4737,686,841
4738,675,839
4739,660,836
4740,647,831
4741,637,829
4742,633,827
4743,630,828
4744,634,832
4745,634,828
4746,644,819
4747,650,816
4748,657,808
4749,674,803
4750,697,800
4751,721,797
4752,751,789
4753,777,789
4754,805,794
4755,828,802
4756,844,813
4757,849,818
4758,851,826
4759,857,827
4760,868,836
4761,882,851
4762,895,861
4763,910,870
4764,921,881
4765,931,892
4766,943,905
4767,962,919
4768,979,935
4769,989,947
4770,1000,960
4771,1007,969
4772,1014,982
4773,1021,997
4774,1028,1005
4775,1033,1017
4776,1035,1023
4777,1034,1031
4778,1036,1039
4779,1045,1048
4780,1048,1054
4781,1049,1053
4782,1051,1055
4783,1049,1055
4784,1051,1061
4785,1051,1065
4786,1058,1068
4787,1058,1068
4788,1057,1065
4789,1055,1069
4790,1055,1071
4791,1057,1075
4792,1061,1078
4793,1062,1080
4794,1062,1079
4795,1063,1081
4796,1070,1084
4797,1073,1089
4798,1081,1091
4799,1084,1091
4800,1082,1091
4801,1083,1091
4802,1082,1095
4803,1090,1099
4804,1094,1105
4805,1096,1105
4806,1095,1103
4807,1095,1104
4808,1095,1108
4809,1100,1112
4810,1108,1114
4811,1110,1117
4812,1106,1115
4813,1109,1113
4814,1112,1117
4815,1117,1118
4816,1121,1122
4817,1123,1122
4818,1125,1117
4819,1125,1118
4820,1130,1121
4821,1136,1125
4822,1142,1128
4823,1146,1128
4824,1148,1126
4825,1146,1128
4826,1147,1130
4827,1153,1135
4828,1161,1139
4829,1163,1138
4830,1167,1139
4831,1167,1140
4832,1169,1143
4833,1176,1150
4834,1180,1152
4835,1182,1152
4836,1181,1150
4837,1179,1151
4838,1180,1151
4839,1186,1153
4840,1187,1154
4841,1186,1154
4842,1184,1155
4843,1185,1154
4844,1185,1158
4845,1189,1161
4846,1192,1163
4847,1190,1161
4848,1181,1158
4849,1177,1155
4850,1174,1154
4851,1170,1156
4852,1169,1157
4853,1162,1155
4854,1155,1150
4855,1145,1148
4856,1138,1151
4857,1136,1152
4858,1131,1151
4859,1122,1149
4860,1112,1145
4861,1104,1144
4862,1095,1143
4863,1088,1141
4864,1085,1138
4865,1077,1132
4866,1067,1129
4867,1060,1121
4868,1051,1121
4869,1046,1117
4870,1041,1114
4871,1038,1110
4872,1030,1103
4873,1024,1098
4874,1018,1098
4875,1018,1095
4876,1015,1092
4877,1011,1091
4878,1008,1087
4879,1001,1082
4880,1000,1082
4881,995,1084
4882,993,1083
4883,991,1082
4884,993,1079
4885,990,1076
4886,990,1072
4887,994,1075
4888,999,1077
4889,1000,1076
4890,1000,1074
4891,994,1070
4892,994,1070
4893,997,1072
4894,1002,1073
4895,1007,1070
4896,1007,1070
4897,1006,1069
4898,1004,1070
4899,1005,1070
4900,1009,1071
4901,1008,1067
4902,1003,1062
4903,998,1063
4904,995,1062
4905,995,1062
4906,999,1064
4907,999,1063
4908,997,1061
4909,992,1062
4910,993,1063
4911,996,1065
4912,996,1065
4913,994,1063
4914,988,1063
4915,981,1061
4916,983,1064
4917,987,1064
4918,988,1069
4919,987,1066
4920,984,1062
4921,981,1062
4922,977,1064
4923,977,1067
4924,979,1070
4925,979,1068
4926,975,1064
4927,975,1064
4928,975,1067
4929,976,1068
4930,979,1071
4931,978,1070
4932,977,1066
4933,974,1065
4934,974,1067
4935,974,1068
4936,974,1070
4937,978,1068
4938,974,1068
4939,974,1064
4940,971,1068
4941,977,1070
4942,978,1072
4943,975,1072
4944,975,1070
4945,971,1068
4946,974,1069
4947,977,1070
4948,981,1070
4949,980,1065
4950,979,1064
4951,978,1068
4952,979,1067
4953,983,1066
4954,985,1065
4955,983,1061
4956,976,1056
4957,973,1053
4958,972,1051
4959,973,1055
4960,978,1058
4961,977,1054
4962,974,1052
4963,972,1051
4964,970,1054
4965,973,1056
4966,974,1057
4967,972,1055
4968,970,1053
4969,968,1052
4970,968,1058
4971,971,1059
4972,972,1061
4973,973,1057
4974,971,1054
4975,971,1056
4976,970,1057
4977,974,1060
4978,976,1060
4979,975,1060
4980,975,1055
4981,971,1053
4982,967,1054
4983,971,1057
4984,975,1060
4985,979,1059
4986,977,1056
4987,975,1053
4988,975,1055
4989,975,1058
4990,980,1058
4991,980,1056
4992,980,1054
4993,977,1050
4994,974,1050
4995,981,1052
4996,980,1050
4997,985,1050
4998,983,1046
4999,980,1044
5000,982,1042
5001,983,1045
5002,987,1047
5003,990,1045
5004,987,1040
5005,983,1036
5006,986,1040
5007,988,1041
5008,996,1042
5009,997,1040
5010,1007,1034
5011,1023,1032
5012,1066,1031
5013,1146,1034
5014,1232,1031
5015,1281,1023
5016,1267,1008
5017,1224,985
5018,1189,951
5019,1175,899
5020,1168,840
5021,1158,811
5022,1135,818
5023,1115,837
5024,1095,855
5025,1070,862
5026,1048,867
5027,1026,870
5028,1000,872
5029,973,871
5030,945,874
5031,919,878
5032,890,876
5033,861,875
5034,826,869
5035,794,865
5036,766,864
5037,743,867
5038,722,865
5039,701,864
5040,682,862
5041,669,857
5042,653,858
5043,644,856
5044,642,858
5045,636,853
5046,631,851
5047,635,845
5048,640,839
5049,646,840
5050,661,836
5051,676,828
5052,690,821
5053,707,817
5054,734,816
5055,763,816
5056,790,817
5057,814,817
5058,829,822
5059,836,827
5060,846,839
5061,854,843
5062,864,852
5063,876,859
5064,883,862
5065,892,873
5066,906,886
5067,921,902
5068,935,915
5069,950,927
5070,958,937
5071,971,947
5072,983,963
5073,997,979
5074,1009,990
5075,1025,1004
5076,1028,1013
5077,1032,1022
5078,1038,1036
5079,1046,1047
5080,1053,1057
5081,1055,1061
5082,1055,1064
5083,1052,1070
5084,1054,1074
5085,1060,1080
5086,1064,1087
5087,1066,1084
5088,1066,1086
5089,1066,1088
5090,1066,1092
5091,1068,1098
5092,1073,1098
5093,1073,1095
5094,1072,1094
5095,1073,1094
5096,1069,1097
5097,1072,1100
5098,1078,1102
5099,1080,1100
5100,1082,1097
5101,1081,1096
5102,1084,1099
5103,1089,1101
5104,1094,1104
5105,1095,1102
5106,1095,1099
5107,1097,1099
5108,1098,1102
5109,1104,1105
5110,1110,1104
5111,1111,1105
5112,1114,1103
5113,1113,1103
5114,1117,1103
5115,1124,1105
5116,1132,1108
5117,1135,1108
5118,1134,1107
5119,1136,1108
5120,1140,1110
5121,1144,1114
5122,1152,1116
5123,1154,1117
5124,1157,1117
5125,1156,1118
5126,1158,1122
5127,1164,1128
5128,1176,1132
5129,1181,1130
5130,1181,1131
5131,1184,1133
5132,1187,1138
5133,1192,1146
5134,1201,1154
5135,1204,1153
5136,1201,1154
5137,1201,1152
5138,1203,1156
5139,1208,1160
5140,1215,1162
5141,1215,1164
5142,1215,1161
5143,1211,1164
5144,1211,1170
5145,1211,1171
5146,1209,1171
5147,1211,1170
5148,1207,1170
5149,1203,1168
5150,1199,1172
5151,1197,1174
5152,1197,1175
5153,1192,1171
5154,1183,1169
5155,1175,1166
5156,1171,1168
5157,1169,1168
5158,1164,1168
5159,1155,1161
5160,1145,1157
5161,1135,1152
5162,1126,1150
5163,1119,1150
5164,1114,1147
5165,1102,1141
5166,1096,1134
5167,1087,1130
5168,1079,1128
5169,1073,1123
5170,1069,1123
5171,1064,1117
5172,1056,1110
5173,1049,1104
5174,1042,1103
5175,1040,1104
5176,1037,1103
5177,1032,1100
5178,1027,1093
5179,1020,1092
5180,1017,1089
5181,1018,1092
5182,1017,1091
5183,1014,1088
5184,1010,1085
5185,1007,1082
5186,1004,1085
5187,1007,1087
5188,1006,1089
5189,1006,1084
5190,1002,1082
5191,1000,1080
5192,1000,1085
5193,1005,1087
5194,1007,1087
5195,1007,1087
5196,1003,1085
5197,1000,1082
5198,1001,1084
5199,1001,1085
5200,1006,1089
5201,1002,1085
5202,1000,1082
5203,997,1080
5204,1001,1084
5205,1001,1086
5206,1004,1087
5207,1005,1085
5208,1005,1078
5209,1001,1082
5210,997,1080
5211,1000,1084
5212,1003,1082
5213,1004,1080
5214,1001,1079
5215,998,1075
5216,997,1079
5217,995,1077
5218,998,1078
5219,998,1078
5220,995,1074
5221,992,1074
5222,993,1077
5223,993,1077
5224,998,1077
5225,996,1076
5226,993,1072
5227,989,1070
5228,990,1072
5229,992,1074
5230,993,1074
5231,988,1072
5232,985,1075
5233,978,1073
5234,977,1071
5235,978,1076
5236,984,1076
5237,984,1074
5238,981,1074
5239,981,1074
5240,983,1075
5241,983,1080
5242,987,1079
5243,988,1079
5244,984,1076
5245,982,1077
5246,983,1081
5247,987,1084
5248,987,1086
5249,986,1087
5250,981,1084
5251,978,1083
5252,979,1082
5253,982,1084
5254,988,1084
5255,987,1083
5256,987,1077
5257,985,1077
5258,985,1077
5259,987,1081
5260,990,1080
5261,992,1080
5262,986,1075
5263,983,1073
5264,982,1076
5265,984,1076
5266,986,1077
5267,988,1075
5268,987,1071
5269,985,1069
5270,981,1070
5271,983,1075
5272,987,1072
5273,987,1069
5274,982,1066
5275,981,1064
5276,982,1065
5277,985,1067
5278,988,1066
5279,987,1066
5280,983,1060
5281,981,1058
5282,979,1061
5283,982,1063
5284,978,1062
5285,978,1062
5286,978,1059
5287,973,1061
5288,974,1062
5289,976,1063
5290,980,1062
5291,979,1063
5292,977,1063
5293,975,1058
5294,977,1063
5295,981,1067
5296,986,1068
5297,989,1069
5298,985,1066
5299,982,1063
5300,986,1068
5301,986,1071
5302,989,1072
5303,990,1070
5304,988,1069
5305,986,1066
5306,985,1068
5307,988,1069
5308,995,1072
5309,991,1068
5310,991,1066
5311,989,1067
5312,993,1067
5313,995,1067
5314,999,1067
5315,999,1067
5316,996,1064
5317,996,1061
5318,997,1063
5319,1003,1065
5320,1003,1064
5321,1007,1059
5322,1011,1057
5323,1013,1054
5324,1030,1054
5325,1069,1054
5326,1139,1052
5327,1224,1049
5328,1282,1041
5329,1287,1036
5330,1253,1026
5331,1218,1012
5332,1200,982
5333,1186,931
5334,1176,873
5335,1156,836
5336,1138,840
5337,1121,857
5338,1104,869
5339,1090,874
5340,1069,876
5341,1045,876
5342,1024,882
5343,1006,888
5344,988,888
5345,964,888
5346,936,886
5347,906,885
5348,876,887
5349,844,889
5350,816,889
5351,785,887
5352,755,880
5353,726,876
5354,710,876
5355,695,880
5356,686,878
5357,669,878
5358,657,876
5359,647,873
5360,639,873
5361,642,878
5362,644,876
5363,646,879
5364,648,874
5365,654,871
5366,660,866
5367,671,865
5368,687,861
5369,707,854
5370,725,852
5371,742,847
5372,768,849
5373,795,854
5374,822,858
5375,842,863
5376,854,866
5377,861,869
5378,869,876
5379,880,885
5380,894,894
5381,906,898
5382,915,903
5383,926,914
5384,939,926
5385,955,941
5386,969,953
5387,983,963
5388,992,971
5389,1000,985
5390,1011,997
5391,1024,1010
5392,1030,1023
5393,1035,1031
5394,1036,1038
5395,1038,1044
5396,1043,1055
5397,1052,1061
5398,1059,1067
5399,1060,1071
5400,1060,1070
5401,1062,1073
5402,1062,1076
5403,1066,1082
5404,1068,1088
5405,1066,1087
5406,1070,1089
5407,1067,1091
5408,1067,1094
5409,1075,1102
5410,1081,1104
5411,1080,1101
5412,1083,1103
5413,1084,1102
5414,1082,1103
5415,1088,1111
5416,1093,1112
5417,1092,1110
5418,1092,1109
5419,1092,1109
5420,1093,1112
5421,1097,1115
5422,1105,1115
5423,1105,1113
5424,1106,1112
5425,1104,1113
5426,1108,1117
5427,1110,1118
5428,1117,1120
5429,1118,1117
5430,1117,1113
5431,1118,1114
5432,1119,1118
5433,1121,1119
5434,1128,1121
5435,1133,1118
5436,1131,1119
5437,1131,1115
5438,1135,1119
5439,1143,1125
5440,1150,1124
5441,1152,1122
5442,1152,1122
5443,1151,1119
5444,1154,1124
5445,1158,1127
5446,1168,1132
5447,1171,1133
5448,1175,1133
5449,1176,1136
5450,1179,1140
5451,1184,1144
5452,1189,1146
5453,1196,1145
5454,1193,1146
5455,1197,1147
5456,1200,1148
5457,1205,1156
5458,1211,1158
5459,1213,1162
5460,1210,1161
5461,1211,1162
5462,1210,1165
5463,1215,1167
5464,1219,1171
5465,1217,1172
5466,1211,1169
5467,1210,1168
5468,1203,1171
5469,1205,1174
5470,1205,1173
5471,1202,1173
5472,1196,1171
5473,1191,1170
5474,1187,1172
5475,1181,1173
5476,1182,1176
5477,1172,1172
5478,1165,1168
5479,1160,1167
5480,1153,1168
5481,1146,1168
5482,1142,1169
5483,1137,1160
5484,1126,1155
5485,1117,1153
5486,1112,1152
5487,1107,1150
5488,1103,1148
5489,1094,1144
5490,1084,1136
5491,1076,1133
5492,1070,1135
5493,1067,1133
5494,1065,1131
5495,1058,1125
5496,1054,1121
5497,1047,1116
5498,1045,1112
5499,1041,1111
5500,1040,1112
5501,1036,1110
5502,1032,1103
5503,1026,1102
5504,1024,1098
5505,1025,1099
5506,1023,1099
5507,1021,1098
5508,1018,1093
5509,1015,1091
5510,1012,1093
5511,1016,1089
5512,1018,1094
5513,1016,1089
5514,1015,1087
5515,1013,1086
5516,1010,1090
5517,1010,1093
5518,1014,1094
5519,1015,1093
5520,1010,1091
5521,1011,1091
5522,1010,1093
5523,1013,1097
5524,1015,1095
5525,1013,1094
5526,1009,1092
5527,1009,1089
5528,1009,1091
5529,1012,1093
5530,1012,1092
5531,1012,1092
5532,1010,1090
5533,1010,1090
5534,1010,1089
5535,1013,1091
5536,1014,1091
5537,1013,1091
5538,1009,1086
5539,1008,1086
5540,1005,1087
5541,1010,1089
5542,1011,1087
5543,1008,1085
5544,1006,1082
5545,1001,1079
5546,999,1081
5547,998,1085
5548,1006,1082
5549,1003,1082
5550,1002,1080
5551,1000,1080
5552,1002,1080
5553,1004,1084
5554,1007,1084
5555,1007,1081
5556,1004,1077
5557,1000,1078
5558,999,1080
5559,1000,1083
5560,1001,1085
5561,999,1083
5562,997,1081
5563,992,1080
5564,992,1083
5565,994,1088
5566,994,1088
5567,993,1085
5568,993,1084
5569,990,1084
5570,993,1083
5571,996,1085
5572,997,1087
5573,994,1082
5574,991,1080
5575,988,1080
5576,990,1083
5577,993,1084
5578,997,1084
5579,996,1080
5580,994,1080
5581,992,1080
5582,990,1083
5583,993,1086
5584,995,1087
5585,992,1087
5586,993,1081
5587,992,1081
5588,992,1083
5589,992,1083
5590,993,1084
5591,995,1084
5592,991,1079
5593,989,1080
5594,987,1080
5595,991,1083
5596,996,1083
5597,993,1082
5598,991,1077
5599,990,1076
5600,989,1076
5601,993,1078
5602,993,1080
5603,995,1076
5604,994,1073
5605,989,1072
5606,993,1074
5607,996,1076
5608,998,1077
5609,999,1076
5610,997,1073
5611,994,1072
5612,993,1073
5613,995,1075
5614,996,1077
5615,994,1075
5616,991,1074
5617,989,1075
5618,986,1077
5619,990,1079
5620,990,1082
5621,992,1078
5622,991,1077
5623,989,1076
5624,989,1079
5625,991,1083
5626,997,1084
5627,999,1082
5628,994,1079
5629,993,1078
5630,993,1081
5631,995,1081
5632,998,1084
5633,997,1081
5634,996,1077
5635,993,1079
5636,994,1080
5637,997,1082
5638,997,1084
5639,1000,1081
5640,999,1076
5641,993,1075
5642,995,1075
5643,998,1078
5644,998,1077
5645,1002,1074
5646,1000,1071
5647,1000,1072
5648,1006,1069
5649,1012,1072
5650,1017,1072
5651,1029,1068
5652,1045,1064
5653,1087,1063
5654,1161,1063
5655,1249,1061
5656,1307,1058
5657,1301,1045
5658,1262,1029
5659,1222,1002
5660,1203,956
5661,1194,896
5662,1187,834
5663,1172,801
5664,1153,806
5665,1136,828
5666,1117,849
5667,1102,861
5668,1087,871
5669,1063,873
5670,1040,878
5671,1016,880
5672,994,885
5673,973,890
5674,951,891
5675,921,888
5676,887,886
5677,855,882
5678,825,884
5679,798,884
5680,775,884
5681,751,885
5682,728,881
5683,709,882
5684,692,883
5685,681,884
5686,672,883
5687,665,881
5688,657,879
5689,658,877
5690,659,876
5691,670,874
5692,680,868
5693,686,862
5694,695,855
5695,707,846
5696,728,842
5697,756,840
5698,785,838
5699,812,836
5700,835,835
5701,853,843
5702,865,848
5703,869,859
5704,874,864
5705,881,869
5706,887,874
5707,898,881
5708,913,894
5709,929,906
5710,945,917
5711,957,929
5712,969,939
5713,979,948
5714,989,965
5715,1004,978
5716,1018,993
5717,1026,1004
5718,1031,1011
5719,1032,1024
5720,1037,1038
5721,1044,1050
5722,1051,1060
5723,1053,1066
5724,1055,1072
5725,1056,1076
5726,1057,1085
5727,1064,1091
5728,1070,1096
5729,1071,1097
5730,1067,1098
5731,1067,1099
5732,1069,1105
5733,1073,1111
5734,1076,1114
5735,1074,1117
5736,1073,1117
5737,1075,1117
5738,1076,1120
5739,1082,1123
5740,1089,1126
5741,1087,1125
5742,1085,1123
5743,1090,1125
5744,1088,1126
5745,1094,1132
5746,1098,1131
5747,1099,1130
5748,1099,1130
5749,1099,1130
5750,1104,1132
5751,1107,1135
5752,1112,1135
5753,1116,1132
5754,1115,1129
5755,1115,1130
5756,1115,1134
5757,1125,1136
5758,1128,1139
5759,1128,1136
5760,1131,1132
5761,1133,1135
5762,1135,1137
5763,1142,1139
5764,1149,1142
5765,1153,1141
5766,1153,1142
5767,1154,1140
5768,1158,1145
5769,1164,1148
5770,1170,1148
5771,1172,1149
5772,1175,1148
5773,1177,1151
5774,1180,1155
5775,1187,1158
5776,1190,1160
5777,1194,1161
5778,1192,1159
5779,1193,1163
5780,1195,1166
5781,1198,1171
5782,1204,1175
5783,1204,1176
5784,1205,1177
5785,1202,1179
5786,1202,1184
5787,1206,1188
5788,1206,1192
5789,1204,1192
5790,1201,1191
5791,1195,1190
5792,1191,1195
5793,1193,1197
5794,1193,1199
5795,1187,1199
5796,1177,1196
5797,1170,1195
5798,1165,1197
5799,1165,1198
5800,1163,1196
5801,1155,1193
5802,1145,1188
5803,1139,1185
5804,1129,1185
5805,1125,1184
5806,1119,1179
5807,1109,1174
5808,1101,1169
5809,1093,1162
5810,1087,1158
5811,1084,1154
5812,1080,1150
5813,1074,1146
5814,1065,1140
5815,1060,1131
5816,1051,1131
5817,1051,1129
5818,1046,1124
5819,1040,1120
5820,1033,1114
5821,1029,1112
5822,1028,1107
5823,1028,1109
5824,1031,1107
5825,1028,1102
5826,1027,1095
5827,1022,1096
5828,1021,1095
5829,1020,1097
5830,1018,1094
5831,1019,1093
5832,1017,1092
5833,1015,1089
5834,1013,1092
5835,1014,1094
5836,1017,1095
5837,1018,1094
5838,1014,1093
5839,1010,1091
5840,1009,1093
5841,1009,1095
5842,1015,1096
5843,1013,1096
5844,1011,1092
5845,1010,1092
5846,1007,1096
5847,1008,1097
5848,1012,1101
5849,1014,1096
5850,1011,1096
5851,1010,1095
5852,1010,1097
5853,1014,1100
5854,1012,1100
5855,1013,1100
5856,1009,1097
5857,1007,1096
5858,1007,1099
5859,1008,1101
5860,1006,1102
5861,1003,1099
5862,999,1097
5863,997,1094
5864,1000,1096
5865,1001,1098
5866,1005,1099
5867,1008,1096
5868,1004,1092
5869,1005,1094
5870,1005,1095
5871,1011,1097
5872,1014,1097
5873,1014,1093
5874,1011,1089
5875,1006,1085
5876,1003,1085
5877,1004,1085
5878,1000,1086
5879,999,1076
5880,998,1077
5881,995,1078
5882,996,1083
5883,995,1086
5884,998,1088
5885,997,1085
5886,994,1082
5887,994,1081
5888,992,1082
5889,995,1086
5890,1000,1085
5891,1001,1084
5892,994,1082
5893,997,1082
5894,993,1083
5895,997,1085
5896,998,1083
5897,998,1082
5898,996,1082
5899,993,1081
5900,992,1084
5901,994,1089
5902,994,1087
5903,994,1087
5904,990,1082
5905,988,1083
5906,986,1084
5907,991,1088
5908,991,1087
5909,992,1086
5910,990,1084
5911,988,1082
5912,988,1086
5913,992,1087
5914,996,1089
5915,995,1087
5916,994,1080
5917,993,1082
5918,990,1083
5919,992,1086
5920,998,1088
5921,993,1085
5922,993,1082
5923,996,1081
5924,993,1082
5925,999,1084
5926,1007,1086
5927,1008,1085
5928,1004,1080
5929,998,1076
5930,993,1078
5931,993,1079
5932,993,1079
5933,995,1075
5934,995,1072
5935,994,1072
5936,994,1075
5937,996,1077
5938,1001,1076
5939,998,1076
5940,995,1073
5941,994,1071
5942,992,1074
5943,997,1076
5944,1000,1076
5945,998,1075
5946,998,1073
5947,995,1070
5948,999,1073
5949,1001,1074
5950,1005,1071
5951,1005,1068
5952,1004,1068
5953,1007,1065
5954,1017,1066
5955,1036,1071
5956,1077,1069
5957,1139,1065
5958,1220,1063
5959,1280,1060
5960,1292,1055
5961,1262,1049
5962,1225,1034
5963,1200,1002
5964,1184,950
5965,1170,883
5966,1155,839
5967,1139,836
5968,1122,860
5969,1103,878
5970,1077,881
5971,1051,884
5972,1029,891
5973,1007,898
5974,985,898
5975,957,896
5976,925,892
5977,893,890
5978,864,893
5979,834,892
5980,806,893
5981,775,887
5982,750,888
5983,726,887
5984,705,888
5985,696,890
5986,684,888
5987,669,884
5988,656,880
5989,647,877
5990,641,879
5991,643,881
5992,649,881
5993,655,877
5994,660,872
5995,670,864
5996,682,863
5997,699,861
5998,723,855
5999,748,851
6000,775,845
6001,798,848
6002,825,853
6003,847,861
6004,862,868
6005,867,876
6006,875,878
6007,883,885
6008,897,895
6009,910,905
6010,926,914
6011,940,922
6012,947,932
6013,961,945
6014,974,956
6015,986,976
6016,1005,986
6017,1018,997
6018,1024,1005
6019,1031,1017
6020,1040,1031
6021,1048,1044
6022,1053,1054
6023,1056,1061
6024,1054,1066
6025,1055,1072
6026,1061,1078
6027,1066,1086
6028,1069,1090
6029,1069,1088
6030,1068,1087
6031,1067,1089
6032,1064,1093
6033,1070,1098
6034,1072,1097
6035,1073,1098
6036,1070,1094
6037,1071,1097
6038,1073,1102
6039,1080,1104
6040,1090,1105
6041,1089,1106
6042,1089,1103
6043,1089,1107
6044,1090,1110
6045,1097,1116
6046,1099,1116
6047,1103,1117
6048,1105,1115
6049,1106,1115
6050,1107,1119
6051,1113,1122
6052,1119,1123
6053,1119,1124
6054,1120,1121
6055,1121,1125
6056,1125,1125
6057,1130,1131
6058,1138,1131
6059,1137,1132
6060,1138,1130
6061,1140,1130
6062,1143,1134
6063,1151,1137
6064,1158,1136
6065,1161,1137
6066,1164,1137
6067,1163,1138
6068,1167,1141
6069,1172,1144
6070,1181,1145
6071,1183,1145
6072,1188,1142
6073,1189,1145
6074,1192,1148
6075,1198,1153
6076,1203,1156
6077,1203,1155
6078,1207,1156
6079,1205,1154
6080,1209,1155
6081,1211,1157
6082,1213,1160
6083,1215,1158
6084,1212,1157
6085,1211,1158
6086,1212,1161
6087,1212,1165
6088,1218,1166
6089,1217,1166
6090,1214,1164
6091,1210,1165
6092,1206,1170
6093,1206,1173
6094,1205,1173
6095,1202,1170
6096,1197,1169
6097,1188,1169
6098,1180,1171
6099,1179,1172
6100,1173,1170
6101,1165,1166
6102,1155,1164
6103,1143,1160
6104,1136,1158
6105,1130,1157
6106,1123,1155
6107,1115,1146
6108,1106,1145
6109,1095,1141
6110,1087,1138
6111,1083,1138
6112,1079,1133
6113,1070,1130
6114,1059,1122
6115,1052,1118
6116,1048,1120
6117,1045,1114
6118,1041,1110
6119,1036,1109
6120,1029,1102
6121,1024,1099
6122,1019,1099
6123,1019,1098
6124,1020,1093
6125,1015,1091
6126,1011,1087
6127,1004,1086
6128,1005,1086
6129,1007,1087
6130,1009,1084
6131,1007,1082
6132,1004,1080
6133,1000,1075
6134,996,1075
6135,1000,1079
6136,1001,1076
6137,998,1076
6138,997,1073
6139,992,1075
6140,996,1077
6141,999,1077
6142,998,1077
6143,999,1076
6144,998,1075
6145,995,1073
6146,995,1076
6147,999,1083
6148,1000,1082
6149,1000,1081
6150,1000,1080
6151,997,1079
6152,996,1077
6153,998,1083
6154,1000,1084
6155,996,1083
6156,992,1080
6157,992,1081
6158,993,1083
6159,995,1084
6160,996,1086
6161,994,1084
6162,992,1081
6163,986,1080
6164,984,1082
6165,988,1084
6166,986,1083
6167,987,1083
6168,987,1078
6169,980,1076
6170,981,1078
6171,983,1080
6172,986,1079
6173,985,1077
6174,981,1074
6175,977,1071
6176,974,1076
6177,977,1076
6178,977,1074
6179,979,1071
6180,978,1069
6181,978,1067
6182,976,1072
6183,974,1075
6184,974,1077
6185,975,1078
6186,974,1076
6187,972,1074
6188,971,1076
6189,973,1074
6190,975,1076
6191,976,1075
6192,978,1075
6193,976,1073
6194,979,1075
6195,978,1071
6196,984,1077
6197,979,1078
6198,979,1077
6199,979,1073
6200,980,1068
6201,982,1066
6202,983,1061
6203,983,1061
6204,982,1058
6205,980,1060
6206,982,1065
6207,982,1072
6208,984,1073
6209,984,1068
6210,980,1065
6211,978,1066
6212,979,1067
6213,979,1072
6214,978,1074
6215,980,1070
6216,978,1064
6217,972,1060
6218,971,1059
6219,972,1059
6220,975,1061
6221,974,1059
6222,970,1058
6223,967,1061
6224,971,1061
6225,972,1061
6226,971,1058
6227,972,1054
6228,964,1048
6229,964,1049
6230,967,1051
6231,969,1054
6232,974,1051
6233,968,1050
6234,963,1046
6235,961,1047
6236,965,1049
6237,969,1050
6238,973,1047
6239,974,1045
6240,970,1044
6241,972,1045
6242,976,1046
6243,978,1048
6244,984,1047
6245,984,1045
6246,989,1040
6247,993,1041
6248,1006,1042
6249,1027,1043
6250,1071,1042
6251,1147,1039
6252,1237,1034
6253,1285,1027
6254,1269,1017
6255,1224,1000
6256,1193,967
6257,1175,906
6258,1165,842
6259,1147,805
6260,1128,818
6261,1112,845
6262,1091,864
6263,1070,869
6264,1043,871
6265,1020,873
6266,994,881
6267,970,883
6268,943,882
6269,914,879
6270,879,874
6271,844,872
6272,809,875
6273,781,873
6274,751,870
6275,727,866
6276,703,862
6277,679,863
6278,662,864
6279,650,865
6280,634,862
6281,625,859
6282,614,853
6283,606,850
6284,608,851
6285,617,854
6286,629,849
6287,636,846
6288,646,837
6289,658,832
6290,683,832
6291,712,834
6292,743,833
6293,769,836
6294,795,836
6295,813,842
6296,822,850
6297,836,863
6298,848,867
6299,857,872
6300,870,881
6301,879,892
6302,894,907
6303,909,920
6304,924,932
6305,940,943
6306,951,954
6307,960,968
6308,969,984
6309,985,997
6310,993,1011
6311,999,1022
6312,1001,1030
6313,1003,1043
6314,1008,1052
6315,1016,1062
6316,1021,1064
6317,1026,1066
6318,1028,1069
6319,1025,1072
6320,1025,1079
6321,1028,1085
6322,1032,1082
6323,1033,1083
6324,1027,1079
6325,1024,1084
6326,1025,1087
6327,1026,1091
6328,1031,1091
6329,1030,1088
6330,1031,1086
6331,1027,1089
6332,1029,1091
6333,1038,1093
6334,1044,1096
6335,1045,1095
6336,1041,1095
6337,1038,1094
6338,1043,1096
6339,1047,1100
6340,1055,1105
6341,1058,1105
6342,1061,1110
6343,1062,1109
6344,1066,1115
6345,1071,1117
6346,1075,1114
6347,1075,1117
6348,1077,1115
6349,1075,1118
6350,1081,1121
6351,1085,1124
6352,1093,1127
6353,1097,1126
6354,1097,1128
6355,1098,1131
6356,1103,1135
6357,1109,1137
6358,1117,1134
6359,1122,1134
6360,1126,1134
6361,1128,1135
6362,1131,1137
6363,1136,1141
6364,1142,1141
6365,1148,1141
6366,1145,1142
6367,1142,1144
6368,1144,1148
6369,1150,1153
6370,1156,1157
6371,1158,1156
6372,1158,1152
6373,1154,1153
6374,1155,1157
6375,1155,1162
6376,1155,1165
6377,1151,1166
6378,1146,1164
6379,1142,1166
6380,1137,1169
6381,1134,1169
6382,1132,1171
6383,1124,1168
6384,1115,1165
6385,1108,1165
6386,1105,1169
6387,1100,1172
6388,1100,1168
6389,1090,1164
6390,1076,1157
6391,1061,1154
6392,1052,1154
6393,1046,1156
6394,1035,1152
6395,1025,1147
6396,1014,1138
6397,1008,1136
6398,1002,1134
6399,993,1129
6400,994,1127
6401,985,1124
6402,978,1119
6403,968,1120
6404,965,1119
6405,963,1116
6406,961,1115
6407,953,1106
6408,947,1098
6409,937,1097
6410,932,1094
6411,933,1098
6412,934,1098
6413,935,1095
6414,932,1091
6415,925,1089
6416,919,1088
6417,922,1087
6418,924,1085
6419,923,1084
6420,919,1082
6421,917,1086
6422,917,1086
6423,918,1089
6424,917,1092
6425,915,1089
6426,912,1087
6427,909,1084
6428,909,1081
6429,912,1085
6430,913,1088
6431,907,1089
6432,904,1089
6433,902,1088
6434,902,1092
6435,904,1093
6436,907,1092
6437,907,1087
6438,905,1084
6439,901,1085
6440,904,1090
6441,908,1092
6442,914,1092
6443,915,1096
6444,910,1100
6445,906,1098
6446,908,1099
6447,907,1096
6448,910,1089
6449,909,1087
6450,907,1087
6451,905,1090
6452,903,1096
6453,905,1097
6454,910,1095
6455,908,1088
6456,906,1082
6457,900,1081
6458,897,1085
6459,899,1090
6460,905,1091
6461,908,1086
6462,902,1080
6463,895,1079
6464,894,1080
6465,900,1081
6466,900,1081
6467,899,1078
6468,901,1076
6469,896,1078
6470,898,1082
6471,898,1087
6472,901,1085
6473,899,1082
6474,901,1078
6475,898,1078
6476,893,1080
6477,884,1081
6478,886,1080
6479,885,1078
6480,889,1078
6481,892,1077
6482,895,1080
6483,896,1083
6484,898,1085
6485,897,1082
6486,901,1081
6487,901,1081
6488,902,1082
6489,904,1085
6490,909,1080
6491,908,1079
6492,903,1077
6493,905,1077
6494,906,1081
6495,906,1082
6496,907,1080
6497,907,1077
6498,906,1075
6499,906,1077
6500,907,1077
6501,909,1080
6502,912,1081
6503,912,1079
6504,909,1077
6505,907,1076
6506,910,1079
6507,910,1080
6508,910,1076
6509,911,1075
6510,904,1071
6511,901,1070
6512,905,1072
6513,908,1072
6514,914,1070
6515,914,1066
6516,909,1065
6517,905,1063
6518,908,1063
6519,911,1066
6520,915,1064
6521,914,1064
6522,909,1061
6523,908,1063
6524,910,1065
6525,910,1069
6526,908,1067
6527,909,1065
6528,907,1064
6529,906,1063
6530,907,1062
6531,909,1066
6532,913,1069
6533,920,1067
6534,923,1064
6535,926,1063
6536,937,1065
6537,951,1068
6538,979,1067
6539,1038,1065
6540,1128,1062
6541,1223,1062
6542,1270,1060
6543,1251,1051
6544,1202,1033
6545,1161,1001
6546,1141,944
6547,1126,871
6548,1112,810
6549,1092,799
6550,1074,826
6551,1053,855
6552,1028,867
6553,1000,870
6554,974,878
6555,949,885
6556,924,883
6557,900,879
6558,871,877
6559,839,875
6560,804,876
6561,773,877
6562,746,872
6563,716,867
6564,688,863
6565,664,862
6566,646,863
6567,630,864
6568,618,861
6569,603,859
6570,594,855
6571,585,853
6572,585,855
6573,583,856
6574,593,853
6575,595,849
6576,600,839
6577,603,835
6578,616,831
6579,637,827
6580,667,822
6581,694,821
6582,720,818
6583,744,823
6584,765,833
6585,787,843
6586,793,854
6587,797,861
6588,803,863
6589,809,873
6590,819,884
6591,836,898
6592,846,908
6593,861,919
6594,871,929
6595,886,942
6596,899,958
6597,915,975
6598,931,990
6599,942,1001
6600,949,1011
6601,957,1024
6602,962,1037
6603,973,1049
6604,976,1055
6605,978,1065
6606,980,1067
6607,981,1070
6608,985,1078
6609,986,1086
6610,990,1085
6611,992,1084
6612,989,1082
6613,991,1082
6614,994,1084
6615,998,1090
6616,1005,1087
6617,1002,1084
6618,1000,1083
6619,994,1084
6620,995,1083
6621,1002,1082
6622,1009,1082
6623,1013,1082
6624,1015,1082
6625,1016,1085
6626,1016,1087
6627,1018,1091
6628,1022,1093
6629,1023,1092
6630,1022,1090
6631,1023,1089
6632,1028,1094
6633,1033,1099
6634,1040,1102
6635,1048,1101
6636,1050,1100
6637,1055,1102
6638,1060,1108
6639,1065,1110
6640,1072,1113
6641,1074,1114
6642,1073,1114
6643,1074,1118
6644,1081,1123
6645,1086,1123
6646,1092,1123
6647,1099,1120
6648,1101,1121
6649,1103,1123
6650,1107,1130
6651,1114,1132
6652,1119,1135
6653,1122,1135
6654,1125,1133
6655,1127,1135
6656,1133,1138
6657,1139,1141
6658,1143,1143
6659,1145,1142
6660,1146,1140
6661,1146,1142
6662,1147,1145
6663,1152,1146
6664,1157,1148
6665,1154,1152
6666,1147,1151
6667,1146,1150
6668,1144,1153
6669,1148,1156
6670,1150,1154
6671,1145,1153
6672,1144,1150
6673,1137,1148
6674,1135,1150
6675,1133,1151
6676,1128,1151
6677,1121,1149
6678,1107,1148
6679,1100,1146
6680,1091,1146
6681,1085,1149
6682,1083,1144
6683,1075,1138
6684,1065,1132
6685,1057,1131
6686,1050,1129
6687,1041,1125
6688,1040,1123
6689,1032,1118
6690,1025,1109
6691,1017,1106
6692,1014,1104
6693,1009,1105
6694,1003,1100
6695,996,1092
6696,986,1088
6697,984,1087
6698,982,1086
6699,983,1087
6700,980,1083
6701,976,1078
6702,971,1076
6703,963,1075
6704,962,1072
6705,962,1073
6706,962,1073
6707,963,1069
6708,962,1065
6709,959,1064
6710,959,1062
6711,962,1065
6712,964,1064
6713,963,1060
6714,960,1056
6715,957,1052
6716,960,1053
6717,963,1054
6718,963,1054
6719,960,1050
6720,960,1048
6721,958,1051
6722,960,1050
6723,963,1053
6724,967,1052
6725,964,1049
6726,961,1048
6727,957,1047
6728,958,1048
6729,960,1051
6730,963,1054
6731,961,1049
6732,956,1047
6733,954,1050
6734,954,1053
6735,955,1056
6736,959,1056
6737,961,1052
6738,957,1052
6739,957,1054
6740,958,1056
6741,959,1056
6742,963,1057
6743,959,1056
6744,958,1054
6745,955,1055
6746,956,1059
6747,959,1059
6748,960,1059
6749,960,1056
6750,957,1054
6751,953,1058
6752,956,1058
6753,956,1062
6754,958,1063
6755,955,1059
6756,957,1057
6757,954,1055
6758,953,1058
6759,956,1058
6760,961,1056
6761,959,1051
6762,959,1050
6763,955,1053
6764,957,1055
6765,959,1057
6766,958,1054
6767,960,1055
6768,956,1050
6769,954,1051
6770,955,1051
6771,955,1052
6772,957,1053
6773,956,1048
6774,953,1041
6775,953,1037
6776,952,1035
6777,956,1038
6778,957,1036
6779,955,1036
6780,953,1033
6781,951,1033
6782,950,1034
6783,953,1036
6784,956,1036
6785,955,1030
6786,950,1026
6787,947,1027
6788,948,1031
6789,947,1034
6790,949,1035
6791,948,1032
6792,944,1030
6793,943,1030
6794,946,1034
6795,949,1035
6796,953,1034
6797,951,1034
6798,952,1034
6799,955,1033
6800,956,1039
6801,958,1040
6802,962,1040
6803,958,1036
6804,958,1039
6805,956,1039
6806,959,1043
6807,961,1047
6808,963,1047
6809,963,1039
6810,962,1038
6811,961,1040
6812,965,1041
6813,967,1044
6814,968,1043
6815,966,1040
6816,967,1037
6817,966,1037
6818,965,1040
6819,967,1043
6820,970,1043
6821,965,1037
6822,968,1034
6823,966,1032
6824,967,1034
6825,968,1033
6826,971,1032
6827,969,1026
6828,967,1023
6829,964,1021
6830,964,1025
6831,967,1024
6832,968,1022
6833,969,1019
6834,968,1016
6835,967,1016
6836,970,1019
6837,974,1020
6838,980,1017
6839,987,1014
6840,1000,1010
6841,1023,1008
6842,1077,1009
6843,1163,1012
6844,1251,1010
6845,1296,1003
6846,1280,994
6847,1230,973
6848,1190,942
6849,1174,885
6850,1164,815
6851,1152,767
6852,1130,768
6853,1106,798
6854,1086,823
6855,1065,833
6856,1046,834
6857,1022,839
6858,994,845
6859,968,846
6860,941,851
6861,914,853
6862,894,851
6863,864,849
6864,833,844
6865,805,841
6866,777,843
6867,756,844
6868,736,844
6869,718,841
6870,698,840
6871,678,838
6872,661,837
6873,655,842
6874,653,837
6875,648,837
6876,641,832
6877,640,829
6878,644,830
6879,655,829
6880,664,823
6881,674,817
6882,684,806
6883,700,804
6884,722,804
6885,743,804
6886,775,802
6887,802,805
6888,817,808
6889,833,817
6890,843,825
6891,854,835
6892,865,838
6893,874,841
6894,885,846
6895,892,859
6896,907,874
6897,924,888
6898,938,900
6899,952,910
6900,965,921
6901,974,935
6902,991,952
6903,1001,967
6904,1017,979
6905,1023,990
6906,1025,1000
6907,1029,1010
6908,1033,1021
6909,1040,1030
6910,1045,1036
6911,1049,1041
6912,1046,1043
6913,1048,1047
6914,1048,1053
6915,1056,1056
6916,1057,1055
6917,1058,1059
6918,1060,1055
6919,1055,1058
6920,1055,1062
6921,1062,1064
6922,1064,1064
6923,1066,1064
6924,1067,1059
6925,1066,1061
6926,1067,1065
6927,1073,1069
6928,1077,1066
6929,1077,1065
6930,1078,1063
6931,1079,1065
6932,1079,1069
6933,1085,1071
6934,1090,1067
6935,1092,1068
6936,1095,1064
6937,1097,1068
6938,1102,1068
6939,1108,1073
6940,1114,1072
6941,1114,1071
6942,1118,1068
6943,1119,1070
6944,1124,1076
6945,1132,1081
6946,1138,1085
6947,1142,1086
6948,1143,1083
6949,1147,1086
6950,1151,1090
6951,1162,1093
6952,1169,1093
6953,1172,1091
6954,1176,1091
6955,1181,1094
6956,1187,1099
6957,1193,1105
6958,1197,1107
6959,1203,1107
6960,1201,1110
6961,1204,1113
6962,1206,1114
6963,1211,1119
6964,1217,1121
6965,1216,1123
6966,1213,1119
6967,1216,1122
6968,1218,1126
6969,1224,1129
6970,1225,1129
6971,1223,1128
6972,1220,1127
6973,1214,1131
6974,1211,1132
6975,1210,1136
6976,1209,1135
6977,1203,1132
6978,1192,1129
6979,1186,1127
6980,1179,1130
6981,1176,1131
6982,1167,1131
6983,1161,1125
6984,1149,1123
6985,1145,1121
6986,1136,1119
6987,1130,1120
6988,1127,1118
6989,1120,1113
6990,1109,1107
6991,1096,1105
6992,1087,1101
6993,1081,1099
6994,1075,1094
6995,1066,1089
6996,1056,1082
6997,1047,1080
6998,1041,1078
6999,1039,1076
7000,1037,1073
7001,1033,1068
7002,1027,1062
7003,1021,1059
7004,1019,1060
7005,1018,1059
7006,1018,1059
7007,1013,1055
7008,1010,1054
7009,1004,1053
7010,1007,1055
7011,1006,1056
7012,1008,1055
7013,1007,1051
7014,1003,1049
7015,1001,1046
7016,1003,1050
7017,1002,1051
7018,1004,1051
7019,1002,1046
7020,999,1046
7021,998,1044
7022,996,1046
7023,999,1049
7024,1002,1046
7025,1000,1042
7026,997,1041
7027,996,1042
7028,998,1044
7029,999,1045
7030,1004,1045
7031,1004,1042
7032,1001,1041
7033,1003,1041
7034,1005,1044
7035,1005,1047
7036,1008,1048
7037,1007,1045
7038,1003,1044
7039,1002,1046
7040,1002,1048
7041,1001,1047
7042,996,1050
7043,1001,1048
7044,998,1045
7045,996,1046
7046,998,1047
7047,1001,1049
7048,1003,1046
7049,1003,1046
7050,1000,1040
7051,996,1040
7052,995,1044
7053,998,1048
7054,1000,1047
7055,997,1047
7056,996,1045
7057,994,1045
7058,996,1049
7059,995,1049
7060,997,1050
7061,995,1045
7062,992,1045
7063,990,1044
7064,990,1047
7065,989,1050
7066,986,1047
7067,992,1045
7068,988,1041
7069,987,1040
7070,991,1043
7071,992,1044
7072,996,1044
7073,992,1040
7074,987,1037
7075,986,1035
7076,986,1037
7077,990,1039
7078,992,1036
7079,988,1036
7080,985,1031
7081,984,1034
7082,985,1035
7083,988,1037
7084,992,1037
7085,992,1034
7086,987,1031
7087,986,1034
7088,984,1037
7089,990,1039
7090,989,1036
7091,987,1034
7092,986,1033
7093,984,1033
7094,983,1036
7095,985,1039
7096,991,1039
7097,990,1037
7098,988,1035
7099,986,1037
7100,989,1039
7101,994,1040
7102,994,1038
7103,993,1036
7104,990,1036
7105,986,1036
7106,986,1040
7107,991,1042
7108,992,1042
7109,993,1038
7110,990,1034
7111,988,1038
7112,991,1038
7113,992,1042
7114,997,1042
7115,997,1035
7116,994,1034
7117,993,1035
7118,993,1038
7119,995,1038
7120,996,1037
7121,997,1036
7122,996,1032
7123,995,1032
7124,999,1033
7125,1002,1034
7126,1004,1033
7127,1001,1029
7128,1000,1027
7129,996,1025
7130,1002,1027
7131,1003,1027
7132,1006,1025
7133,1008,1022
7134,1007,1017
7135,1010,1016
7136,1016,1017
7137,1026,1018
7138,1043,1016
7139,1074,1014
7140,1134,1012
7141,1218,1010
7142,1296,1012
7143,1320,1008
7144,1298,1001
7145,1250,984
7146,1216,954
7147,1200,911
7148,1191,849
7149,1178,797
7150,1163,779
7151,1146,795
7152,1126,814
7153,1110,827
7154,1095,837
7155,1078,842
7156,1058,846
7157,1035,849
7158,1011,849
7159,986,851
7160,966,854
7161,943,856
7162,921,856
7163,891,851
7164,858,845
7165,826,848
7166,798,849
7167,779,852
7168,763,852
7169,746,847
7170,727,843
7171,710,842
7172,695,845
7173,688,847
7174,685,842
7175,679,839
7176,670,832
7177,673,832
7178,683,833
7179,691,831
7180,699,829
7181,705,819
7182,712,810
7183,726,805
7184,745,803
7185,767,805
7186,791,801
7187,814,798
7188,832,800
7189,848,806
7190,859,817
7191,866,823
7192,874,831
7193,879,835
7194,890,839
7195,894,847
7196,910,858
7197,922,867
7198,936,878
7199,946,888
7200,957,896
7201,966,906
7202,978,922
7203,993,938
7204,1005,948
7205,1018,961
7206,1027,970
7207,1032,984
7208,1041,997
7209,1047,1010
7210,1056,1022
7211,1061,1028
7212,1061,1034
7213,1063,1039
7214,1065,1046
7215,1073,1052
7216,1076,1055
7217,1078,1056
7218,1076,1054
7219,1073,1061
7220,1078,1064
7221,1084,1069
7222,1088,1069
7223,1085,1069
7224,1086,1065
7225,1087,1068
7226,1089,1071
7227,1094,1073
7228,1099,1073
7229,1101,1073
7230,1098,1070
7231,1100,1073
7232,1097,1074
7233,1105,1074
7234,1107,1075
7235,1105,1074
7236,1108,1070
7237,1108,1073
7238,1112,1077
7239,1117,1074
7240,1122,1077
7241,1123,1074
7242,1124,1074
7243,1126,1077
7244,1129,1084
7245,1136,1087
7246,1137,1083
7247,1140,1083
7248,1142,1080
7249,1140,1082
7250,1143,1087
7251,1144,1095
7252,1151,1095
7253,1156,1093
7254,1154,1096
7255,1157,1097
7256,1165,1100
7257,1172,1101
7258,1179,1105
7259,1183,1102
7260,1185,1106
7261,1186,1106
7262,1190,1111
7263,1195,1116
7264,1199,1117
7265,1205,1118
7266,1206,1116
7267,1209,1120
7268,1213,1124
7269,1217,1128
7270,1220,1130
7271,1224,1131
7272,1225,1127
7273,1224,1129
7274,1223,1136
7275,1228,1140
7276,1231,1139
7277,1228,1137
7278,1226,1138
7279,1222,1139
7280,1221,1144
7281,1221,1148
7282,1218,1145
7283,1216,1143
7284,1212,1141
7285,1203,1143
7286,1199,1146
7287,1195,1146
7288,1191,1144
7289,1181,1139
7290,1173,1138
7291,1164,1135
7292,1159,1135
7293,1154,1137
7294,1148,1133
7295,1141,1126
7296,1132,1121
7297,1120,1115
7298,1111,1115
7299,1109,1114
7300,1102,1108
7301,1092,1104
7302,1081,1097
7303,1075,1096
7304,1073,1094
7305,1071,1095
7306,1063,1090
7307,1057,1084
7308,1052,1076
7309,1045,1075
7310,1045,1075
7311,1045,1075
7312,1044,1071
7313,1041,1067
7314,1035,1065
7315,1030,1067
7316,1030,1067
7317,1033,1067
7318,1033,1068
7319,1032,1063
7320,1026,1058
7321,1024,1054
7322,1024,1061
7323,1028,1059
7324,1031,1058
7325,1031,1054
7326,1027,1052
7327,1026,1052
7328,1025,1053
7329,1028,1057
7330,1032,1052
7331,1029,1050
7332,1027,1045
7333,1025,1046
7334,1023,1049
7335,1026,1052
7336,1029,1049
7337,1025,1050
7338,1022,1044
7339,1021,1047
7340,1021,1048
7341,1025,1051
7342,1028,1051
7343,1024,1050
7344,1020,1046
7345,1019,1045
7346,1018,1047
7347,1022,1051
7348,1022,1049
7349,1021,1049
7350,1016,1046
7351,1014,1047
7352,1016,1049
7353,1018,1050
7354,1021,1047
7355,1018,1048
7356,1017,1044
7357,1013,1047
7358,1018,1049
7359,1020,1054
7360,1022,1054
7361,1019,1051
7362,1017,1049
7363,1018,1050
7364,1018,1051
7365,1018,1055
7366,1021,1054
7367,1019,1054
7368,1015,1049
7369,1013,1049
7370,1015,1053
7371,1017,1053
7372,1017,1054
7373,1016,1050
7374,1012,1047
7375,1009,1049
7376,1014,1049
7377,1013,1051
7378,1017,1051
7379,1017,1048
7380,1013,1043
7381,1010,1042
7382,1011,1043
7383,1011,1048
7384,1014,1044
7385,1010,1042
7386,1006,1038
7387,1002,1041
7388,1006,1043
7389,1006,1047
7390,1007,1047
7391,1010,1046
7392,1009,1042
7393,1008,1044
7394,1009,1045
7395,1007,1046
7396,1008,1045
7397,1007,1044
7398,1001,1041
7399,1002,1040
7400,1002,1045
7401,1004,1046
7402,1007,1044
7403,1006,1044
7404,1008,1041
7405,1005,1043
7406,1009,1046
7407,1012,1047
7408,1015,1046
7409,1014,1045
7410,1009,1039
7411,1007,1040
7412,1010,1044
7413,1012,1046
7414,1014,1046
7415,1014,1045
7416,1012,1038
7417,1008,1040
7418,1008,1043
7419,1015,1046
7420,1016,1045
7421,1014,1042
7422,1011,1040
7423,1006,1039
7424,1005,1041
7425,1009,1042
7426,1014,1041
7427,1013,1040
7428,1009,1039
7429,1011,1037
7430,1010,1038
7431,1012,1040
7432,1014,1038
7433,1013,1033
7434,1011,1030
7435,1009,1030
7436,1010,1032
7437,1015,1035
7438,1018,1034
7439,1017,1032
7440,1012,1028
7441,1014,1027
7442,1014,1031
7443,1020,1032
7444,1022,1029
7445,1023,1029
7446,1023,1024
7447,1026,1023
7448,1032,1027
7449,1046,1027
7450,1083,1026
7451,1140,1023
7452,1224,1022
7453,1300,1019
7454,1331,1017
7455,1305,1009
7456,1263,994
7457,1231,966
7458,1215,920
7459,1204,859
7460,1191,808
7461,1182,793
7462,1165,807
7463,1152,826
7464,1134,835
7465,1115,840
7466,1097,850
7467,1077,856
7468,1060,859
7469,1039,861
7470,1015,861
7471,992,859
7472,967,862
7473,945,864
7474,920,858
7475,891,854
7476,858,851
7477,828,847
7478,809,849
7479,789,848
7480,774,847
7481,755,844
7482,737,843
7483,723,838
7484,709,839
7485,702,839
7486,696,837
7487,690,832
7488,687,829
7489,685,828
7490,691,827
7491,702,823
7492,710,819
7493,718,810
7494,729,804
7495,743,799
7496,768,797
7497,794,799
7498,822,796
7499,842,795
7500,860,797
7501,869,807
7502,875,816
7503,882,824
7504,890,830
7505,898,837
7506,908,844
7507,913,853
7508,930,868
7509,950,881
7510,964,893
7511,977,906
7512,990,918
7513,1002,933
7514,1018,947
7515,1029,963
7516,1041,976
7517,1051,983
7518,1053,993
7519,1054,1003
7520,1062,1017
7521,1066,1027
7522,1073,1032
7523,1073,1039
7524,1073,1042
7525,1074,1047
7526,1076,1054
7527,1084,1059
7528,1089,1060
7529,1089,1060
7530,1090,1056
7531,1087,1059
7532,1090,1060
7533,1090,1063
7534,1094,1067
7535,1096,1062
7536,1091,1060
7537,1091,1062
7538,1094,1063
7539,1097,1067
7540,1099,1070
7541,1098,1069
7542,1097,1068
7543,1097,1069
7544,1102,1075
7545,1106,1076
7546,1109,1077
7547,1115,1074
7548,1113,1073
7549,1113,1074
7550,1117,1080
7551,1122,1086
7552,1126,1084
7553,1124,1084
7554,1123,1083
7555,1123,1083
7556,1125,1088
7557,1132,1089
7558,1138,1089
7559,1139,1090
7560,1141,1087
7561,1144,1090
7562,1149,1093
7563,1154,1099
7564,1156,1100
7565,1161,1102
7566,1157,1100
7567,1163,1103
7568,1166,1108
7569,1172,1109
7570,1178,1113
7571,1177,1113
7572,1182,1113
7573,1186,1114
7574,1188,1122
7575,1194,1123
7576,1202,1125
7577,1204,1125
7578,1201,1125
7579,1205,1125
7580,1211,1131
7581,1215,1135
7582,1218,1135
7583,1217,1137
7584,1216,1134
7585,1216,1136
7586,1218,1143
7587,1223,1143
7588,1226,1145
7589,1224,1143
7590,1219,1141
7591,1215,1144
7592,1218,1147
7593,1219,1151
7594,1216,1150
7595,1215,1149
7596,1211,1148
7597,1206,1148
7598,1205,1151
7599,1204,1152
7600,1202,1151
7601,1194,1150
7602,1184,1148
7603,1174,1145
7604,1171,1148
7605,1164,1150
7606,1162,1146
7607,1154,1140
7608,1143,1133
7609,1132,1132
7610,1129,1132
7611,1124,1130
7612,1119,1127
7613,1112,1120
7614,1102,1115
7615,1095,1114
7616,1089,1112
7617,1086,1112
7618,1080,1108
7619,1072,1102
7620,1066,1098
7621,1061,1094
7622,1058,1091
7623,1058,1092
7624,1056,1089
7625,1053,1083
7626,1049,1080
7627,1044,1077
7628,1043,1079
7629,1043,1081
7630,1043,1076
7631,1038,1075
7632,1037,1067
7633,1032,1067
7634,1033,1067
7635,1034,1068
7636,1031,1062
7637,1029,1060
7638,1023,1057
7639,1022,1057
7640,1029,1057
7641,1031,1058
7642,1031,1057
7643,1031,1054
7644,1029,1050
7645,1029,1052
7646,1027,1054
7647,1033,1055
7648,1032,1056
7649,1032,1053
7650,1026,1049
7651,1026,1049
7652,1025,1054
7653,1028,1055
7654,1029,1055
7655,1026,1054
7656,1022,1052
7657,1021,1053
7658,1021,1056
7659,1025,1059
7660,1024,1056
7661,1024,1052
7662,1023,1053
7663,1024,1055
7664,1023,1056
7665,1027,1059
7666,1027,1056
7667,1025,1054
7668,1023,1052
7669,1018,1058
7670,1020,1056
7671,1024,1059
7672,1026,1057
7673,1025,1056
7674,1021,1053
7675,1018,1054
7676,1016,1058
7677,1017,1059
7678,1020,1058
7679,1017,1057
7680,1016,1054
7681,1013,1055
7682,1014,1056
7683,1016,1057
7684,1020,1057
7685,1018,1054
7686,1015,1052
7687,1013,1051
7688,1017,1053
7689,1019,1054
7690,1018,1053
7691,1020,1050
7692,1015,1048
7693,1013,1050
7694,1015,1049
7695,1017,1050
7696,1020,1050
7697,1019,1046
7698,1016,1047
7699,1014,1044
7700,1012,1048
7701,1016,1048
7702,1016,1050
7703,1010,1048
7704,1010,1046
7705,1009,1044
7706,1009,1044
7707,1012,1046
7708,1011,1046
7709,1013,1043
7710,1011,1042
7711,1007,1042
7712,1010,1043
7713,1008,1047
7714,1014,1046
7715,1011,1043
7716,1009,1043
7717,1004,1044
7718,1008,1046
7719,1008,1051
7720,1011,1047
7721,1010,1044
7722,1007,1044
7723,1003,1043
7724,1005,1047
7725,1006,1052
7726,1010,1048
7727,1009,1046
7728,1005,1042
7729,1006,1042
7730,1004,1045
7731,1012,1044
7732,1012,1043
7733,1012,1042
7734,1008,1038
7735,1007,1039
7736,1010,1040
7737,1012,1041
7738,1015,1040
7739,1014,1039
7740,1012,1037
7741,1009,1038
7742,1012,1038
7743,1012,1040
7744,1014,1041
7745,1013,1038
7746,1012,1035
7747,1009,1034
7748,1011,1037
7749,1012,1037
7750,1016,1037
7751,1011,1034
7752,1010,1031
7753,1010,1033
7754,1013,1033
7755,1015,1036
7756,1019,1035
7757,1022,1030
7758,1021,1029
7759,1026,1026
7760,1033,1029
7761,1048,1029
7762,1068,1030
7763,1113,1028
7764,1187,1025
7765,1265,1021
7766,1313,1019
7767,1308,1014
7768,1269,999
7769,1234,975
7770,1214,936
7771,1203,877
7772,1191,817
7773,1176,790
7774,1162,799
7775,1142,817
7776,1116,829
7777,1093,839
7778,1072,843
7779,1050,851
7780,1026,854
7781,999,853
7782,968,851
7783,937,852
7784,911,851
7785,884,853
7786,853,849
7787,820,843
7788,790,842
7789,767,841
7790,746,842
7791,731,845
7792,718,843
7793,702,837
7794,687,836
7795,676,833
7796,674,831
7797,673,837
7798,677,834
7799,681,831
7800,691,826
7801,699,822
7802,705,817
7803,726,818
7804,745,809
7805,767,806
7806,793,801
7807,819,805
7808,844,812
7809,864,822
7810,877,828
7811,883,833
7812,886,839
7813,893,845
7814,903,854
7815,919,864
7816,930,872
7817,938,877
7818,947,884
7819,957,897
7820,972,909
7821,987,926
7822,1004,937
7823,1020,946
7824,1030,956
7825,1036,969
7826,1047,985
7827,1055,998
7828,1064,1009
7829,1070,1013
7830,1071,1017
7831,1075,1025
7832,1076,1035
7833,1083,1044
7834,1086,1046
7835,1088,1049
7836,1087,1048
7837,1086,1053
7838,1086,1057
7839,1091,1061
7840,1099,1061
7841,1095,1062
7842,1095,1060
7843,1095,1063
7844,1099,1067
7845,1103,1070
7846,1108,1072
7847,1106,1071
7848,1105,1073
7849,1104,1072
7850,1106,1076
7851,1111,1080
7852,1114,1079
7853,1114,1076
7854,1115,1077
7855,1115,1077
7856,1121,1083
7857,1127,1089
7858,1132,1090
7859,1132,1090
7860,1134,1088
7861,1132,1090
7862,1135,1093
7863,1139,1096
7864,1142,1095
7865,1142,1096
7866,1143,1095
7867,1145,1096
7868,1151,1099
7869,1159,1103
7870,1165,1105
7871,1166,1102
7872,1165,1100
7873,1172,1103
7874,1177,1105
7875,1184,1107
7876,1191,1110
7877,1193,1106
7878,1193,1107
7879,1196,1107
7880,1201,1110
7881,1210,1115
7882,1214,1117
7883,1218,1117
7884,1218,1115
7885,1221,1117
7886,1225,1123
7887,1233,1125
7888,1234,1125
7889,1237,1124
7890,1235,1124
7891,1234,1127
7892,1236,1132
7893,1238,1136
7894,1241,1139
7895,1239,1138
7896,1231,1138
7897,1231,1138
7898,1230,1145
7899,1233,1147
7900,1234,1148
7901,1230,1148
7902,1225,1146
7903,1218,1144
7904,1214,1151
7905,1211,1151
7906,1208,1150
7907,1200,1147
7908,1191,1145
7909,1183,1145
7910,1174,1145
7911,1169,1146
7912,1161,1144
7913,1150,1138
7914,1141,1134
7915,1131,1130
7916,1126,1129
7917,1120,1127
7918,1116,1123
7919,1108,1117
7920,1099,1112
7921,1091,1106
7922,1086,1106
7923,1081,1103
7924,1077,1098
7925,1068,1092
7926,1060,1085
7927,1055,1083
7928,1052,1082
7929,1051,1080
7930,1052,1073
7931,1048,1070
7932,1038,1065
7933,1035,1065
7934,1035,1066
7935,1036,1067
7936,1035,1063
7937,1030,1062
7938,1025,1057
7939,1022,1054
7940,1019,1055
7941,1022,1060
7942,1023,1060
7943,1022,1057
7944,1018,1054
7945,1013,1055
7946,1016,1058
7947,1016,1061
7948,1023,1060
7949,1022,1057
7950,1020,1054
7951,1022,1057
7952,1023,1059
7953,1023,1064
7954,1026,1064
7955,1019,1063
7956,1016,1061
7957,1015,1061
7958,1016,1064
7959,1020,1071
7960,1020,1069
7961,1020,1064
7962,1019,1064
7963,1016,1064
7964,1019,1066
7965,1021,1067
7966,1021,1065
7967,1019,1064
7968,1017,1057
7969,1015,1060
7970,1016,1060
7971,1019,1060
7972,1019,1057
7973,1018,1056
7974,1014,1053
7975,1011,1054
7976,1012,1057
7977,1013,1058
7978,1015,1057
7979,1015,1051
7980,1012,1051
7981,1009,1050
7982,1008,1051
7983,1012,1054
7984,1014,1051
7985,1008,1048
7986,1001,1046
7987,998,1047
7988,996,1051
7989,994,1051
7990,997,1050
7991,1001,1048
7992,997,1047
7993,994,1047
7994,992,1047
7995,998,1051
7996,997,1051
7997,999,1050
7998,1000,1048
7999,996,1049
8000,997,1050
8001,1002,1052
8002,1003,1053
8003,1001,1050
8004,998,1052
8005,996,1054
8006,995,1054
8007,999,1057
8008,997,1056
8009,998,1053
8010,996,1050
8011,996,1052
8012,996,1055
8013,1001,1057
8014,1003,1053
8015,1002,1051
8016,1000,1049
8017,994,1049
8018,1000,1050
8019,1003,1053
8020,1002,1050
8021,1001,1048
8022,999,1046
8023,997,1044
8024,998,1046
8025,1000,1049
8026,999,1045
8027,997,1044
8028,993,1041
8029,991,1041
8030,992,1042
8031,995,1044
8032,994,1042
8033,992,1037
8034,989,1036
8035,987,1035
8036,987,1039
8037,988,1040
8038,988,1044
8039,987,1041
8040,987,1041
8041,987,1041
8042,990,1042
8043,991,1044
8044,993,1045
8045,994,1043
8046,989,1042
8047,990,1043
8048,989,1043
8049,994,1047
8050,999,1051
8051,998,1048
8052,993,1048
8053,996,1047
8054,998,1050
8055,1001,1054
8056,1003,1052
8057,1001,1049
8058,1001,1046
8059,999,1046
8060,1002,1048
8061,1005,1050
8062,1006,1049
8063,1007,1044
8064,1010,1042
8065,1018,1040
8066,1032,1040
8067,1064,1045
8068,1120,1040
8069,1209,1039
8070,1285,1031
8071,1303,1025
8072,1268,1014
8073,1231,997
8074,1205,956
8075,1193,889
8076,1179,818
8077,1161,782
8078,1143,794
8079,1127,821
8080,1110,835
8081,1087,839
8082,1065,838
8083,1042,843
8084,1020,848
8085,998,851
8086,972,852
8087,943,845
8088,910,844
8089,877,842
8090,845,843
8091,812,847
8092,783,844
8093,758,842
8094,732,841
8095,715,842
8096,699,848
8097,683,851
8098,669,849
8099,662,847
8100,653,846
8101,648,844
8102,651,850
8103,657,849
8104,666,850
8105,670,842
8106,675,833
8107,684,829
8108,702,828
8109,723,829
8110,748,825
8111,771,820
8112,795,819
8113,820,825
8114,845,834
8115,859,845
8116,870,852
8117,877,853
8118,886,859
8119,898,865
8120,912,877
8121,929,887
8122,940,898
8123,954,910
8124,964,921
8125,975,934
8126,991,947
8127,1002,964
8128,1014,973
8129,1019,982
8130,1024,993
8131,1027,1008
8132,1033,1017
8133,1037,1032
8134,1045,1037
8135,1049,1039
8136,1053,1046
8137,1055,1052
8138,1055,1058
8139,1059,1062
8140,1063,1061
8141,1063,1063
8142,1061,1060
8143,1062,1065
8144,1066,1070
8145,1070,1076
8146,1075,1078
8147,1075,1077
8148,1074,1078
8149,1079,1080
8150,1082,1084
8151,1083,1088
8152,1088,1088
8153,1089,1090
8154,1086,1087
8155,1089,1088
8156,1092,1090
8157,1095,1097
8158,1100,1094
8159,1103,1093
8160,1101,1092
8161,1104,1093
8162,1106,1097
8163,1113,1100
8164,1114,1101
8165,1117,1099
8166,1120,1095
8167,1120,1097
8168,1122,1103
8169,1128,1106
8170,1131,1104
8171,1134,1101
8172,1135,1099
8173,1139,1101
8174,1143,1104
8175,1149,1104
8176,1155,1104
8177,1157,1105
8178,1159,1103
8179,1161,1104
8180,1166,1110
8181,1173,1116
8182,1178,1117
8183,1178,1117
8184,1179,1117
8185,1180,1120
8186,1185,1123
8187,1188,1128
8188,1192,1128
8189,1195,1127
8190,1196,1128
8191,1197,1133
8192,1202,1136
8193,1208,1141
8194,1212,1141
8195,1213,1142
8196,1213,1140
8197,1210,1142
8198,1213,1149
8199,1215,1154
8200,1214,1154
8201,1212,1154
8202,1207,1152
8203,1203,1156
8204,1199,1158
8205,1197,1162
8206,1194,1162
8207,1186,1160
8208,1178,1155
8209,1170,1158
8210,1164,1157
8211,1163,1158
8212,1155,1155
8213,1147,1149
8214,1138,1147
8215,1130,1144
8216,1118,1144
8217,1116,1140
8218,1110,1136
8219,1101,1131
8220,1086,1123
8221,1078,1120
8222,1075,1117
8223,1071,1116
8224,1067,1111
8225,1059,1105
8226,1049,1099
8227,1042,1097
8228,1038,1095
8229,1039,1095
8230,1034,1091
8231,1029,1086
8232,1024,1081
8233,1021,1079
8234,1020,1080
8235,1020,1080
8236,1019,1077
8237,1015,1071
8238,1008,1070
8239,1005,1068
8240,1003,1069
8241,1003,1072
8242,1005,1069
8243,1005,1067
8244,1000,1064
8245,997,1065
8246,998,1066
8247,1003,1070
8248,1006,1067
8249,1003,1064
8250,1003,1060
8251,1000,1063
8252,1002,1067
8253,1003,1069
8254,1006,1068
8255,1005,1068
8256,1002,1066
8257,1001,1069
8258,1002,1068
8259,1005,1071
8260,1005,1070
8261,1003,1066
8262,1001,1065
8263,1000,1067
8264,999,1067
8265,1001,1069
8266,1002,1066
8267,998,1064
8268,996,1062
8269,997,1059
8270,998,1061
8271,1001,1064
8272,1000,1062
8273,997,1059
8274,997,1059
8275,993,1059
8276,994,1061
8277,998,1064
8278,998,1061
8279,998,1058
8280,993,1059
8281,988,1058
8282,991,1058
8283,994,1059
8284,996,1060
8285,992,1058
8286,987,1054
8287,980,1055
8288,984,1059
8289,986,1061
8290,984,1059
8291,985,1056
8292,981,1055
8293,981,1055
8294,984,1058
8295,986,1061
8296,985,1060
8297,984,1055
8298,981,1053
8299,980,1052
8300,982,1055
8301,984,1059
8302,984,1056
8303,983,1056
8304,981,1054
8305,978,1055
8306,981,1057
8307,982,1061
8308,987,1060
8309,984,1058
8310,981,1053
8311,978,1054
8312,979,1058
8313,979,1059
8314,982,1057
8315,983,1054
8316,982,1052
8317,983,1052
8318,982,1056
8319,985,1057
8320,984,1054
8321,981,1051
8322,982,1049
8323,980,1046
8324,981,1048
8325,983,1054
8326,983,1050
8327,981,1049
8328,979,1045
8329,978,1046
8330,978,1047
8331,981,1050
8332,983,1050
8333,980,1044
8334,977,1046
8335,973,1045
8336,975,1049
8337,974,1050
8338,975,1049
8339,974,1047
8340,973,1046
8341,971,1047
8342,973,1049
8343,980,1055
8344,983,1052
8345,984,1051
8346,981,1047
8347,979,1050
8348,982,1052
8349,985,1055
8350,987,1054
8351,985,1051
8352,979,1050
8353,978,1048
8354,979,1054
8355,983,1055
8356,985,1055
8357,988,1049
8358,985,1051
8359,982,1047
8360,983,1049
8361,991,1052
8362,992,1048
8363,992,1043
8364,991,1041
8365,990,1039
8366,995,1038
8367,1000,1042
8368,1010,1038
8369,1021,1035
8370,1044,1034
8371,1099,1032
8372,1181,1030
8373,1263,1031
8374,1292,1023
8375,1260,1011
8376,1212,987
8377,1180,944
8378,1170,886
8379,1162,818
8380,1147,780
8381,1127,789
8382,1103,818
8383,1084,837
8384,1063,848
8385,1042,855
8386,1026,857
8387,1000,859
8388,971,861
8389,942,864
8390,912,862
8391,885,864
8392,857,861
8393,822,854
8394,790,854
8395,762,853
8396,744,857
8397,728,859
8398,714,858
8399,698,857
8400,681,853
8401,666,854
8402,659,852
8403,661,853
8404,659,850
8405,662,846
8406,668,839
8407,671,834
8408,682,831
8409,694,828
8410,710,820
8411,731,810
8412,751,804
8413,776,805
8414,802,810
8415,830,818
8416,843,824
8417,845,826
8418,846,830
8419,847,838
8420,861,847
8421,878,858
8422,893,866
8423,903,872
8424,912,884
8425,923,896
8426,943,911
8427,960,927
8428,973,940
8429,987,952
8430,994,965
8431,1002,982
8432,1010,995
8433,1020,1014
8434,1023,1023
8435,1028,1030
8436,1030,1038
8437,1034,1045
8438,1038,1054
8439,1046,1061
8440,1048,1063
8441,1048,1067
8442,1045,1067
8443,1047,1072
8444,1048,1078
8445,1053,1083
8446,1057,1086
8447,1056,1088
8448,1050,1089
8449,1051,1090
8450,1055,1097
8451,1059,1101
8452,1064,1100
8453,1065,1100
8454,1065,1099
8455,1066,1102
8456,1067,1103
8457,1075,1106
8458,1079,1106
8459,1079,1105
8460,1078,1104
8461,1077,1106
8462,1084,1105
8463,1087,1110
