'sample #','MLII','V1'
0,885,833
1,885,833
2,885,833
3,885,833
4,885,833
5,885,833
6,885,833
7,885,839
8,885,843
9,885,852
10,884,858
11,882,862
12,884,865
13,884,868
14,887,868
15,888,871
16,890,870
17,890,874
18,891,871
19,891,868
20,890,872
21,889,871
22,888,872
23,885,875
24,885,876
25,885,876
26,886,878
27,885,877
28,883,874
29,883,874
30,878,872
31,875,871
32,874,871
33,870,866
34,871,870
35,866,869
36,870,873
37,868,871
38,867,870
39,866,868
40,864,867
41,861,865
42,856,863
43,852,862
44,849,859
45,845,859
46,843,859
47,847,860
48,847,862
49,850,865
50,852,866
51,853,865
52,851,862
53,849,861
54,846,858
55,842,856
56,839,853
57,836,852
58,836,854
59,834,853
60,833,854
61,831,854
62,828,857
63,829,855
64,827,852
65,823,852
66,819,846
67,816,844
68,815,841
69,811,836
70,808,837
71,804,834
72,803,836
73,800,832
74,801,830
75,801,829
76,797,823
77,795,821
78,791,819
79,791,815
80,790,811
81,789,808
82,796,809
83,799,810
84,806,809
85,809,812
86,816,812
87,822,813
88,824,815
89,832,817
90,837,819
91,840,821
92,845,823
93,851,824
94,856,829
95,858,831
96,864,835
97,871,840
98,877,844
99,885,847
100,888,847
101,892,852
102,894,850
103,893,850
104,899,852
105,900,851
106,901,854
107,900,856
108,902,857
109,903,858
110,905,858
111,905,859
112,906,858
113,906,856
114,901,856
115,900,852
116,899,852
117,899,854
118,901,853
119,899,852
120,900,856
121,902,857
122,901,858
123,905,860
124,904,857
125,904,859
126,902,856
127,904,856
128,903,856
129,904,855
130,903,859
131,907,858
132,909,860
133,912,865
134,912,867
135,915,868
136,913,867
137,911,869
138,910,868
139,911,865
140,913,863
141,912,865
142,913,866
143,915,865
144,914,868
145,915,870
146,916,872
147,919,873
148,918,871
149,920,871
150,923,870
151,920,868
152,917,867
153,917,869
154,919,871
155,920,872
156,923,876
157,926,878
158,928,880
159,930,880
160,930,879
161,929,879
162,927,875
163,925,873
164,923,869
165,922,870
166,922,870
167,921,872
168,920,872
169,921,872
170,921,873
171,920,873
172,918,869
173,918,871
174,916,866
175,915,864
176,914,864
177,911,862
178,911,865
179,909,865
180,910,865
181,912,867
182,911,867
183,914,868
184,913,863
185,912,865
186,909,862
187,906,862
188,907,858
189,905,859
190,901,861
191,901,861
192,903,862
193,905,865
194,907,867
195,910,865
196,909,863
197,910,864
198,907,861
199,906,857
200,905,857
201,905,856
202,907,858
203,909,858
204,912,858
205,912,857
206,911,859
207,913,856
208,913,857
209,912,856
210,909,854
211,907,853
212,907,851
213,904,852
214,903,853
215,906,852
216,906,854
217,907,854
218,912,856
219,912,855
220,915,856
221,915,852
222,917,852
223,918,853
224,915,850
225,914,849
226,913,848
227,913,850
228,914,851
229,913,853
230,911,854
231,914,854
232,912,853
233,912,850
234,910,852
235,909,851
236,909,849
237,907,848
238,908,850
239,904,849
240,906,850
241,905,851
242,908,852
243,907,854
244,907,852
245,907,849
246,906,849
247,905,848
248,901,846
249,903,848
250,906,849
251,905,851
252,906,854
253,909,855
254,910,854
255,912,856
256,912,856
257,912,855
258,912,855
259,911,854
260,912,854
261,913,855
262,913,855
263,916,857
264,916,861
265,920,862
266,922,863
267,922,863
268,923,862
269,922,862
270,923,861
271,923,861
272,923,859
273,923,860
274,920,861
275,919,863
276,920,864
277,919,869
278,917,871
279,919,874
280,916,870
281,916,872
282,912,871
283,907,870
284,904,870
285,899,867
286,896,868
287,895,870
288,898,870
289,909,877
290,934,885
291,969,901
292,1009,916
293,1056,934
294,1106,951
295,1162,965
296,1217,978
297,1267,994
298,1311,1012
299,1346,1029
300,1362,1053
301,1363,1075
302,1356,1097
303,1332,1099
304,1285,1068
305,1204,999
306,1098,906
307,989,803
308,907,709
309,864,650
310,852,639
311,860,665
312,875,708
313,889,754
314,898,787
315,900,805
316,896,814
317,888,818
318,882,822
319,878,822
320,876,828
321,878,832
322,878,838
323,879,844
324,881,848
325,882,849
326,880,851
327,883,852
328,882,851
329,883,853
330,880,850
331,880,850
332,875,852
333,876,850
334,873,850
335,872,854
336,874,853
337,872,857
338,871,857
339,872,858
340,869,853
341,868,853
342,863,850
343,863,848
344,861,846
345,860,847
346,862,850
347,860,849
348,859,854
349,862,852
350,862,856
351,864,859
352,867,861
353,866,863
354,865,863
355,864,862
356,862,862
357,860,857
358,858,861
359,856,861
360,856,862
361,854,864
362,854,866
363,853,865
364,851,861
365,849,860
366,848,856
367,846,857
368,846,852
369,843,853
370,842,853
371,841,853
372,842,853
373,840,852
374,841,853
375,839,855
376,836,849
377,834,849
378,829,846
379,825,844
380,820,840
381,820,838
382,817,837
383,818,836
384,816,837
385,813,836
386,811,836
387,812,832
388,807,825
389,804,823
390,804,820
391,800,816
392,794,810
393,790,809
394,789,805
395,788,802
396,785,804
397,786,802
398,785,800
399,786,800
400,785,793
401,784,791
402,783,788
403,783,785
404,783,783
405,784,782
406,791,785
407,797,786
408,807,789
409,811,791
410,821,797
411,832,801
412,838,805
413,844,805
414,851,810
415,855,812
416,861,814
417,865,818
418,869,827
419,876,833
420,882,838
421,885,844
422,888,848
423,890,854
424,891,855
425,892,858
426,889,860
427,887,859
428,886,858
429,888,857
430,889,859
431,888,861
432,892,863
433,892,863
434,896,867
435,897,867
436,899,865
437,899,865
438,900,866
439,898,863
440,899,863
441,897,861
442,896,864
443,898,864
444,899,866
445,902,868
446,904,870
447,909,871
448,908,868
449,909,869
450,911,869
451,911,868
452,909,866
453,909,866
454,909,870
455,909,870
456,906,872
457,906,873
458,903,874
459,905,875
460,905,873
461,904,871
462,902,868
463,902,867
464,902,865
465,904,866
466,905,865
467,904,867
468,906,868
469,908,871
470,911,874
471,913,877
472,915,874
473,915,877
474,914,874
475,913,873
476,916,873
477,914,874
478,915,879
479,915,877
480,918,879
481,918,882
482,917,884
483,919,885
484,919,884
485,917,884
486,914,883
487,913,882
488,909,880
489,910,880
490,910,882
491,909,881
492,912,888
493,915,887
494,916,890
495,918,890
496,919,889
497,918,891
498,918,888
499,917,885
500,914,884
501,912,886
502,912,887
503,910,887
504,912,887
505,912,888
506,913,888
507,915,889
508,915,887
509,915,885
510,915,884
511,914,882
512,912,884
513,909,881
514,908,881
515,907,880
516,904,879
517,902,882
518,900,881
519,902,881
520,898,879
521,901,879
522,901,874
523,900,873
524,900,872
525,899,868
526,898,870
527,902,871
528,903,874
529,904,875
530,906,875
531,908,876
532,911,875
533,908,874
534,909,874
535,908,875
536,907,874
537,905,875
538,904,877
539,906,877
540,907,877
541,907,876
542,908,878
543,909,878
544,910,875
545,911,876
546,910,873
547,906,872
548,905,871
549,903,870
550,905,872
551,903,873
552,906,872
553,907,874
554,907,878
555,910,877
556,911,875
557,911,876
558,911,872
559,910,868
560,909,870
561,904,871
562,902,873
563,905,874
564,906,877
565,909,878
566,910,881
567,913,883
568,913,881
569,914,881
570,915,880
571,914,881
572,912,879
573,913,878
574,914,880
575,914,881
576,915,883
577,914,884
578,917,884
579,918,886
580,914,885
581,912,884
582,912,883
583,909,883
584,909,880
585,908,878
586,907,881
587,909,881
588,909,883
589,909,884
590,910,888
591,912,887
592,912,888
593,911,888
594,909,887
595,911,883
596,909,883
597,909,884
598,908,888
599,905,888
600,902,890
601,896,892
602,900,892
603,913,897
604,933,903
605,966,917
606,1007,934
607,1051,952
608,1104,969
609,1165,987
610,1225,1006
611,1281,1021
612,1329,1037
613,1357,1055
614,1371,1077
615,1370,1096
616,1354,1110
617,1322,1103
618,1266,1066
619,1183,998
620,1078,908
621,979,815
622,905,731
623,869,682
624,862,668
625,870,692
626,889,732
627,900,775
628,909,805
629,907,823
630,903,832
631,900,837
632,896,842
633,893,850
634,892,854
635,896,862
636,897,868
637,897,874
638,897,881
639,895,883
640,893,884
641,890,887
642,887,883
643,882,883
644,881,882
645,879,883
646,880,884
647,879,885
648,881,888
649,880,890
650,881,891
651,880,891
652,881,891
653,878,890
654,876,889
655,873,888
656,871,886
657,867,887
658,864,890
659,866,889
660,867,890
661,865,893
662,868,895
663,869,894
664,869,894
665,866,893
666,864,891
667,864,889
668,864,886
669,857,886
670,858,889
671,856,887
672,853,892
673,854,889
674,854,892
675,852,893
676,850,889
677,846,890
678,846,886
679,844,887
680,844,883
681,841,883
682,841,883
683,839,882
684,839,884
685,840,884
686,839,886
687,840,885
688,838,884
689,835,882
690,832,881
691,829,879
692,828,877
693,825,875
694,824,874
695,822,874
696,822,873
697,818,871
698,816,870
699,812,868
700,806,862
701,802,856
702,799,855
703,799,848
704,796,843
705,794,838
706,790,839
707,792,836
708,789,836
709,790,837
710,788,835
711,790,837
712,793,833
713,795,833
714,796,833
715,798,832
716,804,833
717,808,833
718,815,837
719,820,839
720,830,844
721,836,848
722,845,855
723,851,857
724,857,860
725,861,865
726,865,864
727,865,865
728,868,866
729,869,869
730,874,873
731,875,874
732,879,879
733,880,882
734,888,885
735,893,885
736,894,885
737,894,888
738,893,887
739,891,887
740,892,885
741,891,884
742,891,886
743,894,886
744,894,887
745,899,891
746,902,892
747,902,892
748,904,890
749,904,891
750,905,889
751,902,887
752,904,887
753,904,890
754,905,891
755,906,889
756,907,891
757,907,893
758,910,894
759,913,897
760,915,894
761,917,893
762,918,895
763,917,896
764,918,896
765,917,898
766,918,902
767,917,906
768,921,908
769,921,908
770,923,912
771,924,912
772,924,912
773,923,912
774,922,913
775,920,912
776,916,908
777,916,909
778,915,912
779,914,913
780,914,915
781,914,914
782,914,917
783,917,916
784,916,915
785,914,915
786,913,912
787,911,912
788,906,910
789,904,908
790,905,909
791,905,910
792,904,910
793,904,913
794,904,914
795,907,916
796,906,913
797,905,914
798,901,910
799,900,907
800,896,907
801,895,904
802,893,904
803,892,903
804,894,905
805,896,903
806,899,903
807,901,903
808,905,901
809,907,900
810,906,898
811,908,897
812,906,897
813,909,895
814,909,896
815,910,898
816,911,899
817,910,900
818,911,901
819,913,904
820,914,900
821,913,900
822,914,899
823,913,896
824,910,896
825,912,897
826,912,900
827,913,903
828,917,903
829,917,907
830,920,910
831,921,912
832,920,911
833,919,912
834,917,910
835,918,910
836,916,907
837,914,908
838,913,907
839,913,909
840,915,910
841,915,915
842,917,916
843,918,916
844,918,916
845,918,915
846,915,916
847,914,916
848,913,915
849,912,914
850,909,918
851,910,916
852,914,919
853,911,919
854,911,916
855,908,917
856,908,915
857,907,917
858,905,913
859,899,913
860,897,911
861,893,909
862,895,909
863,895,909
864,898,910
865,901,912
866,905,912
867,907,913
868,909,913
869,911,913
870,912,912
871,911,910
872,911,911
873,906,911
874,903,910
875,902,914
876,910,918
877,926,926
878,956,941
879,993,957
880,1034,975
881,1086,994
882,1144,1013
883,1202,1029
884,1254,1044
885,1297,1058
886,1331,1075
887,1346,1092
888,1349,1115
889,1342,1131
890,1324,1137
891,1290,1118
892,1233,1068
893,1147,994
894,1044,908
895,955,819
896,897,750
897,870,714
898,871,715
899,883,744
900,900,785
901,911,820
902,917,851
903,918,867
904,913,878
905,908,885
906,901,887
907,899,892
908,895,897
909,892,905
910,891,909
911,890,911
912,889,915
913,888,917
914,888,920
915,885,921
916,884,921
917,883,922
918,877,920
919,872,922
920,871,920
921,867,919
922,863,923
923,861,923
924,860,924
925,863,926
926,864,927
927,864,927
928,864,924
929,864,924
930,863,921
931,862,921
932,862,919
933,861,921
934,863,920
935,867,918
936,866,921
937,868,920
938,871,920
939,870,919
940,872,920
941,875,919
942,872,918
943,872,917
944,869,916
945,870,916
946,869,918
947,868,918
948,868,920
949,870,921
950,871,922
951,873,923
952,869,920
953,867,922
954,865,920
955,864,919
956,861,918
957,857,916
958,857,916
959,854,918
960,853,916
961,852,917
962,850,919
963,851,918
964,848,915
965,845,913
966,843,908
967,840,907
968,833,906
969,832,902
970,828,902
971,826,901
972,824,901
973,824,900
974,822,897
975,820,896
976,818,891
977,817,888
978,811,885
979,807,880
980,801,875
981,798,872
982,797,871
983,795,869
984,795,867
985,796,864
986,800,867
987,803,867
988,804,868
989,806,868
990,811,868
991,811,869
992,814,869
993,824,869
994,830,874
995,836,878
996,843,881
997,848,887
998,857,892
999,870,899
1000,874,903
1001,880,906
1002,885,907
1003,887,907
1004,890,909
1005,894,912
1006,895,915
1007,901,918
1008,905,919
1009,910,922
1010,913,924
1011,916,925
1012,917,923
1013,919,922
1014,917,923
1015,916,920
1016,915,922
1017,914,921
1018,913,923
1019,914,926
1020,915,926
1021,917,927
1022,920,930
1023,917,930
1024,918,930
1025,918,928
1026,916,926
1027,915,926
1028,911,925
1029,912,929
1030,912,928
1031,912,930
1032,912,931
1033,913,931
1034,914,933
1035,911,934
1036,911,934
1037,910,932
1038,908,931
1039,907,928
1040,905,930
1041,906,930
1042,905,933
1043,907,934
1044,910,938
1045,912,939
1046,915,940
1047,911,940
1048,911,940
1049,910,938
1050,908,936
1051,908,938
1052,907,938
1053,908,939
1054,908,940
1055,910,943
1056,911,941
1057,912,943
1058,913,942
1059,913,939
1060,913,936
1061,911,937
1062,911,936
1063,909,932
1064,908,933
1065,907,932
1066,903,932
1067,903,934
1068,905,934
1069,906,935
1070,910,935
1071,913,932
1072,914,934
1073,917,933
1074,916,931
1075,915,928
1076,917,931
1077,918,933
1078,918,935
1079,920,939
1080,922,940
1081,925,943
1082,925,944
1083,928,944
1084,926,945
1085,926,943
1086,924,943
1087,923,941
1088,922,942
1089,921,942
1090,921,944
1091,920,947
1092,920,950
1093,922,954
1094,925,956
1095,925,954
1096,923,954
1097,921,954
1098,922,952
1099,921,953
1100,919,951
1101,919,952
1102,919,954
1103,919,956
1104,919,957
1105,920,959
1106,924,962
1107,923,961
1108,924,961
1109,923,957
1110,921,956
1111,919,955
1112,917,954
1113,918,954
1114,919,953
1115,919,954
1116,921,954
1117,924,956
1118,923,958
1119,923,955
1120,922,955
1121,921,953
1122,919,950
1123,916,945
1124,911,944
1125,910,946
1126,908,945
1127,907,945
1128,909,946
1129,907,947
1130,909,948
1131,909,944
1132,906,943
1133,908,940
1134,908,938
1135,908,936
1136,907,935
1137,912,938
1138,910,939
1139,913,942
1140,921,944
1141,923,947
1142,924,945
1143,926,947
1144,929,946
1145,927,946
1146,927,944
1147,926,945
1148,927,944
1149,924,945
1150,923,948
1151,921,948
1152,923,948
1153,925,949
1154,927,951
1155,926,948
1156,929,950
1157,926,950
1158,925,949
1159,924,947
1160,923,948
1161,923,950
1162,922,951
1163,925,952
1164,926,952
1165,927,957
1166,931,956
1167,931,955
1168,932,957
1169,931,956
1170,928,951
1171,925,952
1172,925,951
1173,922,950
1174,921,951
1175,922,953
1176,923,954
1177,925,957
1178,926,956
1179,927,954
1180,926,953
1181,926,952
1182,926,951
1183,923,948
1184,924,949
1185,922,950
1186,921,951
1187,923,954
1188,925,955
1189,924,956
1190,924,956
1191,920,955
1192,913,955
1193,906,952
1194,904,950
1195,914,954
1196,932,960
1197,963,975
1198,1004,995
1199,1055,1018
1200,1112,1036
1201,1173,1058
1202,1235,1076
1203,1290,1093
1204,1333,1110
1205,1358,1128
1206,1365,1150
1207,1362,1169
1208,1354,1186
1209,1334,1189
1210,1296,1165
1211,1235,1110
1212,1145,1028
1213,1044,930
1214,959,835
1215,903,763
1216,884,725
1217,884,732
1218,892,763
1219,904,805
1220,912,841
1221,915,869
1222,916,891
1223,913,902
1224,909,911
1225,907,919
1226,907,926
1227,905,932
1228,905,937
1229,905,941
1230,900,943
1231,898,944
1232,896,944
1233,893,949
1234,892,951
1235,888,952
1236,889,954
1237,889,953
1238,888,957
1239,889,956
1240,887,955
1241,888,953
1242,884,951
1243,881,951
1244,879,951
1245,876,951
1246,879,950
1247,876,951
1248,878,951
1249,878,954
1250,878,955
1251,877,952
1252,877,951
1253,875,950
1254,874,948
1255,870,944
1256,870,943
1257,869,945
1258,867,942
1259,861,943
1260,860,942
1261,859,942
1262,860,943
1263,860,939
1264,859,937
1265,859,935
1266,859,934
1267,857,931
1268,857,930
1269,856,934
1270,857,931
1271,856,934
1272,855,938
1273,852,938
1274,849,941
1275,852,941
1276,848,938
1277,849,937
1278,846,936
1279,841,935
1280,840,935
1281,837,936
1282,835,937
1283,833,939
1284,833,938
1285,829,939
1286,827,937
1287,823,936
1288,818,932
1289,815,931
1290,812,924
1291,809,919
1292,806,918
1293,804,913
1294,803,913
1295,799,912
1296,799,910
1297,798,909
1298,798,907
1299,797,904
1300,794,900
1301,792,893
1302,789,892
1303,789,888
1304,790,887
1305,791,886
1306,792,888
1307,799,886
1308,804,890
1309,810,890
1310,815,893
1311,821,894
1312,828,896
1313,838,898
1314,841,898
1315,845,902
1316,848,904
1317,852,907
1318,858,912
1319,864,915
1320,872,919
1321,876,923
1322,884,927
1323,889,927
1324,894,929
1325,896,930
1326,898,930
1327,899,929
1328,903,932
1329,905,934
1330,904,937
1331,911,938
1332,914,941
1333,915,942
1334,919,944
1335,919,944
1336,919,944
1337,919,945
1338,917,947
1339,914,945
1340,913,945
1341,913,946
1342,913,944
1343,913,949
1344,914,949
1345,912,953
1346,914,955
1347,914,956
1348,911,956
1349,911,957
1350,910,958
1351,909,959
1352,908,958
1353,908,960
1354,907,963
1355,909,967
1356,913,968
1357,914,967
1358,917,971
1359,915,965
1360,917,967
1361,916,967
1362,917,966
1363,916,963
1364,917,965
1365,919,964
1366,919,965
1367,920,968
1368,922,970
1369,922,971
1370,923,971
1371,924,969
1372,922,968
1373,920,966
1374,919,963
1375,915,962
1376,916,960
1377,916,961
1378,919,962
1379,923,963
1380,928,964
1381,929,965
1382,931,966
1383,934,965
1384,935,964
1385,935,961
1386,938,962
1387,937,960
1388,933,960
1389,937,962
1390,937,961
1391,938,966
1392,940,965
1393,941,967
1394,941,967
1395,942,968
1396,943,966
1397,943,966
1398,941,966
1399,940,963
1400,938,962
1401,935,965
1402,931,964
1403,927,964
1404,923,968
1405,918,969
1406,927,976
1407,949,982
1408,981,1001
1409,1022,1019
1410,1073,1044
1411,1128,1065
1412,1188,1081
1413,1248,1095
1414,1304,1109
1415,1344,1125
1416,1370,1144
1417,1383,1170
1418,1381,1193
1419,1362,1205
1420,1331,1195
1421,1277,1152
1422,1189,1078
1423,1085,985
1424,984,889
1425,910,810
1426,873,767
1427,860,763
1428,864,791
1429,874,829
1430,886,866
1431,891,888
1432,893,901
1433,893,908
1434,891,912
1435,884,916
1436,881,921
1437,881,928
1438,881,931
1439,883,941
1440,883,942
1441,888,945
1442,890,949
1443,891,949
1444,890,948
1445,889,950
1446,890,950
1447,890,949
1448,887,952
1449,886,953
1450,888,953
1451,888,957
1452,892,958
1453,892,961
1454,895,963
1455,893,961
1456,891,961
1457,888,960
1458,886,958
1459,887,958
1460,887,959
1461,887,960
1462,886,960
1463,886,962
1464,887,963
1465,886,964
1466,885,965
1467,884,965
1468,882,964
1469,881,963
1470,880,962
1471,877,962
1472,874,958
1473,873,960
1474,871,961
1475,871,963
1476,871,965
1477,870,963
1478,870,967
1479,868,965
1480,865,965
1481,861,966
1482,858,963
1483,856,961
1484,850,959
1485,847,960
1486,843,956
1487,840,959
1488,839,954
1489,839,957
1490,836,956
1491,836,953
1492,829,949
1493,830,948
1494,828,943
1495,827,939
1496,825,935
1497,822,936
1498,820,935
1499,819,935
1500,820,933
1501,817,933
1502,818,932
1503,819,930
1504,818,926
1505,817,924
1506,817,919
1507,817,916
1508,816,915
1509,812,914
1510,813,913
1511,811,913
1512,815,913
1513,815,914
1514,819,913
1515,824,915
1516,826,911
1517,830,913
1518,833,912
1519,836,914
1520,841,914
1521,848,916
1522,855,920
1523,862,924
1524,870,930
1525,876,932
1526,878,937
1527,884,938
1528,888,940
1529,888,941
1530,890,939
1531,892,940
1532,893,941
1533,896,944
1534,899,948
1535,901,952
1536,903,954
1537,905,954
1538,905,955
1539,909,956
1540,909,958
1541,907,957
1542,908,957
1543,906,955
1544,905,955
1545,905,958
1546,902,958
1547,903,957
1548,904,960
1549,903,960
1550,907,961
1551,908,961
1552,907,960
1553,905,960
1554,905,959
1555,907,958
1556,906,956
1557,901,958
1558,902,960
1559,901,961
1560,902,963
1561,903,963
1562,905,963
1563,906,964
1564,908,963
1565,908,961
1566,911,960
1567,912,958
1568,912,956
1569,913,959
1570,917,961
1571,918,964
1572,923,968
1573,925,970
1574,923,972
1575,925,970
1576,918,967
1577,919,966
1578,916,964
1579,914,960
1580,913,959
1581,911,959
1582,909,962
1583,911,961
1584,911,962
1585,911,964
1586,913,963
1587,916,962
1588,915,962
1589,916,961
1590,914,957
1591,912,961
1592,911,960
1593,911,961
1594,911,961
1595,911,962
1596,912,964
1597,910,964
1598,911,966
1599,911,967
1600,909,966
1601,910,963
1602,908,961
1603,908,959
1604,903,958
1605,903,957
1606,904,959
1607,904,960
1608,904,959
1609,906,961
1610,907,962
1611,909,960
1612,906,961
1613,907,957
1614,902,956
1615,900,955
1616,900,952
1617,899,953
1618,898,955
1619,898,955
1620,898,956
1621,897,958
1622,895,958
1623,895,957
1624,894,953
1625,892,949
1626,890,947
1627,890,945
1628,891,942
1629,893,946
1630,896,946
1631,899,951
1632,906,951
1633,910,953
1634,912,954
1635,915,956
1636,916,958
1637,915,958
1638,917,959
1639,915,958
1640,917,957
1641,916,958
1642,915,959
1643,916,961
1644,917,963
1645,918,963
1646,920,967
1647,919,967
1648,920,967
1649,919,966
1650,916,964
1651,916,962
1652,914,961
1653,914,962
1654,911,962
1655,912,965
1656,911,964
1657,911,966
1658,908,970
1659,905,965
1660,904,965
1661,902,962
1662,899,959
1663,899,956
1664,898,956
1665,896,958
1666,897,960
1667,899,959
1668,902,961
1669,904,960
1670,905,962
1671,904,959
1672,904,962
1673,903,958
1674,901,957
1675,901,956
1676,897,956
1677,895,953
1678,896,954
1679,896,956
1680,896,956
1681,895,957
1682,897,958
1683,897,955
1684,894,955
1685,892,953
1686,893,954
1687,893,951
1688,897,951
1689,899,952
1690,903,953
1691,906,956
1692,908,957
1693,907,962
1694,908,963
1695,903,962
1696,900,962
1697,902,964
1698,913,970
1699,940,977
1700,976,992
1701,1020,1015
1702,1075,1037
1703,1134,1058
1704,1199,1074
1705,1262,1091
1706,1314,1107
1707,1352,1122
1708,1371,1144
1709,1376,1164
1710,1365,1182
1711,1344,1187
1712,1308,1167
1713,1244,1117
1714,1152,1040
1715,1045,951
1716,952,862
1717,892,790
1718,870,756
1719,870,754
1720,882,786
1721,892,824
1722,903,857
1723,905,883
1724,902,899
1725,895,907
1726,889,914
1727,885,922
1728,884,929
1729,881,938
1730,882,944
1731,882,948
1732,880,954
1733,876,952
1734,870,953
1735,865,951
1736,862,950
1737,860,951
1738,858,951
1739,859,953
1740,860,955
1741,861,961
1742,863,961
1743,863,959
1744,861,962
1745,865,957
1746,862,958
1747,861,957
1748,860,956
1749,859,956
1750,857,957
1751,858,960
1752,857,961
1753,857,964
1754,858,964
1755,860,963
1756,860,963
1757,860,962
1758,862,960
1759,860,958
1760,861,959
1761,856,959
1762,858,961
1763,855,963
1764,857,963
1765,857,965
1766,857,967
1767,858,966
1768,857,965
1769,855,962
1770,852,960
1771,851,960
1772,848,958
1773,847,959
1774,847,957
1775,844,958
1776,845,959
1777,843,960
1778,842,959
1779,841,960
1780,839,957
1781,834,954
1782,831,953
1783,829,952
1784,825,947
1785,824,947
1786,822,945
1787,818,945
1788,816,944
1789,813,942
1790,811,940
1791,807,936
1792,802,931
1793,798,929
1794,795,923
1795,791,916
1796,787,911
1797,782,911
1798,783,907
1799,782,907
1800,779,905
1801,779,905
1802,782,903
1803,782,902
1804,781,901
1805,781,896
1806,779,892
1807,777,889
1808,778,887
1809,776,888
1810,776,888
1811,779,890
1812,783,892
1813,785,892
1814,791,893
1815,797,894
1816,799,896
1817,805,895
1818,812,896
1819,820,896
1820,824,899
1821,829,905
1822,837,910
1823,845,915
1824,853,921
1825,859,926
1826,868,931
1827,873,934
1828,877,939
1829,880,938
1830,882,941
1831,884,942
1832,886,944
1833,889,948
1834,891,948
1835,894,953
1836,898,956
1837,900,957
1838,905,962
1839,906,962
1840,908,962
1841,906,962
1842,905,957
1843,902,955
1844,902,955
1845,901,958
1846,901,957
1847,901,960
1848,901,960
1849,900,960
1850,904,962
1851,907,961
1852,907,960
1853,908,957
1854,905,955
1855,905,956
1856,904,955
1857,902,957
1858,904,958
1859,906,959
1860,908,963
1861,909,963
1862,912,964
1863,916,963
1864,917,965
1865,917,965
1866,917,965
1867,916,963
1868,916,964
1869,914,968
1870,914,971
1871,915,974
1872,917,976
1873,916,980
1874,920,983
1875,922,984
1876,920,985
1877,920,984
1878,917,983
1879,919,984
1880,916,984
1881,918,985
1882,919,986
1883,918,990
1884,920,992
1885,919,995
1886,920,996
1887,923,996
1888,922,998
1889,920,994
1890,922,993
1891,919,992
1892,915,990
1893,913,990
1894,911,989
1895,912,991
1896,914,993
1897,915,991
1898,914,991
1899,915,990
1900,912,987
1901,910,983
1902,905,982
1903,904,981
1904,899,977
1905,898,977
1906,901,977
1907,899,978
1908,903,977
1909,903,978
1910,900,981
1911,901,979
1912,899,976
1913,904,979
1914,922,984
1915,952,996
1916,992,1016
1917,1040,1039
1918,1098,1061
1919,1159,1079
1920,1223,1095
1921,1284,1109
1922,1334,1121
1923,1364,1136
1924,1373,1155
1925,1369,1170
1926,1352,1177
1927,1315,1158
1928,1250,1106
1929,1154,1025
1930,1043,928
1931,947,838
1932,887,773
1933,862,751
1934,865,766
1935,882,804
1936,897,849
1937,908,885
1938,908,910
1939,905,922
1940,897,930
1941,889,937
1942,885,943
1943,885,951
1944,888,961
1945,889,966
1946,890,971
1947,891,973
1948,889,975
1949,884,974
1950,885,971
1951,881,973
1952,878,974
1953,878,973
1954,875,975
1955,874,975
1956,875,978
1957,871,980
1958,871,980
1959,870,979
1960,869,979
1961,866,978
1962,862,974
1963,859,977
1964,855,973
1965,854,971
1966,853,972
1967,851,971
1968,851,972
1969,853,973
1970,854,976
1971,855,972
1972,854,972
1973,854,972
1974,853,972
1975,852,971
1976,852,968
1977,852,971
1978,854,971
1979,855,972
1980,856,972
1981,859,973
1982,858,975
1983,859,976
1984,858,976
1985,860,976
1986,859,973
1987,856,974
1988,855,973
1989,852,972
1990,848,972
1991,848,974
1992,850,974
1993,850,977
1994,849,975
1995,848,975
1996,848,972
1997,846,968
1998,844,968
1999,841,964
2000,837,962
2001,834,962
2002,831,962
2003,828,961
2004,827,960
2005,825,960
2006,824,961
2007,824,958
2008,821,957
2009,820,953
2010,815,951
2011,811,949
2012,806,944
2013,804,942
2014,799,941
2015,797,941
2016,794,940
2017,796,938
2018,796,940
2019,796,936
2020,797,933
2021,799,932
2022,799,927
2023,800,926
2024,803,924
2025,804,927
2026,810,926
2027,819,931
2028,829,934
2029,833,937
2030,842,941
2031,851,943
2032,856,944
2033,860,943
2034,861,944
2035,864,945
2036,867,943
2037,867,948
2038,875,951
2039,880,952
2040,884,957
2041,889,959
2042,897,962
2043,900,964
2044,901,964
2045,904,964
2046,905,966
2047,902,964
2048,903,962
2049,903,961
2050,903,965
2051,903,964
2052,903,966
2053,904,971
2054,905,971
2055,908,971
2056,907,972
2057,906,972
2058,909,970
2059,905,969
2060,902,968
2061,902,969
2062,900,969
2063,901,970
2064,903,972
2065,903,976
2066,905,978
2067,906,977
2068,907,977
2069,908,978
2070,905,976
2071,901,974
2072,900,974
2073,899,975
2074,900,975
2075,901,977
2076,900,976
2077,903,978
2078,903,983
2079,905,979
2080,903,979
2081,904,979
2082,903,977
2083,902,974
2084,902,975
2085,902,977
2086,903,980
2087,902,978
2088,904,982
2089,903,984
2090,906,985
2091,911,986
2092,910,985
2093,908,980
2094,907,980
2095,904,979
2096,904,979
2097,904,980
2098,903,980
2099,904,981
2100,907,985
2101,908,984
2102,910,987
2103,917,986
2104,917,984
2105,917,983
2106,915,983
2107,914,983
2108,911,981
2109,910,981
2110,907,983
2111,906,984
2112,909,983
2113,911,984
2114,914,985
2115,914,980
2116,913,979
2117,913,977
2118,909,976
2119,908,976
2120,907,974
2121,907,974
2122,907,975
2123,909,978
2124,909,978
2125,909,978
2126,912,977
2127,912,979
2128,910,978
2129,910,978
2130,911,978
2131,908,978
2132,907,979
2133,908,978
2134,909,979
2135,911,979
2136,912,979
2137,914,981
2138,916,982
2139,914,981
2140,915,979
2141,914,976
2142,909,976
2143,908,975
2144,906,970
2145,907,972
2146,912,974
2147,913,974
2148,914,975
2149,914,976
2150,915,977
2151,915,977
2152,914,975
2153,914,974
2154,915,972
2155,915,972
2156,913,972
2157,913,973
2158,912,975
2159,911,976
2160,912,975
2161,913,976
2162,913,978
2163,915,977
2164,916,978
2165,914,978
2166,916,980
2167,916,978
2168,915,979
2169,913,980
2170,911,980
2171,911,979
2172,915,980
2173,911,981
2174,911,982
2175,908,981
2176,911,981
2177,909,978
2178,907,976
2179,905,973
2180,904,972
2181,903,970
2182,905,971
2183,907,974
2184,909,976
2185,911,979
2186,914,980
2187,914,981
2188,914,980
2189,913,982
2190,914,981
2191,911,982
2192,907,982
2193,903,982
2194,898,987
2195,893,987
2196,895,988
2197,907,993
2198,931,1008
2199,970,1024
2200,1017,1044
2201,1076,1069
2202,1142,1089
2203,1211,1107
2204,1275,1127
2205,1329,1145
2206,1366,1166
2207,1379,1193
2208,1378,1213
2209,1363,1225
2210,1329,1211
2211,1264,1157
2212,1166,1067
2213,1048,955
2214,946,845
2215,882,770
2216,856,740
2217,856,755
2218,873,798
2219,891,849
2220,900,890
2221,906,913
2222,906,929
2223,903,934
2224,897,940
2225,894,946
2226,894,949
2227,890,953
2228,891,962
2229,890,966
2230,889,968
2231,887,972
2232,887,974
2233,887,973
2234,888,978
2235,887,975
2236,881,975
2237,880,972
2238,879,971
2239,877,971
2240,870,971
2241,873,970
2242,870,975
2243,870,976
2244,871,977
2245,870,981
2246,870,981
2247,867,980
2248,868,980
2249,864,979
2250,863,976
2251,861,976
2252,858,974
2253,856,973
2254,855,973
2255,856,975
2256,856,977
2257,856,978
2258,856,977
2259,857,978
2260,855,975
2261,853,974
2262,851,973
2263,849,972
2264,848,969
2265,847,968
2266,847,968
2267,846,971
2268,845,971
2269,843,969
2270,842,971
2271,841,968
2272,838,965
2273,834,961
2274,827,958
2275,825,953
2276,823,949
2277,819,949
2278,820,950
2279,821,948
2280,819,949
2281,818,948
2282,818,948
2283,817,945
2284,813,940
2285,809,936
2286,806,932
2287,802,928
2288,799,924
2289,794,921
2290,791,919
2291,787,917
2292,786,913
2293,786,915
2294,786,916
2295,786,912
2296,784,910
2297,782,907
2298,781,904
2299,781,900
2300,780,896
2301,782,896
2302,785,899
2303,789,899
2304,792,902
2305,799,904
2306,805,906
2307,811,909
2308,817,909
2309,827,912
2310,833,913
2311,838,917
2312,844,921
2313,851,925
2314,858,931
2315,862,936
2316,868,938
2317,875,943
2318,884,949
2319,887,952
2320,893,955
2321,895,957
2322,898,956
2323,898,958
2324,898,958
2325,900,960
2326,900,964
2327,901,961
2328,903,966
2329,906,965
2330,907,966
2331,908,969
2332,908,966
2333,908,964
2334,907,962
2335,907,963
2336,905,961
2337,901,961
2338,902,960
2339,902,960
2340,905,963
2341,908,965
2342,911,967
2343,915,967
2344,915,966
2345,915,967
2346,914,968
2347,913,965
2348,913,966
2349,913,966
2350,914,968
2351,914,971
2352,915,974
2353,917,977
2354,918,977
2355,921,979
2356,922,979
2357,922,982
2358,921,981
2359,920,981
2360,918,981
2361,918,980
2362,919,986
2363,919,989
2364,921,991
2365,923,993
2366,923,995
2367,926,996
2368,926,994
2369,927,995
2370,924,993
2371,922,993
2372,922,994
2373,924,992
2374,925,993
2375,925,992
2376,928,997
2377,927,997
2378,931,998
2379,931,997
2380,929,997
2381,929,997
2382,928,993
2383,925,991
2384,923,989
2385,924,990
2386,922,992
2387,926,992
2388,924,991
2389,922,991
2390,922,990
2391,922,991
2392,922,987
2393,921,988
2394,920,984
2395,917,983
2396,916,980
2397,914,983
2398,915,985
2399,913,984
2400,914,985
2401,915,987
2402,914,988
2403,915,985
2404,914,986
2405,913,984
2406,911,982
2407,908,981
2408,910,978
2409,908,983
2410,909,982
2411,911,983
2412,910,986
2413,910,986
2414,914,987
2415,915,985
2416,915,983
2417,915,982
2418,914,981
2419,911,976
2420,912,974
2421,911,974
2422,912,973
2423,911,975
2424,914,976
2425,913,978
2426,913,979
2427,912,976
2428,913,977
2429,915,975
2430,916,972
2431,914,970
2432,913,972
2433,913,971
2434,914,972
2435,915,971
2436,914,973
2437,918,973
2438,920,974
2439,923,975
2440,922,973
2441,921,972
2442,920,970
2443,921,970
2444,922,968
2445,920,968
2446,919,968
2447,919,968
2448,918,972
2449,920,971
2450,921,971
2451,923,969
2452,922,968
2453,918,968
2454,915,968
2455,914,966
2456,916,968
2457,917,968
2458,917,972
2459,917,974
2460,918,975
2461,917,975
2462,915,974
2463,915,974
2464,906,973
2465,901,971
2466,896,970
2467,897,974
2468,910,979
2469,937,994
2470,975,1012
2471,1025,1032
2472,1089,1055
2473,1155,1075
2474,1221,1092
2475,1284,1107
2476,1335,1121
2477,1366,1143
2478,1379,1164
2479,1374,1185
2480,1355,1191
2481,1312,1169
2482,1244,1114
2483,1143,1027
2484,1029,925
2485,933,828
2486,875,761
2487,849,742
2488,858,757
2489,872,800
2490,888,841
2491,899,876
2492,901,898
2493,898,910
2494,895,917
2495,889,925
2496,889,931
2497,886,936
2498,889,946
2499,890,951
2500,889,952
2501,886,956
2502,883,954
2503,883,955
2504,878,953
2505,878,953
2506,880,953
2507,880,956
2508,882,959
2509,880,960
2510,879,964
2511,881,963
2512,878,964
2513,878,963
2514,876,963
2515,874,962
2516,871,962
2517,871,963
2518,873,962
2519,872,964
2520,872,966
2521,870,966
2522,870,970
2523,866,969
2524,864,967
2525,860,965
2526,858,962
2527,852,959
2528,851,956
2529,848,957
2530,845,957
2531,846,955
2532,848,955
2533,845,958
2534,847,960
2535,850,958
2536,849,956
2537,846,957
2538,845,954
2539,842,949
2540,839,949
2541,835,948
2542,834,949
2543,833,947
2544,831,948
2545,830,950
2546,832,951
2547,832,947
2548,832,947
2549,833,943
2550,827,941
2551,823,939
2552,819,936
2553,817,935
2554,813,934
2555,810,933
2556,808,930
2557,810,930
2558,808,930
2559,805,929
2560,803,924
2561,801,920
2562,799,918
2563,797,913
2564,792,909
2565,788,908
2566,785,907
2567,783,905
2568,781,904
2569,778,901
2570,775,902
2571,780,898
2572,778,896
2573,779,895
2574,780,892
2575,781,891
2576,786,891
2577,792,890
2578,797,896
2579,805,899
2580,812,903
2581,818,907
2582,824,911
2583,832,916
2584,839,914
2585,842,918
2586,850,920
2587,852,923
2588,857,923
2589,860,926
2590,866,931
2591,868,934
2592,873,938
2593,878,941
2594,882,946
2595,884,948
2596,886,947
2597,888,949
2598,890,949
2599,891,949
2600,891,949
2601,892,949
2602,894,950
2603,896,952
2604,899,954
2605,899,956
2606,902,957
2607,902,961
2608,903,958
2609,902,957
2610,901,959
2611,900,959
2612,901,958
2613,901,958
2614,902,963
2615,900,963
2616,901,963
2617,904,965
2618,907,964
2619,906,964
2620,908,963
2621,909,963
2622,906,962
2623,909,960
2624,907,959
2625,906,960
2626,907,961
2627,907,961
2628,909,968
2629,909,972
2630,911,974
2631,913,974
2632,912,972
2633,915,974
2634,913,971
2635,911,971
2636,910,971
2637,909,972
2638,906,972
2639,904,973
2640,907,972
2641,905,973
2642,906,975
2643,909,975
2644,910,972
2645,912,972
2646,909,969
2647,910,968
2648,908,964
2649,905,964
2650,907,965
2651,905,966
2652,908,967
2653,907,970
2654,908,970
2655,909,969
2656,906,968
2657,906,966
2658,904,967
2659,901,962
2660,899,960
2661,902,959
2662,898,962
2663,899,960
2664,900,962
2665,903,964
2666,903,965
2667,902,965
2668,903,963
2669,903,961
2670,899,959
2671,899,957
2672,899,956
2673,900,955
2674,902,953
2675,904,957
2676,907,958
2677,905,960
2678,910,961
2679,909,964
2680,907,960
2681,910,960
2682,908,956
2683,907,953
2684,904,954
2685,904,952
2686,904,954
2687,904,955
2688,904,957
2689,905,957
2690,906,958
2691,909,960
2692,910,957
2693,910,958
2694,912,957
2695,911,953
2696,910,953
2697,908,951
2698,907,955
2699,907,954
2700,909,955
2701,913,957
2702,911,957
2703,914,957
2704,912,958
2705,914,956
2706,912,956
2707,912,954
2708,907,952
2709,904,952
2710,898,955
2711,898,956
2712,899,960
2713,907,966
2714,927,977
2715,959,994
2716,1002,1013
2717,1049,1030
2718,1108,1047
2719,1170,1064
2720,1229,1077
2721,1285,1092
2722,1328,1108
2723,1358,1130
2724,1366,1152
2725,1365,1173
2726,1352,1183
2727,1320,1166
2728,1265,1118
2729,1181,1046
2730,1077,959
2731,967,866
2732,889,788
2733,849,744
2734,844,739
2735,850,764
2736,869,803
2737,880,845
2738,886,874
2739,889,893
2740,884,900
2741,878,908
2742,872,913
2743,868,917
2744,867,920
2745,866,928
2746,868,933
2747,869,939
2748,870,944
2749,872,946
2750,873,948
2751,872,949
2752,872,949
2753,873,947
2754,872,947
2755,870,947
2756,870,944
2757,866,945
2758,869,947
2759,866,948
2760,869,951
2761,867,951
2762,868,955
2763,869,954
2764,868,953
2765,865,954
2766,865,952
2767,861,951
2768,860,949
2769,858,947
2770,859,949
2771,856,949
2772,859,951
2773,857,953
2774,855,953
2775,855,955
2776,853,953
2777,852,953
2778,850,950
2779,849,949
2780,846,948
2781,846,945
2782,845,948
2783,842,949
2784,844,952
2785,842,954
2786,844,958
2787,843,955
2788,842,954
2789,840,954
2790,836,951
2791,831,949
2792,829,948
2793,826,947
2794,825,946
2795,822,948
2796,823,948
2797,823,948
2798,823,950
2799,822,949
2800,822,947
2801,817,945
2802,813,942
2803,810,940
2804,804,935
2805,802,933
2806,800,931
2807,799,928
2808,796,927
2809,794,926
2810,794,925
2811,793,923
2812,794,917
2813,793,912
2814,788,911
2815,783,903
2816,781,902
2817,777,898
2818,775,897
2819,777,897
2820,779,897
2821,783,894
2822,786,895
2823,791,897
2824,795,894
2825,797,896
2826,801,895
2827,804,896
2828,810,897
2829,813,898
2830,820,902
2831,821,905
2832,830,911
2833,839,913
2834,843,918
2835,849,923
2836,851,924
2837,853,927
2838,856,927
2839,856,928
2840,857,928
2841,856,930
2842,862,931
2843,864,934
2844,871,941
2845,871,941
2846,875,944
2847,876,945
2848,876,946
2849,879,943
2850,879,945
2851,877,943
2852,877,946
2853,879,943
2854,880,946
2855,884,949
2856,887,952
2857,888,955
2858,892,956
2859,894,958
2860,894,957
2861,897,959
2862,898,959
2863,898,957
2864,897,957
2865,898,956
2866,900,957
2867,897,958
2868,897,958
2869,902,960
2870,906,961
2871,909,962
2872,912,961
2873,913,962
2874,914,960
2875,913,957
2876,914,957
2877,914,958
2878,912,959
2879,915,962
2880,915,965
2881,917,965
2882,919,969
2883,919,969
2884,922,966
2885,919,967
2886,916,964
2887,914,964
2888,910,962
2889,909,964
2890,910,964
2891,909,964
2892,908,966
2893,905,967
2894,906,968
2895,905,967
2896,905,966
2897,902,969
2898,901,965
2899,897,963
2900,895,960
2901,891,959
2902,888,961
2903,891,961
2904,888,962
2905,890,963
2906,887,963
2907,891,964
2908,889,961
2909,887,962
2910,887,957
2911,882,956
2912,883,955
2913,880,953
2914,880,956
2915,883,957
2916,885,957
2917,889,958
2918,892,960
2919,892,960
2920,891,960
2921,891,959
2922,889,957
2923,889,957
2924,888,955
2925,887,957
2926,890,960
2927,894,958
2928,896,959
2929,900,962
2930,902,961
2931,906,963
2932,906,963
2933,907,960
2934,907,956
2935,906,955
2936,907,953
2937,905,953
2938,907,956
2939,908,957
2940,909,957
2941,911,959
2942,915,960
2943,915,961
2944,915,958
2945,913,961
2946,913,957
2947,909,957
2948,907,954
2949,906,953
2950,904,955
2951,904,953
2952,903,956
2953,904,956
2954,903,957
2955,899,956
2956,897,954
2957,893,954
2958,891,950
2959,887,949
2960,884,947
2961,883,946
2962,881,945
2963,879,946
2964,880,945
2965,877,944
2966,877,944
2967,880,948
2968,881,944
2969,883,947
2970,883,948
2971,881,948
2972,882,946
2973,882,944
2974,880,947
2975,881,948
2976,882,951
2977,887,954
2978,890,954
2979,897,956
2980,897,956
2981,898,954
2982,895,956
2983,896,953
2984,896,953
2985,895,949
2986,898,954
2987,897,954
2988,902,957
2989,905,959
2990,908,961
2991,910,963
2992,911,961
2993,911,961
2994,910,959
2995,908,957
2996,901,958
2997,895,960
2998,892,960
2999,899,965
3000,920,975
3001,950,990
3002,991,1009
3003,1041,1027
3004,1094,1042
3005,1154,1063
3006,1215,1075
3007,1271,1089
3008,1318,1102
3009,1351,1117
3010,1370,1137
3011,1374,1158
3012,1365,1180
3013,1348,1184
3014,1325,1167
3015,1278,1123
3016,1201,1050
3017,1096,965
3018,989,876
3019,903,796
3020,854,744
3021,839,727
3022,845,746
3023,856,781
3024,869,822
3025,878,854
3026,881,879
3027,877,891
3028,871,902
3029,866,908
3030,860,913
3031,858,919
3032,854,923
3033,854,928
3034,856,932
3035,857,938
3036,858,943
3037,859,949
3038,861,952
3039,862,953
3040,860,952
3041,857,954
3042,857,953
3043,853,952
3044,852,950
3045,850,950
3046,847,951
3047,850,951
3048,849,951
3049,852,954
3050,854,955
3051,853,955
3052,856,955
3053,854,955
3054,852,951
3055,850,951
3056,849,950
3057,850,948
3058,848,947
3059,849,950
3060,847,954
3061,848,954
3062,849,953
3063,848,951
3064,846,950
3065,844,949
3066,843,947
3067,843,945
3068,842,946
3069,842,944
3070,838,946
3071,837,948
3072,837,950
3073,836,949
3074,835,947
3075,835,948
3076,833,945
3077,831,943
3078,828,941
3079,827,938
3080,824,940
3081,823,937
3082,820,938
3083,819,940
3084,817,939
3085,816,941
3086,819,940
3087,814,941
3088,812,938
3089,808,937
3090,802,932
3091,799,930
3092,791,928
3093,789,925
3094,789,923
3095,786,923
3096,785,922
3097,783,918
3098,781,917
3099,781,916
3100,779,910
3101,775,907
3102,771,904
3103,767,898
3104,761,896
3105,759,891
3106,756,890
3107,756,889
3108,758,888
3109,759,887
3110,760,885
3111,764,886
3112,767,881
3113,769,880
3114,774,881
3115,781,878
3116,783,879
3117,789,881
3118,793,885
3119,798,890
3120,807,892
3121,816,899
3122,824,900
3123,833,907
3124,843,907
3125,847,914
3126,849,913
3127,854,916
3128,856,915
3129,859,919
3130,862,921
3131,866,925
3132,870,929
3133,873,931
3134,877,935
3135,877,939
3136,880,938
3137,881,938
3138,881,938
3139,882,939
3140,883,941
3141,883,941
3142,884,941
3143,885,943
3144,886,944
3145,888,947
3146,889,950
3147,892,950
3148,893,948
3149,893,948
3150,889,946
3151,891,943
3152,891,944
3153,891,943
3154,890,945
3155,891,945
3156,893,949
3157,896,950
3158,899,954
3159,899,956
3160,900,954
3161,902,955
3162,902,957
3163,904,955
3164,902,956
3165,903,956
3166,901,959
3167,904,961
3168,903,963
3169,904,966
3170,904,966
3171,905,967
3172,904,966
3173,905,969
3174,906,967
3175,905,967
3176,904,969
3177,904,967
3178,903,968
3179,904,971
3180,904,972
3181,904,974
3182,905,975
3183,906,976
3184,904,974
3185,904,973
3186,903,972
3187,901,970
3188,901,970
3189,899,971
3190,899,967
3191,901,970
3192,901,971
3193,902,971
3194,905,971
3195,904,970
3196,906,967
3197,903,967
3198,903,967
3199,904,967
3200,900,965
3201,902,965
3202,902,968
3203,903,968
3204,905,967
3205,906,969
3206,912,969
3207,914,971
3208,914,970
3209,915,968
3210,913,967
3211,913,967
3212,910,966
3213,911,964
3214,908,965
3215,905,967
3216,899,969
3217,894,970
3218,890,972
3219,896,976
3220,910,980
3221,938,993
3222,973,1008
3223,1020,1028
3224,1078,1048
3225,1143,1066
3226,1215,1086
3227,1279,1106
3228,1328,1127
3229,1360,1147
3230,1371,1169
3231,1367,1190
3232,1345,1190
3233,1303,1165
3234,1230,1104
3235,1125,1012
3236,1011,905
3237,915,811
3238,862,749
3239,844,728
3240,852,749
3241,875,793
3242,893,841
3243,904,879
3244,904,903
3245,899,917
3246,892,923
3247,881,923
3248,877,929
3249,874,932
3250,873,938
3251,877,943
3252,879,951
3253,880,954
3254,879,956
3255,880,958
3256,878,958
3257,879,958
3258,876,957
3259,878,956
3260,874,959
3261,873,959
3262,871,961
3263,869,963
3264,872,966
3265,872,967
3266,871,970
3267,872,968
3268,865,967
3269,865,966
3270,862,964
3271,860,964
3272,858,961
3273,856,961
3274,856,963
3275,853,965
3276,854,964
3277,856,964
3278,855,964
3279,857,965
3280,856,960
3281,854,960
3282,851,957
3283,850,955
3284,849,952
3285,847,951
3286,843,951
3287,841,952
3288,840,951
3289,839,956
3290,838,955
3291,839,956
3292,838,952
3293,837,952
3294,839,950
3295,834,948
3296,832,947
3297,830,945
3298,826,947
3299,827,948
3300,826,948
3301,826,948
3302,825,951
3303,825,951
3304,825,948
3305,822,945
3306,820,943
3307,816,940
3308,813,937
3309,811,937
3310,810,933
3311,809,930
3312,809,932
3313,810,931
3314,809,932
3315,810,929
3316,808,927
3317,808,926
3318,806,923
3319,804,917
3320,803,915
3321,802,913
3322,801,914
3323,802,912
3324,805,910
3325,808,913
3326,814,912
3327,817,914
3328,821,913
3329,827,914
3330,832,912
3331,837,915
3332,841,915
3333,847,918
3334,853,921
3335,856,925
3336,861,928
3337,866,934
3338,871,935
3339,877,941
3340,884,940
3341,882,942
3342,881,938
3343,883,939
3344,882,938
3345,879,936
3346,879,936
3347,879,937
3348,883,937
3349,888,939
3350,888,939
3351,890,940
3352,889,941
3353,890,939
3354,889,937
3355,889,938
3356,888,936
3357,887,933
3358,885,936
3359,887,937
3360,886,939
3361,887,939
3362,886,940
3363,889,942
3364,890,939
3365,892,939
3366,888,939
3367,888,940
3368,890,941
3369,891,941
3370,892,942
3371,894,944
3372,895,948
3373,899,950
3374,901,951
3375,903,952
3376,901,952
3377,902,952
3378,902,952
3379,900,950
3380,903,951
3381,901,949
3382,901,951
3383,903,950
3384,904,953
3385,905,955
3386,907,957
3387,908,956
3388,911,959
3389,910,957
3390,909,956
3391,908,954
3392,907,953
3393,907,953
3394,907,953
3395,911,951
3396,914,955
3397,914,957
3398,914,958
3399,919,961
3400,917,957
3401,916,958
3402,915,953
3403,912,951
3404,912,952
3405,907,951
3406,906,951
3407,904,954
3408,905,951
3409,906,954
3410,905,955
3411,905,955
3412,905,952
3413,905,952
3414,903,947
3415,903,945
3416,900,945
3417,896,941
3418,895,943
3419,895,942
3420,897,944
3421,897,944
3422,898,945
3423,899,947
3424,899,947
3425,898,946
3426,900,945
3427,897,940
3428,898,940
3429,897,939
3430,897,941
3431,898,939
3432,900,942
3433,901,944
3434,900,946
3435,900,951
3436,905,951
3437,907,953
3438,906,952
3439,903,953
3440,905,952
3441,904,952
3442,899,955
3443,892,957
3444,888,957
3445,889,959
3446,892,963
3447,908,974
3448,935,984
3449,975,1001
3450,1023,1020
3451,1078,1039
3452,1142,1054
3453,1204,1069
3454,1266,1088
3455,1316,1106
3456,1349,1126
3457,1363,1148
3458,1361,1171
3459,1350,1180
3460,1324,1166
3461,1271,1121
3462,1187,1045
3463,1078,951
3464,976,856
3465,904,782
3466,868,745
3467,860,749
3468,872,778
3469,887,817
3470,896,853
3471,904,878
3472,905,892
3473,901,900
3474,892,907
3475,886,909
3476,881,912
3477,882,916
3478,882,925
3479,881,929
3480,879,934
3481,875,937
3482,873,938
3483,870,939
3484,869,938
3485,866,935
3486,864,936
3487,862,934
3488,860,931
3489,856,932
3490,855,934
3491,856,935
3492,854,939
3493,855,939
3494,857,940
3495,857,943
3496,853,938
3497,850,938
3498,847,938
3499,845,935
3500,842,932
3501,840,930
3502,837,931
3503,837,933
3504,837,933
3505,833,934
3506,836,937
3507,836,939
3508,835,936
3509,833,937
3510,831,936
3511,831,934
3512,835,936
3513,834,936
3514,834,939
3515,834,942
3516,835,942
3517,838,946
3518,839,945
3519,839,946
3520,840,943
3521,841,943
3522,838,941
3523,838,938
3524,833,936
3525,832,934
3526,829,934
3527,829,931
3528,830,930
3529,828,928
3530,825,928
3531,825,926
3532,821,920
3533,817,919
3534,812,914
3535,805,909
3536,801,904
3537,798,900
3538,792,897
3539,790,895
3540,787,893
3541,784,889
3542,786,888
3543,782,887
3544,778,881
3545,774,877
3546,771,873
3547,766,869
3548,762,867
3549,762,865
3550,762,866
3551,766,864
3552,770,867
3553,779,869
3554,784,869
3555,791,874
3556,796,874
3557,803,877
3558,809,877
3559,814,880
3560,819,882
3561,826,885
3562,830,890
3563,837,896
3564,842,901
3565,853,907
3566,858,912
3567,863,914
3568,867,916
3569,870,918
3570,869,919
3571,871,920
3572,872,920
3573,874,922
3574,876,925
3575,880,923
3576,883,927
3577,888,927
3578,889,930
3579,891,932
3580,892,933
3581,894,934
3582,895,932
3583,898,932
3584,897,933
3585,897,930
3586,895,933
3587,900,931
3588,900,934
3589,902,935
3590,903,936
3591,905,937
3592,905,936
3593,904,935
3594,901,936
3595,897,932
3596,899,930
3597,897,932
3598,895,931
3599,897,933
3600,897,933
3601,899,935
3602,900,937
3603,904,938
3604,905,937
3605,905,937
3606,903,933
3607,900,933
3608,899,931
3609,895,930
3610,893,931
3611,893,931
3612,895,935
3613,896,936
3614,898,935
3615,901,938
3616,900,937
3617,902,936
3618,899,936
3619,898,935
3620,898,934
3621,899,936
3622,898,937
3623,899,937
3624,900,940
3625,901,944
3626,903,945
3627,904,945
3628,905,943
3629,906,942
3630,904,944
3631,903,939
3632,901,935
3633,902,937
3634,902,937
3635,901,936
3636,899,939
3637,904,940
3638,905,942
3639,901,946
3640,901,941
3641,902,941
3642,903,937
3643,902,937
3644,901,936
3645,899,931
3646,900,934
3647,897,935
3648,897,936
3649,900,937
3650,899,937
3651,903,937
3652,902,934
3653,896,936
3654,898,933
3655,895,931
3656,894,930
3657,891,926
3658,892,928
3659,891,929
3660,890,930
3661,892,932
3662,893,931
3663,896,932
3664,897,930
3665,896,930
3666,895,927
3667,893,924
3668,893,924
3669,892,922
3670,890,923
3671,892,925
3672,890,926
3673,890,925
3674,892,927
3675,893,926
3676,893,927
3677,893,925
3678,896,922
3679,891,921
3680,891,922
3681,892,921
3682,892,921
3683,893,923
3684,895,923
3685,894,925
3686,896,929
3687,898,930
3688,902,930
3689,901,929
3690,901,930
3691,895,931
3692,895,928
3693,897,928
3694,894,928
3695,895,930
3696,898,933
3697,897,934
3698,898,934
3699,901,936
3700,899,933
3701,898,932
3702,896,930
3703,895,928
3704,895,927
3705,893,925
3706,894,927
3707,894,928
3708,894,928
3709,895,929
3710,896,929
3711,897,929
3712,898,928
3713,896,926
3714,896,925
3715,893,924
3716,893,924
3717,893,922
3718,890,922
3719,890,925
3720,892,925
3721,895,928
3722,895,929
3723,896,929
3724,897,928
3725,895,927
3726,893,921
3727,893,922
3728,889,921
3729,889,920
3730,887,919
3731,885,920
3732,885,922
3733,887,923
3734,887,927
3735,889,927
3736,890,927
3737,887,925
3738,888,923
3739,887,922
3740,880,922
3741,880,919
3742,882,919
3743,883,921
3744,881,922
3745,883,922
3746,884,924
3747,886,926
3748,889,925
3749,888,924
3750,888,924
3751,888,924
3752,886,921
3753,887,919
3754,888,922
3755,890,920
3756,890,922
3757,892,923
3758,891,924
3759,893,925
3760,888,924
3761,891,922
3762,889,920
3763,887,919
3764,889,917
3765,888,916
3766,890,916
3767,892,917
3768,894,920
3769,897,919
3770,898,919
3771,896,921
3772,898,919
3773,895,918
3774,891,917
3775,889,915
3776,888,913
3777,888,911
3778,891,915
3779,893,917
3780,894,918
3781,894,919
3782,896,924
3783,897,926
3784,898,922
3785,897,921
3786,896,921
3787,892,919
3788,892,917
3789,886,916
3790,888,914
3791,887,915
3792,887,917
3793,888,919
3794,890,919
3795,893,922
3796,894,920
3797,893,919
3798,891,916
3799,889,916
3800,886,914
3801,883,914
3802,880,914
3803,882,913
3804,882,913
3805,881,915
3806,882,913
3807,881,916
3808,883,912
3809,883,914
3810,884,915
3811,884,913
3812,883,912
3813,881,910
3814,883,909
3815,885,912
3816,884,912
3817,887,914
3818,889,914
3819,891,917
3820,892,914
3821,891,916
3822,891,912
3823,891,912
3824,891,912
3825,894,910
3826,895,912
3827,898,913
3828,899,915
3829,900,915
3830,900,918
3831,900,919
3832,901,917
3833,901,917
3834,899,915
3835,899,913
3836,896,912
3837,895,912
3838,898,914
3839,899,914
3840,900,919
3841,900,918
3842,900,922
3843,902,925
3844,900,923
3845,900,920
3846,903,921
3847,900,916
3848,893,916
3849,889,916
3850,884,914
3851,879,917
3852,880,921
3853,894,928
3854,919,942
3855,954,958
3856,997,976
3857,1047,994
3858,1100,1012
3859,1163,1027
3860,1221,1038
3861,1274,1052
3862,1317,1070
3863,1347,1088
3864,1359,1109
3865,1358,1130
3866,1348,1140
3867,1328,1135
3868,1288,1100
3869,1215,1039
3870,1120,957
3871,1009,866
3872,916,785
3873,857,730
3874,835,710
3875,837,722
3876,851,758
3877,864,794
3878,876,825
3879,877,846
3880,878,858
3881,875,867
3882,873,872
3883,866,879
3884,865,882
3885,866,886
3886,868,894
3887,870,903
3888,872,908
3889,874,911
3890,874,916
3891,870,917
3892,868,918
3893,864,916
3894,863,916
3895,859,915
3896,856,912
3897,852,911
3898,850,911
3899,850,911
3900,850,913
3901,852,917
3902,850,917
3903,851,917
3904,849,918
3905,849,918
3906,847,917
3907,844,916
3908,841,912
3909,839,909
3910,836,910
3911,836,909
3912,836,909
3913,837,911
3914,838,909
3915,837,910
3916,835,907
3917,834,904
3918,833,903
3919,828,898
3920,824,898
3921,821,896
3922,819,898
3923,820,897
3924,820,897
3925,821,901
3926,820,901
3927,822,902
3928,821,899
3929,822,898
3930,823,896
3931,820,893
3932,818,891
3933,817,890
3934,816,889
3935,814,889
3936,813,889
3937,814,891
3938,811,894
3939,814,894
3940,811,892
3941,809,891
3942,807,888
3943,805,887
3944,800,883
3945,797,881
3946,794,879
3947,793,877
3948,793,876
3949,790,874
3950,788,874
3951,787,870
3952,782,869
3953,779,864
3954,777,860
3955,771,855
3956,770,850
3957,763,848
3958,759,844
3959,755,841
3960,756,838
3961,755,837
3962,756,837
3963,753,835
3964,755,829
3965,753,827
3966,753,825
3967,753,824
3968,755,822
3969,757,817
3970,758,818
3971,763,820
3972,767,824
3973,775,824
3974,781,830
3975,791,835
3976,798,838
3977,803,840
3978,812,845
3979,817,846
3980,821,850
3981,825,857
3982,831,860
3983,836,865
3984,843,871
3985,850,876
3986,857,881
3987,859,886
3988,866,888
3989,871,891
3990,874,893
3991,877,897
3992,882,898
3993,881,900
3994,889,901
3995,892,907
3996,895,909
3997,899,911
3998,901,913
3999,902,916
4000,904,918
4001,901,917
4002,900,918
4003,901,917
4004,900,913
4005,899,914
4006,896,914
4007,896,915
4008,893,917
4009,895,918
4010,895,920
4011,893,923
4012,893,921
4013,892,923
4014,891,920
4015,894,918
4016,893,917
4017,890,917
4018,892,919
4019,891,922
4020,893,919
4021,893,921
4022,892,923
4023,896,926
4024,895,923
4025,895,927
4026,897,924
4027,895,924
4028,894,923
4029,893,921
4030,892,920
4031,892,921
4032,892,923
4033,894,924
4034,896,926
4035,898,929
4036,898,928
4037,900,931
4038,897,927
4039,899,925
4040,897,925
4041,895,923
4042,894,924
4043,894,923
4044,894,925
4045,897,923
4046,898,926
4047,899,928
4048,903,926
4049,901,926
4050,896,925
4051,897,923
4052,895,922
4053,894,920
4054,895,922
4055,896,922
4056,896,925
4057,897,928
4058,899,931
4059,902,933
4060,904,931
4061,903,932
4062,901,931
4063,902,931
4064,901,928
4065,897,929
4066,893,928
4067,892,931
4068,890,930
4069,890,931
4070,892,928
4071,893,930
4072,893,926
4073,893,923
4074,894,922
4075,890,918
4076,888,917
4077,891,916
4078,889,917
4079,886,920
4080,889,921
4081,890,922
4082,891,921
4083,892,922
4084,892,921
4085,892,919
4086,892,919
4087,891,916
4088,887,914
4089,887,913
4090,890,915
4091,890,916
4092,888,917
4093,888,921
4094,888,923
4095,888,924
4096,888,924
4097,887,920
4098,886,921
4099,887,916
4100,885,915
4101,884,915
4102,885,914
4103,888,916
4104,890,914
4105,890,915
4106,896,916
4107,896,918
4108,899,917
4109,900,916
4110,901,915
4111,899,914
4112,896,912
4113,897,911
4114,894,911
4115,895,912
4116,895,915
4117,897,913
4118,896,913
4119,895,913
4120,896,912
4121,895,912
4122,893,910
4123,891,908
4124,888,909
4125,884,905
4126,888,907
4127,886,909
4128,884,910
4129,887,911
4130,888,913
4131,889,914
4132,895,914
4133,896,915
4134,895,915
4135,894,914
4136,894,911
4137,892,911
4138,891,914
4139,891,916
4140,890,916
4141,892,919
4142,892,921
4143,894,922
4144,895,923
4145,892,926
4146,891,924
4147,891,925
4148,891,926
4149,892,923
4150,893,925
4151,892,925
4152,888,925
4153,889,927
4154,889,927
4155,889,929
4156,889,924
4157,890,925
4158,892,922
4159,889,921
4160,892,920
4161,891,919
4162,891,923
4163,894,924
4164,897,924
4165,897,924
4166,895,926
4167,898,925
4168,899,922
4169,898,921
4170,899,921
4171,899,919
4172,897,916
4173,895,916
4174,894,919
4175,895,918
4176,898,919
4177,899,919
4178,903,920
4179,903,921
4180,904,917
4181,903,914
4182,900,916
4183,895,914
4184,894,912
4185,893,913
4186,890,909
4187,889,910
4188,890,910
4189,890,912
4190,891,911
4191,891,910
4192,889,908
4193,890,907
4194,889,905
4195,887,902
4196,888,903
4197,886,903
4198,888,905
4199,890,907
4200,891,911
4201,893,910
4202,896,911
4203,899,913
4204,900,911
4205,899,911
4206,902,912
4207,900,909
4208,901,910
4209,899,909
4210,896,911
4211,896,913
4212,897,914
4213,897,914
4214,897,917
4215,897,918
4216,899,919
4217,897,917
4218,897,914
4219,900,915
4220,899,914
4221,901,918
4222,900,919
4223,900,917
4224,900,923
4225,902,924
4226,903,923
4227,907,923
4228,907,923
4229,906,921
4230,905,921
4231,901,920
4232,903,919
4233,901,918
4234,902,919
4235,903,917
4236,903,919
4237,905,919
4238,908,922
4239,906,922
4240,910,922
4241,909,920
4242,909,920
4243,908,918
4244,905,915
4245,902,915
4246,901,917
4247,898,916
4248,900,917
4249,898,917
4250,900,919
4251,900,919
4252,902,918
4253,899,916
4254,898,916
4255,896,917
4256,895,914
4257,894,913
4258,893,916
4259,892,916
4260,894,917
4261,897,921
4262,897,921
4263,896,920
4264,893,919
4265,887,918
4266,883,918
4267,887,918
4268,906,927
4269,934,938
4270,976,958
4271,1030,982
4272,1098,1007
4273,1172,1028
4274,1243,1052
4275,1302,1071
4276,1347,1088
4277,1369,1108
4278,1372,1127
4279,1357,1141
4280,1334,1138
4281,1280,1098
4282,1198,1023
4283,1089,924
4284,982,817
4285,905,728
4286,866,679
4287,859,682
4288,867,715
4289,884,759
4290,901,801
4291,906,832
4292,904,849
4293,898,858
4294,891,866
4295,881,875
4296,880,881
4297,878,891
4298,876,898
4299,878,904
4300,881,909
4301,876,910
4302,877,910
4303,869,911
4304,865,909
4305,862,909
4306,857,909
4307,855,910
4308,857,911
4309,857,916
4310,857,918
4311,857,917
4312,860,917
4313,858,918
4314,856,915
4315,856,916
4316,855,913
4317,851,912
4318,849,913
4319,848,915
4320,848,915
4321,849,916
4322,847,917
4323,845,918
4324,846,917
4325,844,917
4326,844,915
4327,845,913
4328,842,911
4329,842,911
4330,843,911
4331,843,910
4332,842,911
4333,845,913
4334,844,913
4335,842,910
4336,842,910
4337,838,908
4338,837,906
4339,834,904
4340,832,901
4341,831,900
4342,829,898
4343,828,899
4344,829,897
4345,832,899
4346,833,900
4347,835,899
4348,834,899
4349,834,898
4350,831,896
4351,827,894
4352,824,889
4353,820,888
4354,813,886
4355,812,885
4356,808,884
4357,808,885
4358,805,883
4359,804,882
4360,805,880
4361,798,875
4362,797,871
4363,790,869
4364,787,864
4365,779,859
4366,775,857
4367,770,856
4368,765,855
4369,765,854
4370,762,855
4371,763,854
4372,758,846
4373,754,845
4374,752,841
4375,750,834
4376,747,832
4377,746,828
4378,745,826
4379,747,824
4380,748,827
4381,753,827
4382,757,828
4383,767,832
4384,773,831
4385,782,836
4386,788,836
4387,795,838
4388,801,841
4389,811,845
4390,820,850
4391,826,853
4392,834,860
4393,841,864
4394,844,869
4395,851,874
4396,855,877
4397,859,878
4398,862,880
4399,865,883
4400,869,883
4401,872,884
4402,879,888
4403,882,891
4404,887,895
4405,887,899
4406,891,900
4407,893,903
4408,893,904
4409,891,903
4410,891,900
4411,891,901
4412,895,900
4413,893,901
4414,891,903
4415,890,903
4416,893,903
4417,892,904
4418,896,906
4419,896,906
4420,897,905
4421,897,905
4422,897,903
4423,893,902
4424,893,903
4425,892,902
4426,892,901
4427,891,902
4428,891,905
4429,891,908
4430,894,910
4431,897,910
4432,898,910
4433,896,910
4434,895,911
4435,894,910
4436,893,911
4437,893,911
4438,892,911
4439,889,912
4440,892,914
4441,894,918
4442,895,919
4443,896,920
4444,895,920
4445,896,921
4446,896,920
4447,894,919
4448,896,917
4449,894,919
4450,894,919
4451,896,919
4452,897,921
4453,900,922
4454,903,923
4455,906,924
4456,910,925
4457,906,922
4458,908,920
4459,905,920
4460,905,919
4461,903,920
4462,904,918
4463,905,919
4464,903,920
4465,903,921
4466,905,921
4467,908,923
4468,908,922
4469,906,922
4470,907,918
4471,906,919
4472,905,918
4473,904,917
4474,901,916
4475,900,916
4476,900,918
4477,901,916
4478,901,918
4479,901,918
4480,903,918
4481,905,918
4482,904,915
4483,903,915
4484,901,912
4485,903,911
4486,900,910
4487,900,910
4488,902,912
4489,903,914
4490,903,913
4491,907,913
4492,907,915
4493,908,914
4494,906,912
4495,904,911
4496,903,908
4497,902,908
4498,902,907
4499,901,907
4500,901,906
4501,902,907
4502,900,907
4503,899,905
4504,898,904
4505,897,902
4506,896,899
4507,893,898
4508,893,896
4509,892,894
4510,892,895
4511,893,896
4512,894,896
4513,897,899
4514,898,900
4515,899,902
4516,901,901
4517,899,901
4518,900,898
4519,899,899
4520,898,896
4521,897,896
4522,896,898
4523,898,903
4524,896,901
4525,897,905
4526,897,907
4527,899,907
4528,899,907
4529,899,907
4530,899,905
4531,896,904
4532,896,904
4533,895,900
4534,894,902
4535,896,902
4536,898,904
4537,898,907
4538,899,906
4539,900,908
4540,900,908
4541,897,905
4542,898,907
4543,900,902
4544,898,903
4545,898,902
4546,896,900
4547,899,905
4548,900,905
4549,902,908
4550,902,907
4551,903,910
4552,905,909
4553,904,907
4554,903,908
4555,903,906
4556,898,906
4557,898,905
4558,902,906
4559,900,908
4560,902,912
4561,903,916
4562,903,916
4563,905,918
4564,899,917
4565,897,914
4566,891,913
4567,885,911
4568,886,912
4569,898,916
4570,920,925
4571,953,939
4572,995,960
4573,1047,981
4574,1104,999
4575,1166,1016
4576,1228,1031
4577,1286,1047
4578,1333,1060
4579,1365,1078
4580,1377,1099
4581,1374,1117
4582,1357,1128
4583,1323,1114
4584,1268,1073
4585,1179,1000
4586,1073,908
4587,970,814
4588,895,733
4589,859,689
4590,853,681
4591,861,709
4592,876,749
4593,888,789
4594,896,819
4595,896,840
4596,891,849
4597,887,861
4598,882,869
4599,879,873
4600,881,879
4601,881,884
4602,880,888
4603,880,891
4604,876,894
4605,874,894
4606,872,896
4607,870,896
4608,867,898
4609,867,899
4610,867,899
4611,866,902
4612,866,903
4613,863,903
4614,863,899
4615,859,899
4616,861,898
4617,857,896
4618,856,896
4619,857,900
4620,857,902
4621,860,904
4622,860,903
4623,861,905
4624,863,908
4625,862,905
4626,860,905
4627,858,904
4628,857,901
4629,854,902
4630,854,902
4631,851,903
4632,851,903
4633,852,903
4634,854,904
4635,855,904
4636,854,906
4637,855,903
4638,857,904
4639,854,903
4640,853,902
4641,852,901
4642,848,901
4643,848,902
4644,849,906
4645,847,908
4646,847,911
4647,845,910
4648,843,908
4649,841,905
4650,841,905
4651,840,903
4652,839,902
4653,838,901
4654,836,897
4655,834,900
4656,835,899
4657,833,896
4658,829,898
4659,827,898
4660,823,896
4661,819,893
4662,816,890
4663,811,884
4664,807,880
4665,803,876
4666,799,875
4667,797,873
4668,793,870
4669,792,868
4670,791,866
4671,787,862
4672,785,858
4673,782,857
4674,777,852
4675,774,846
4676,770,841
4677,768,837
4678,769,836
4679,770,835
4680,771,833
4681,773,835
4682,778,833
4683,785,835
4684,789,834
4685,795,835
4686,800,836
4687,806,836
4688,809,837
4689,816,840
4690,819,845
4691,828,848
4692,834,852
4693,843,859
4694,851,864
4695,856,868
4696,861,874
4697,866,873
4698,867,874
4699,870,878
4700,870,878
4701,870,880
4702,872,882
4703,875,885
4704,876,886
4705,880,891
4706,884,896
4707,887,897
4708,890,898
4709,889,897
4710,894,899
4711,895,898
4712,895,899
4713,893,898
4714,894,897
4715,892,900
4716,893,901
4717,892,902
4718,896,902
4719,897,903
4720,898,905
4721,897,903
4722,897,902
4723,896,902
4724,893,901
4725,892,903
4726,890,903
4727,891,904
4728,891,906
4729,895,905
4730,896,910
4731,898,909
4732,900,909
4733,901,910
4734,899,908
4735,899,906
4736,898,909
4737,898,906
4738,898,907
4739,896,908
4740,897,908
4741,901,910
4742,903,912
4743,903,914
4744,906,914
4745,906,913
4746,906,913
4747,908,913
4748,907,911
4749,906,913
4750,907,912
4751,905,912
4752,902,911
4753,900,915
4754,901,913
4755,900,912
4756,900,912
4757,899,909
4758,898,908
4759,895,905
4760,897,903
4761,897,901
4762,896,901
4763,897,901
4764,899,901
4765,898,903
4766,901,905
4767,903,907
4768,903,905
4769,904,906
4770,902,905
4771,902,903
4772,902,904
4773,899,903
4774,898,904
4775,898,908
4776,900,908
4777,901,911
4778,902,912
4779,902,914
4780,901,915
4781,903,913
4782,900,913
4783,900,914
4784,900,911
4785,898,910
4786,898,912
4787,898,915
4788,897,916
4789,899,917
4790,900,918
4791,902,919
4792,901,918
4793,900,915
4794,901,916
4795,899,913
4796,900,913
4797,897,912
4798,896,912
4799,896,910
4800,896,912
4801,897,913
4802,896,914
4803,901,916
4804,902,915
4805,903,915
4806,901,915
4807,898,911
4808,897,910
4809,898,908
4810,897,909
4811,898,909
4812,896,910
4813,898,909
4814,901,911
4815,901,913
4816,900,912
4817,898,909
4818,893,906
4819,893,906
4820,893,903
4821,894,903
4822,892,904
4823,898,903
4824,901,902
4825,901,904
4826,902,906
4827,903,908
4828,903,907
4829,902,906
4830,903,907
4831,904,906
4832,903,906
4833,906,908
4834,903,907
4835,903,908
4836,903,907
4837,901,910
4838,900,911
4839,903,910
4840,901,911
4841,900,908
4842,902,905
4843,901,904
4844,900,902
4845,898,903
4846,896,901
4847,897,903
4848,897,905
4849,896,906
4850,898,907
4851,901,910
4852,903,908
4853,901,909
4854,901,907
4855,900,906
4856,897,906
4857,896,903
4858,897,904
4859,894,902
4860,897,906
4861,899,906
4862,901,907
4863,903,908
4864,905,906
4865,905,905
4866,904,905
4867,902,904
4868,902,901
4869,899,903
4870,896,904
4871,897,904
4872,897,905
4873,898,904
4874,897,904
4875,897,906
4876,896,904
4877,894,904
4878,897,900
4879,896,901
4880,896,898
4881,896,895
4882,899,894
4883,899,895
4884,902,896
4885,905,898
4886,907,902
4887,908,902
4888,907,904
4889,906,903
4890,901,903
4891,897,903
4892,902,904
4893,920,914
4894,951,928
4895,992,949
4896,1046,970
4897,1104,989
4898,1166,1010
4899,1230,1027
4900,1290,1043
4901,1336,1059
4902,1364,1079
4903,1376,1098
4904,1371,1119
4905,1352,1129
4906,1315,1116
4907,1254,1070
4908,1166,1001
4909,1064,907
4910,967,816
4911,899,740
4912,865,700
4913,857,699
4914,867,726
4915,883,767
4916,892,805
4917,898,834
4918,898,851
4919,893,863
4920,887,869
4921,883,877
4922,884,879
4923,882,885
4924,884,889
4925,884,898
4926,883,897
4927,880,899
4928,878,897
4929,872,899
4930,871,899
4931,870,900
4932,867,900
4933,868,904
4934,868,906
4935,864,906
4936,864,905
4937,861,904
4938,860,902
4939,856,901
4940,856,899
4941,853,896
4942,852,898
4943,855,896
4944,855,897
4945,855,899
4946,857,899
4947,860,902
4948,859,902
4949,858,902
4950,860,898
4951,857,899
4952,853,898
4953,851,897
4954,849,899
4955,846,899
4956,846,897
4957,848,901
4958,850,901
4959,852,903
4960,851,900
4961,850,899
4962,849,899
4963,847,897
4964,845,896
4965,843,893
4966,840,894
4967,840,894
4968,839,892
4969,841,897
4970,840,897
4971,841,902
4972,839,902
4973,836,900
4974,833,896
4975,827,897
4976,826,895
4977,821,893
4978,817,891
4979,818,892
4980,816,891
4981,814,892
4982,812,887
4983,810,888
4984,810,885
4985,805,881
4986,803,877
4987,801,875
4988,794,872
4989,792,866
4990,788,866
4991,786,864
4992,782,859
4993,779,857
4994,774,855
4995,772,852
4996,774,847
4997,771,845
4998,771,840
4999,770,837
5000,770,832
5001,768,829
5002,768,827
5003,771,828
5004,778,829
5005,783,833
5006,788,833
5007,794,836
5008,801,835
5009,807,840
5010,812,840
5011,820,844
5012,825,846
5013,830,849
5014,837,854
5015,841,859
5016,850,865
5017,856,870
5018,860,875
5019,867,882
5020,874,884
5021,879,885
5022,881,889
5023,883,890
5024,882,891
5025,881,891
5026,883,894
5027,884,897
5028,887,898
5029,890,904
5030,890,906
5031,892,909
5032,895,911
5033,895,908
5034,897,908
5035,894,908
5036,892,907
5037,892,904
5038,892,906
5039,891,907
5040,892,907
5041,893,909
5042,895,912
5043,898,913
5044,897,914
5045,898,913
5046,899,912
5047,897,912
5048,895,911
5049,897,909
5050,895,909
5051,895,911
5052,895,913
5053,895,913
5054,899,915
5055,901,916
5056,903,916
5057,905,918
5058,907,916
5059,909,916
5060,910,914
5061,911,913
5062,910,912
5063,912,912
5064,912,913
5065,912,912
5066,912,916
5067,913,920
5068,915,919
5069,914,918
5070,915,921
5071,915,920
5072,915,920
5073,915,918
5074,914,916
5075,913,921
5076,915,922
5077,915,925
5078,917,927
5079,918,927
5080,920,929
5081,918,928
5082,917,926
5083,915,927
5084,917,923
5085,916,922
5086,917,921
5087,911,923
5088,913,925
5089,914,927
5090,916,930
5091,917,932
5092,918,931
5093,917,927
5094,915,928
5095,915,927
5096,913,923
5097,911,925
5098,907,921
5099,902,923
5100,899,925
5101,900,925
5102,899,924
5103,900,926
5104,902,921
5105,903,921
5106,903,918
5107,904,917
5108,903,918
5109,901,917
5110,902,916
5111,902,918
5112,904,918
5113,904,917
5114,905,916
5115,910,919
5116,912,915
5117,915,914
5118,915,914
5119,915,916
5120,915,914
5121,913,914
5122,911,914
5123,910,915
5124,908,914
5125,908,913
5126,905,914
5127,908,914
5128,909,917
5129,908,917
5130,911,917
5131,910,918
5132,910,915
5133,908,911
5134,907,914
5135,908,915
5136,906,913
5137,910,918
5138,908,917
5139,907,918
5140,909,917
5141,908,916
5142,909,914
5143,906,916
5144,906,913
5145,904,911
5146,902,910
5147,904,910
5148,904,912
5149,905,912
5150,906,912
5151,907,915
5152,908,916
5153,907,917
5154,904,914
5155,899,914
5156,899,910
5157,898,909
5158,894,911
5159,894,911
5160,895,910
5161,895,913
5162,894,913
5163,897,916
5164,902,915
5165,903,915
5166,907,917
5167,907,913
5168,907,916
5169,908,916
5170,909,916
5171,909,918
5172,911,919
5173,914,920
5174,915,921
5175,918,923
5176,920,924
5177,920,923
5178,921,922
5179,920,922
5180,918,918
5181,916,915
5182,916,917
5183,916,918
5184,922,921
5185,924,922
5186,921,925
5187,925,927
5188,925,926
5189,920,927
5190,919,925
5191,911,926
5192,909,925
5193,907,924
5194,914,930
5195,937,942
5196,973,956
5197,1017,980
5198,1070,1004
5199,1133,1025
5200,1203,1048
5201,1268,1064
5202,1325,1082
5203,1369,1099
5204,1390,1118
5205,1395,1141
5206,1385,1158
5207,1365,1167
5208,1329,1145
5209,1269,1092
5210,1175,1011
5211,1062,905
5212,959,802
5213,887,718
5214,855,679
5215,853,685
5216,867,715
5217,881,762
5218,894,801
5219,900,831
5220,901,851
5221,899,866
5222,891,874
5223,888,883
5224,887,888
5225,886,893
5226,888,899
5227,888,902
5228,888,906
5229,890,907
5230,887,910
5231,886,913
5232,885,916
5233,889,918
5234,893,922
5235,895,925
5236,894,925
5237,895,926
5238,894,927
5239,894,926
5240,892,924
5241,889,918
5242,889,919
5243,886,920
5244,887,920
5245,888,923
5246,886,926
5247,887,929
5248,885,928
5249,881,925
5250,882,926
5251,878,925
5252,875,920
5253,875,918
5254,870,918
5255,871,922
5256,871,922
5257,872,923
5258,871,924
5259,870,924
5260,869,924
5261,868,921
5262,865,920
5263,862,920
5264,861,917
5265,855,917
5266,852,917
5267,852,918
5268,851,916
5269,848,916
5270,849,920
5271,847,918
5272,844,919
5273,841,917
5274,840,914
5275,839,910
5276,836,909
5277,833,906
5278,832,905
5279,831,907
5280,832,911
5281,834,909
5282,834,911
5283,835,908
5284,831,903
5285,833,900
5286,833,899
5287,828,895
5288,824,891
5289,820,887
5290,814,888
5291,809,881
5292,809,878
5293,805,879
5294,806,875
5295,807,873
5296,805,869
5297,804,866
5298,800,862
5299,796,859
5300,792,854
5301,790,851
5302,790,847
5303,787,846
5304,787,845
5305,789,844
5306,789,843
5307,796,846
5308,799,844
5309,807,846
5310,812,844
5311,818,845
5312,824,848
5313,831,851
5314,836,855
5315,845,861
5316,850,868
5317,856,875
5318,866,878
5319,871,884
5320,878,888
5321,879,890
5322,885,893
5323,885,893
5324,887,898
5325,889,899
5326,891,900
5327,889,902
5328,891,906
5329,896,910
5330,899,912
5331,901,914
5332,902,917
5333,900,918
5334,903,918
5335,905,915
5336,905,916
5337,905,915
5338,901,914
5339,901,918
5340,903,919
5341,905,919
5342,907,920
5343,908,922
5344,910,923
5345,912,921
5346,914,921
5347,915,919
5348,913,919
5349,912,918
5350,913,917
5351,912,920
5352,909,920
5353,911,924
5354,910,924
5355,913,924
5356,914,923
5357,915,924
5358,915,922
5359,915,921
5360,913,919
5361,911,919
5362,909,920
5363,911,919
5364,912,918
5365,912,919
5366,914,923
5367,915,923
5368,915,924
5369,914,924
5370,913,925
5371,911,925
5372,914,925
5373,911,924
5374,910,923
5375,910,928
5376,912,925
5377,914,929
5378,916,930
5379,915,934
5380,916,933
5381,914,930
5382,911,934
5383,910,930
5384,911,928
5385,909,927
5386,908,926
5387,911,932
5388,914,931
5389,915,934
5390,921,938
5391,924,939
5392,926,942
5393,928,941
5394,926,943
5395,925,940
5396,926,939
5397,926,938
5398,925,937
5399,926,938
5400,927,938
5401,930,942
5402,928,941
5403,931,943
5404,932,943
5405,931,941
5406,935,941
5407,935,939
5408,932,937
5409,933,935
5410,931,936
5411,930,935
5412,930,935
5413,928,937
5414,931,938
5415,930,935
5416,930,938
5417,929,937
5418,927,935
5419,925,932
5420,924,930
5421,922,926
5422,919,925
5423,917,925
5424,921,925
5425,923,925
5426,923,926
5427,925,930
5428,923,928
5429,922,927
5430,920,925
5431,918,924
5432,915,921
5433,916,920
5434,912,920
5435,913,922
5436,913,921
5437,912,921
5438,911,920
5439,909,920
5440,907,918
5441,908,916
5442,909,916
5443,908,912
5444,904,910
5445,905,909
5446,905,911
5447,906,911
5448,910,913
5449,908,915
5450,911,917
5451,912,917
5452,914,921
5453,915,920
5454,915,920
5455,913,920
5456,911,919
5457,913,920
5458,913,920
5459,912,924
5460,914,923
5461,916,924
5462,918,928
5463,920,929
5464,922,928
5465,925,928
5466,924,925
5467,924,924
5468,921,923
5469,923,922
5470,922,922
5471,922,922
5472,923,924
5473,921,924
5474,924,925
5475,925,923
5476,928,924
5477,927,919
5478,926,921
5479,923,917
5480,921,916
5481,918,913
5482,916,914
5483,918,916
5484,918,916
5485,919,916
5486,921,917
5487,924,916
5488,926,918
5489,927,915
5490,926,916
5491,923,914
5492,922,912
5493,920,910
5494,918,911
5495,917,912
5496,916,907
5497,916,911
5498,916,910
5499,914,911
5500,916,914
5501,915,907
5502,914,908
5503,911,904
5504,908,905
5505,906,903
5506,905,904
5507,904,905
5508,905,907
5509,905,907
5510,903,910
5511,908,909
5512,910,911
5513,912,908
5514,913,912
5515,913,910
5516,914,908
5517,916,908
5518,914,909
5519,914,913
5520,914,914
5521,917,915
5522,918,918
5523,919,920
5524,922,923
5525,923,920
5526,921,920
5527,920,919
5528,917,917
5529,918,917
5530,917,916
5531,920,916
5532,922,918
5533,924,921
5534,923,923
5535,926,922
5536,929,924
5537,927,922
5538,928,924
5539,928,920
5540,924,919
5541,926,915
5542,925,915
5543,924,916
5544,925,918
5545,927,919
5546,928,918
5547,930,919
5548,931,920
5549,935,917
5550,933,917
5551,931,915
5552,931,915
5553,932,914
5554,928,914
5555,925,913
5556,920,918
5557,918,916
5558,916,918
5559,916,924
5560,928,929
5561,950,938
5562,983,955
5563,1021,971
5564,1070,988
5565,1123,1005
5566,1181,1021
5567,1239,1037
5568,1297,1053
5569,1344,1073
5570,1374,1092
5571,1389,1114
5572,1389,1136
5573,1377,1148
5574,1346,1140
5575,1296,1100
5576,1217,1030
5577,1112,943
5578,1004,849
5579,922,766
5580,874,709
5581,860,694
5582,867,713
5583,885,753
5584,899,795
5585,907,825
5586,911,848
5587,908,860
5588,902,866
5589,896,870
5590,892,873
5591,889,881
5592,888,885
5593,889,893
5594,895,895
5595,898,901
5596,897,903
5597,895,903
5598,893,905
5599,892,903
5600,890,900
5601,886,901
5602,885,901
5603,884,903
5604,885,906
5605,885,908
5606,886,908
5607,887,912
5608,888,914
5609,887,913
5610,888,910
5611,886,909
5612,885,908
5613,886,907
5614,882,907
5615,882,907
5616,880,909
5617,883,911
5618,882,914
5619,886,913
5620,886,913
5621,884,911
5622,884,911
5623,882,908
5624,879,909
5625,879,907
5626,874,905
5627,872,906
5628,871,908
5629,868,907
5630,866,908
5631,863,907
5632,859,908
5633,857,904
5634,850,901
5635,846,899
5636,842,896
5637,840,895
5638,838,893
5639,835,892
5640,836,891
5641,838,890
5642,840,893
5643,838,896
5644,838,899
5645,838,899
5646,838,897
5647,836,898
5648,833,896
5649,830,898
5650,827,897
5651,824,896
5652,822,894
5653,819,893
5654,819,892
5655,817,890
5656,816,888
5657,813,885
5658,810,882
5659,805,876
5660,799,872
5661,796,867
5662,791,861
5663,790,860
5664,786,858
5665,787,854
5666,785,852
5667,786,853
5668,788,849
5669,786,844
5670,786,841
5671,787,836
5672,786,835
5673,786,831
5674,785,828
5675,788,830
5676,790,834
5677,798,835
5678,806,837
5679,817,840
5680,825,847
5681,835,846
5682,842,850
5683,849,855
5684,858,855
5685,863,858
5686,868,865
5687,871,867
5688,873,871
5689,880,875
5690,882,877
5691,885,883
5692,886,885
5693,890,884
5694,891,888
5695,891,885
5696,893,888
5697,892,888
5698,890,889
5699,892,887
5700,894,891
5701,903,892
5702,905,896
5703,907,899
5704,910,902
5705,913,902
5706,913,903
5707,913,903
5708,916,901
5709,912,901
5710,911,902
5711,913,904
5712,914,904
5713,914,908
5714,914,909
5715,917,912
5716,917,913
5717,918,911
5718,916,912
5719,916,915
5720,915,913
5721,913,912
5722,915,914
5723,916,916
5724,919,917
5725,920,919
5726,919,920
5727,924,923
5728,925,925
5729,929,923
5730,926,925
5731,929,926
5732,925,925
5733,922,922
5734,921,923
5735,920,923
5736,918,926
5737,919,927
5738,921,927
5739,923,928
5740,923,930
5741,922,929
5742,924,929
5743,923,926
5744,920,925
5745,920,925
5746,917,922
5747,914,922
5748,912,923
5749,909,922
5750,906,922
5751,905,920
5752,907,921
5753,908,917
5754,910,917
5755,911,916
5756,910,914
5757,909,912
5758,910,912
5759,910,911
5760,913,912
5761,915,914
5762,918,914
5763,922,917
5764,923,916
5765,924,918
5766,926,920
5767,926,918
5768,924,916
5769,923,913
5770,923,914
5771,924,915
5772,925,915
5773,927,918
5774,927,918
5775,930,921
5776,931,920
5777,930,919
5778,930,918
5779,930,916
5780,928,913
5781,928,913
5782,926,915
5783,925,914
5784,927,915
5785,929,917
5786,931,918
5787,934,920
5788,936,921
5789,936,921
5790,936,920
5791,933,918
5792,931,917
5793,926,914
5794,926,914
5795,921,916
5796,920,916
5797,921,915
5798,920,917
5799,921,918
5800,923,918
5801,922,914
5802,921,915
5803,923,913
5804,921,913
5805,918,910
5806,916,909
5807,913,912
5808,913,914
5809,913,912
5810,915,917
5811,916,918
5812,916,917
5813,918,917
5814,918,916
5815,918,916
5816,917,914
5817,915,913
5818,914,909
5819,915,913
5820,915,915
5821,917,914
5822,918,918
5823,919,918
5824,922,918
5825,918,917
5826,920,917
5827,921,915
5828,919,914
5829,918,916
5830,918,915
5831,916,918
5832,913,920
5833,909,919
5834,904,920
5835,905,925
5836,911,928
5837,928,935
5838,959,949
5839,998,965
5840,1045,980
5841,1101,997
5842,1163,1014
5843,1228,1033
5844,1291,1048
5845,1343,1062
5846,1381,1080
5847,1398,1099
5848,1402,1122
5849,1393,1135
5850,1369,1132
5851,1329,1103
5852,1264,1046
5853,1171,970
5854,1063,879
5855,969,793
5856,906,728
5857,878,699
5858,880,704
5859,892,735
5860,910,778
5861,920,810
5862,922,833
5863,919,848
5864,913,857
5865,908,861
5866,904,864
5867,899,873
5868,898,881
5869,899,885
5870,898,896
5871,899,904
5872,902,905
5873,904,906
5874,902,909
5875,900,907
5876,899,906
5877,898,904
5878,897,904
5879,895,908
5880,894,908
5881,893,909
5882,894,911
5883,895,912
5884,897,915
5885,898,914
5886,896,915
5887,892,913
5888,889,911
5889,889,910
5890,883,910
5891,881,911
5892,881,915
5893,885,913
5894,884,914
5895,885,914
5896,884,916
5897,883,916
5898,881,915
5899,878,913
5900,874,910
5901,872,910
5902,871,908
5903,867,911
5904,868,911
5905,869,911
5906,871,911
5907,872,916
5908,871,914
5909,870,912
5910,871,910
5911,870,909
5912,865,909
5913,861,904
5914,859,905
5915,855,905
5916,852,903
5917,853,902
5918,852,904
5919,855,901
5920,857,902
5921,856,899
5922,852,900
5923,851,896
5924,849,893
5925,846,891
5926,843,889
5927,843,890
5928,842,889
5929,842,889
5930,840,890
5931,837,888
5932,838,887
5933,836,884
5934,832,881
5935,826,877
5936,822,874
5937,819,868
5938,817,865
5939,812,860
5940,810,862
5941,806,857
5942,805,859
5943,803,855
5944,803,854
5945,801,851
5946,802,850
5947,801,847
5948,801,844
5949,803,843
5950,807,844
5951,809,843
5952,815,846
5953,821,849
5954,831,853
5955,837,856
5956,845,860
5957,853,863
5958,858,863
5959,863,867
5960,862,869
5961,866,871
5962,869,874
5963,873,877
5964,875,880
5965,884,884
5966,888,889
5967,892,892
5968,894,896
5969,900,894
5970,901,893
5971,903,895
5972,902,893
5973,903,892
5974,904,893
5975,903,894
5976,902,896
5977,905,897
5978,908,898
5979,916,902
5980,922,902
5981,925,903
5982,928,905
5983,931,903
5984,931,902
5985,931,902
5986,930,903
5987,928,903
5988,926,904
5989,928,905
5990,930,907
5991,933,907
5992,931,909
5993,933,905
5994,932,906
5995,929,905
5996,926,903
5997,922,900
5998,922,899
5999,918,901
6000,913,900
6001,915,900
6002,912,902
6003,913,901
6004,912,904
6005,909,901
6006,912,900
6007,912,900
6008,910,898
6009,909,898
6010,910,898
6011,908,899
6012,909,903
6013,909,904
6014,912,906
6015,912,908
6016,911,909
6017,914,909
6018,912,908
6019,912,910
6020,912,907
6021,915,907
6022,918,906
6023,919,908
6024,919,912
6025,924,915
6026,924,918
6027,925,920
6028,927,920
6029,927,921
6030,926,919
6031,926,918
6032,926,919
6033,925,917
6034,925,916
6035,926,916
6036,928,916
6037,931,917
6038,933,921
6039,935,923
6040,940,924
6041,937,926
6042,937,923
6043,935,922
6044,932,917
6045,928,919
6046,923,916
6047,920,918
6048,930,922
6049,951,932
6050,986,949
6051,1027,972
6052,1078,995
6053,1133,1012
6054,1193,1027
6055,1253,1034
6056,1307,1045
6057,1351,1056
6058,1380,1071
6059,1389,1090
6060,1384,1105
6061,1364,1107
6062,1327,1088
6063,1262,1034
6064,1169,957
6065,1061,864
6066,962,776
6067,894,710
6068,863,677
6069,861,679
6070,874,710
6071,890,751
6072,900,792
6073,905,817
6074,907,836
6075,902,847
6076,899,854
6077,896,856
6078,894,863
6079,895,867
6080,893,873
6081,893,879
6082,893,882
6083,890,886
6084,889,891
6085,887,892
6086,889,895
6087,890,897
6088,891,901
6089,887,901
6090,888,903
6091,887,903
6092,888,903
6093,888,903
6094,887,905
6095,884,908
6096,884,908
6097,884,909
6098,886,910
6099,888,913
6100,889,912
6101,889,908
6102,887,910
6103,887,907
6104,885,905
6105,884,904
6106,882,906
6107,878,907
6108,881,908
6109,881,911
6110,883,913
6111,882,911
6112,883,911
6113,883,911
6114,882,911
6115,879,907
6116,878,905
6117,878,901
6118,875,902
6119,874,901
6120,872,902
6121,872,904
6122,871,905
6123,870,905
6124,870,907
6125,868,904
6126,866,903
6127,865,899
6128,860,898
6129,856,896
6130,854,895
6131,852,893
6132,849,893
6133,844,893
6134,842,892
6135,837,890
6136,836,891
6137,833,885
6138,832,885
6139,830,882
6140,827,877
6141,823,875
6142,820,872
6143,818,871
6144,814,868
6145,812,868
6146,810,868
6147,807,868
6148,806,868
6149,803,864
6150,799,861
6151,796,860
6152,794,856
6153,792,852
6154,791,848
6155,791,848
6156,793,847
6157,797,849
6158,800,846
6159,807,850
6160,812,852
6161,817,850
6162,822,850
6163,829,848
6164,834,849
6165,840,852
6166,844,854
6167,852,859
6168,859,862
6169,864,865
6170,869,868
6171,874,873
6172,878,876
6173,886,877
6174,893,877
6175,896,879
6176,904,877
6177,902,879
6178,903,879
6179,907,879
6180,906,883
6181,909,883
6182,909,885
6183,909,887
6184,911,888
6185,913,889
6186,912,888
6187,911,886
6188,910,885
6189,911,885
6190,908,885
6191,907,885
6192,908,888
6193,909,888
6194,909,893
6195,908,894
6196,913,895
6197,914,892
6198,914,892
6199,911,889
6200,911,888
6201,911,889
6202,911,889
6203,913,892
6204,912,893
6205,913,897
6206,915,900
6207,915,903
6208,914,906
6209,916,904
6210,915,905
6211,916,903
6212,917,904
6213,916,906
6214,915,904
6215,914,906
6216,916,908
6217,917,909
6218,919,909
6219,920,911
6220,923,913
6221,925,912
6222,925,911
6223,923,911
6224,923,909
6225,922,910
6226,923,909
6227,923,910
6228,925,913
6229,926,913
6230,927,915
6231,928,914
6232,931,913
6233,932,912
6234,928,912
6235,929,914
6236,925,913
6237,923,909
6238,920,906
6239,920,907
6240,921,906
6241,918,904
6242,919,906
6243,920,904
6244,921,904
6245,920,905
6246,920,902
6247,919,901
6248,918,900
6249,917,897
6250,915,896
6251,915,895
6252,915,894
6253,916,897
6254,914,898
6255,916,901
6256,919,903
6257,918,901
6258,918,902
6259,917,898
6260,915,898
6261,915,897
6262,913,897
6263,913,900
6264,913,900
6265,911,902
6266,913,902
6267,914,903
6268,916,902
6269,915,901
6270,918,899
6271,916,898
6272,917,898
6273,915,895
6274,918,896
6275,919,896
6276,918,900
6277,920,899
6278,918,902
6279,917,901
6280,920,902
6281,922,900
6282,922,900
6283,919,897
6284,917,896
6285,918,896
6286,918,894
6287,920,896
6288,921,897
6289,921,898
6290,923,898
6291,926,899
6292,923,899
6293,922,897
6294,923,896
6295,924,895
6296,923,893
6297,920,891
6298,919,889
6299,917,890
6300,918,892
6301,918,891
6302,919,889
6303,921,890
6304,921,891
6305,919,888
6306,920,886
6307,915,883
6308,916,882
6309,914,878
6310,914,879
6311,912,881
6312,911,883
6313,911,885
6314,916,889
6315,919,890
6316,919,894
6317,920,893
6318,922,891
6319,919,890
6320,921,891
6321,923,888
6322,925,891
6323,926,893
6324,927,896
6325,928,901
6326,930,901
6327,931,907
6328,932,909
6329,931,907
6330,930,908
6331,931,904
6332,929,902
6333,928,899
6334,928,899
6335,924,900
6336,926,902
6337,925,906
6338,926,905
6339,922,908
6340,920,909
6341,916,909
6342,911,910
6343,911,909
6344,919,910
6345,942,920
6346,976,936
6347,1016,956
6348,1072,977
6349,1133,999
6350,1198,1022
6351,1263,1041
6352,1320,1061
6353,1361,1074
6354,1386,1095
6355,1392,1110
6356,1385,1127
6357,1365,1130
6358,1330,1110
6359,1270,1059
6360,1185,984
6361,1078,890
6362,978,796
6363,910,720
6364,877,675
6365,874,669
6366,882,688
6367,897,725
6368,906,763
6369,911,786
6370,910,804
6371,906,819
6372,900,828
6373,897,836
6374,893,846
6375,892,854
6376,894,861
6377,894,862
6378,896,866
6379,897,868
6380,894,871
6381,896,873
6382,890,874
6383,885,876
6384,886,879
6385,884,880
6386,887,883
6387,888,885
6388,888,888
6389,890,889
6390,889,893
6391,891,891
6392,888,892
6393,885,891
6394,881,891
6395,880,892
6396,878,894
6397,877,897
6398,879,899
6399,877,900
6400,878,900
6401,875,901
6402,875,903
6403,876,900
6404,874,899
6405,871,899
6406,871,896
6407,869,896
6408,872,898
6409,871,900
6410,871,899
6411,872,902
6412,873,902
6413,871,899
6414,871,899
6415,868,896
6416,867,893
6417,863,892
6418,861,888
6419,860,888
6420,861,888
6421,859,888
6422,859,887
6423,862,888
6424,862,887
6425,861,886
6426,855,884
6427,850,881
6428,847,880
6429,843,875
6430,838,872
6431,834,870
6432,835,870
6433,832,869
6434,829,868
6435,828,866
6436,825,866
6437,825,859
6438,819,858
6439,817,854
6440,815,849
6441,809,846
6442,806,841
6443,803,840
6444,799,836
6445,799,835
6446,793,835
6447,792,833
6448,793,831
6449,793,830
6450,793,826
6451,789,825
6452,791,821
6453,789,821
6454,787,816
6455,788,819
6456,790,820
6457,795,821
6458,800,824
6459,807,825
6460,815,833
6461,824,831
6462,830,833
6463,834,835
6464,844,835
6465,849,841
6466,854,843
6467,863,848
6468,869,853
6469,876,858
6470,880,864
6471,886,868
6472,892,873
6473,897,872
6474,898,876
6475,902,875
6476,903,876
6477,906,875
6478,907,875
6479,908,878
6480,910,879
6481,911,880
6482,916,881
6483,918,883
6484,916,884
6485,916,880
6486,914,882
6487,914,880
6488,914,876
6489,910,878
6490,908,878
6491,910,879
6492,909,878
6493,909,881
6494,911,883
6495,913,885
6496,915,886
6497,917,885
6498,913,883
6499,911,881
6500,914,881
6501,913,881
6502,914,881
6503,913,882
6504,910,884
6505,913,885
6506,916,890
6507,918,890
6508,921,893
6509,924,895
6510,923,894
6511,925,895
6512,921,893
6513,919,892
6514,920,889
6515,917,892
6516,919,896
6517,922,897
6518,924,898
6519,928,902
6520,931,901
6521,933,902
6522,933,902
6523,934,903
6524,935,901
6525,935,900
6526,934,898
6527,931,900
6528,933,900
6529,933,901
6530,935,904
6531,936,905
6532,936,906
6533,938,903
6534,936,904
6535,935,901
6536,933,896
6537,931,896
6538,929,893
6539,923,895
6540,923,892
6541,923,895
6542,922,894
6543,923,895
6544,924,894
6545,925,893
6546,926,894
6547,925,892
6548,926,890
6549,924,889
6550,921,890
6551,921,890
6552,920,889
6553,921,890
6554,920,891
6555,922,893
6556,920,893
6557,921,890
6558,919,891
6559,919,892
6560,916,887
6561,914,885
6562,911,883
6563,913,883
6564,912,883
6565,911,884
6566,911,885
6567,910,883
6568,914,885
6569,911,884
6570,911,883
6571,913,880
6572,911,880
6573,909,876
6574,911,875
6575,911,876
6576,912,876
6577,915,876
6578,918,877
6579,918,880
6580,923,879
6581,924,880
6582,923,879
6583,923,880
6584,923,875
6585,924,873
6586,922,873
6587,921,873
6588,923,876
6589,923,877
6590,924,878
6591,927,883
6592,927,882
6593,927,882
6594,925,882
6595,924,881
6596,922,880
6597,922,880
6598,920,877
6599,917,879
6600,919,880
6601,919,880
6602,920,881
6603,918,880
6604,918,884
6605,917,881
6606,916,881
6607,916,879
6608,919,879
6609,917,876
6610,914,876
6611,917,879
6612,916,876
6613,914,882
6614,913,883
6615,914,885
6616,913,884
6617,912,884
6618,910,884
6619,910,883
6620,906,881
6621,906,881
6622,903,878
6623,902,879
6624,902,878
6625,902,882
6626,903,882
6627,907,883
6628,907,882
6629,908,883
6630,909,882
6631,910,881
6632,907,877
6633,908,879
6634,904,874
6635,905,876
6636,908,878
6637,908,879
6638,910,879
6639,912,883
6640,914,882
6641,914,879
6642,914,879
6643,915,877
6644,913,876
6645,910,873
6646,910,872
6647,911,875
6648,911,874
6649,913,878
6650,916,879
6651,916,879
6652,918,880
6653,919,881
6654,918,878
6655,918,877
6656,918,875
6657,920,875
6658,917,875
6659,915,875
6660,918,875
6661,920,879
6662,921,880
6663,922,880
6664,926,882
6665,927,883
6666,926,884
6667,926,881
6668,926,881
6669,925,880
6670,921,879
6671,920,883
6672,916,881
6673,914,887
6674,910,889
6675,907,892
6676,910,897
6677,920,905
6678,942,915
6679,979,925
6680,1021,939
6681,1074,955
6682,1137,971
6683,1202,988
6684,1270,1002
6685,1326,1019
6686,1372,1035
6687,1392,1050
6688,1395,1062
6689,1382,1064
6690,1347,1045
6691,1285,1005
6692,1191,947
6693,1076,878
6694,969,808
6695,899,757
6696,866,728
6697,860,725
6698,873,742
6699,888,768
6700,901,793
6701,909,808
6702,908,821
6703,904,829
6704,894,832
6705,888,834
6706,883,841
6707,881,847
6708,880,853
6709,879,858
6710,883,862
6711,884,866
6712,886,867
6713,886,868
6714,884,870
6715,885,870
6716,883,867
6717,882,868
6718,882,867
6719,880,867
6720,879,869
6721,878,872
6722,883,875
6723,883,877
6724,883,876
6725,881,874
6726,879,876
6727,877,873
6728,876,873
6729,876,871
6730,874,870
6731,873,869
6732,870,871
6733,871,874
6734,872,874
6735,872,876
6736,875,878
6737,874,876
6738,871,875
6739,868,872
6740,865,870
6741,864,868
6742,861,866
6743,860,867
6744,860,867
6745,860,868
6746,859,871
6747,861,870
6748,861,874
6749,859,870
6750,857,870
6751,854,870
6752,852,868
6753,849,864
6754,843,860
6755,839,862
6756,836,860
6757,837,860
6758,832,862
6759,832,859
6760,832,858
6761,830,857
6762,825,856
6763,824,852
6764,819,848
6765,814,845
6766,810,843
6767,804,841
6768,802,836
6769,799,837
6770,798,838
6771,796,834
6772,795,833
6773,792,830
6774,786,826
6775,784,821
6776,780,819
6777,777,814
6778,772,809
6779,770,810
6780,765,805
6781,764,804
6782,767,803
6783,767,800
6784,767,798
6785,768,797
6786,767,795
6787,769,791
6788,773,791
6789,776,789
6790,781,789
6791,787,793
6792,795,798
6793,801,802
6794,813,809
6795,822,816
6796,832,822
6797,841,824
6798,849,830
6799,859,834
6800,864,839
6801,873,842
6802,878,845
6803,884,851
6804,889,853
6805,894,858
6806,897,862
6807,899,862
6808,900,867
6809,903,868
6810,903,868
6811,901,866
6812,899,867
6813,898,870
6814,897,869
6815,898,870
6816,898,871
6817,900,876
6818,900,875
6819,903,879
6820,903,877
6821,903,879
6822,901,879
6823,903,877
6824,902,875
6825,901,877
6826,901,874
6827,902,876
6828,903,877
6829,907,877
6830,908,879
6831,911,881
6832,914,883
6833,915,882
6834,914,884
6835,915,882
6836,917,880
6837,914,882
6838,911,881
6839,911,879
6840,911,881
6841,911,885
6842,911,885
6843,913,886
6844,913,888
6845,914,885
6846,911,886
6847,912,884
6848,913,881
6849,912,883
6850,907,882
6851,904,883
6852,907,884
6853,907,885
6854,908,886
6855,911,891
6856,912,890
6857,913,891
6858,912,889
6859,914,889
6860,912,889
6861,913,887
6862,911,889
6863,911,891
6864,911,891
6865,914,894
6866,918,895
6867,920,899
6868,921,900
6869,922,898
6870,921,899
6871,922,899
6872,918,895
6873,920,894
6874,920,893
6875,916,893
6876,915,895
6877,914,899
6878,914,897
6879,914,898
6880,916,899
6881,917,896
6882,917,893
6883,917,893
6884,913,893
6885,913,891
6886,911,886
6887,911,888
6888,910,891
6889,909,890
6890,909,892
6891,908,893
6892,912,892
6893,915,892
6894,916,890
6895,915,889
6896,913,886
6897,912,886
6898,913,885
6899,909,883
6900,908,883
6901,908,886
6902,909,884
6903,911,886
6904,912,888
6905,914,886
6906,911,888
6907,910,885
6908,910,884
6909,908,882
6910,905,879
6911,904,880
6912,904,881
6913,903,884
6914,902,885
6915,901,886
6916,901,886
6917,904,886
6918,903,883
6919,902,883
6920,900,881
6921,901,878
6922,900,880
6923,901,878
6924,902,880
6925,905,880
6926,906,882
6927,909,883
6928,913,885
6929,912,882
6930,912,882
6931,910,882
6932,913,881
6933,910,882
6934,909,880
6935,909,878
6936,910,881
6937,908,882
6938,908,883
6939,908,886
6940,908,887
6941,908,884
6942,909,883
6943,905,884
6944,906,884
6945,905,880
6946,903,878
6947,901,879
6948,902,880
6949,901,883
6950,902,884
6951,903,884
6952,904,886
6953,905,887
6954,906,885
6955,906,885
6956,906,884
6957,904,881
6958,903,880
6959,902,880
6960,903,882
6961,903,880
6962,902,881
6963,902,883
6964,902,882
6965,906,885
6966,905,885
6967,903,883
6968,902,883
6969,905,882
6970,905,880
6971,908,880
6972,911,883
6973,913,887
6974,915,888
6975,918,890
6976,919,890
6977,920,890
6978,918,887
6979,921,886
6980,920,882
6981,920,882
6982,917,880
6983,914,880
6984,912,881
6985,910,883
6986,910,884
6987,912,886
6988,913,887
6989,920,888
6990,920,887
6991,922,885
6992,921,883
6993,917,881
6994,917,881
6995,916,881
6996,915,881
6997,914,883
6998,916,885
6999,917,883
7000,916,885
7001,917,882
7002,915,883
7003,917,884
7004,913,879
7005,913,881
7006,911,879
7007,911,878
7008,911,881
7009,911,882
7010,910,886
7011,910,886
7012,913,887
7013,912,887
7014,912,886
7015,913,884
7016,911,883
7017,912,884
7018,909,881
7019,907,882
7020,907,883
7021,906,884
7022,906,887
7023,907,887
7024,907,889
7025,909,889
7026,909,887
7027,910,890
7028,909,889
7029,908,888
7030,908,889
7031,910,890
7032,911,892
7033,912,894
7034,914,894
7035,917,897
7036,917,899
7037,915,900
7038,917,897
7039,918,898
7040,916,895
7041,914,892
7042,911,893
7043,909,893
7044,909,893
7045,910,895
7046,911,896
7047,911,897
7048,912,901
7049,911,901
7050,909,899
7051,910,896
7052,910,896
7053,910,895
7054,910,891
7055,910,889
7056,913,891
7057,913,892
7058,919,893
7059,919,895
7060,919,896
7061,922,896
7062,922,897
7063,922,894
7064,918,893
7065,916,892
7066,914,891
7067,915,889
7068,915,890
7069,914,892
7070,915,891
7071,916,894
7072,917,896
7073,916,894
7074,918,892
7075,915,892
7076,915,893
7077,915,888
7078,913,889
7079,911,888
7080,913,891
7081,915,889
7082,916,893
7083,916,894
7084,918,895
7085,919,894
7086,918,892
7087,917,894
7088,917,889
7089,914,889
7090,915,886
7091,917,887
7092,919,888
7093,920,891
7094,923,892
7095,925,893
7096,928,898
7097,928,898
7098,929,896
7099,926,898
7100,926,898
7101,925,896
7102,923,895
7103,922,897
7104,920,900
7105,917,905
7106,914,908
7107,909,910
7108,914,915
7109,932,925
7110,960,939
7111,999,956
7112,1049,975
7113,1106,994
7114,1174,1014
7115,1241,1027
7116,1303,1046
7117,1350,1062
7118,1376,1080
7119,1386,1101
7120,1376,1111
7121,1345,1103
7122,1293,1065
7123,1211,998
7124,1098,909
7125,984,816
7126,899,740
7127,855,697
7128,847,694
7129,857,724
7130,878,766
7131,894,803
7132,904,830
7133,906,842
7134,899,848
7135,892,849
7136,885,852
7137,879,855
7138,879,859
7139,878,863
7140,878,867
7141,878,870
7142,878,875
7143,880,876
7144,880,877
7145,881,879
7146,881,878
7147,881,879
7148,883,877
7149,880,878
7150,880,877
7151,882,878
7152,881,880
7153,880,882
7154,881,885
7155,882,882
7156,881,886
7157,883,885
7158,883,887
7159,882,887
7160,879,888
7161,878,887
7162,874,888
7163,873,892
7164,871,890
7165,872,893
7166,873,895
7167,873,896
7168,876,898
7169,877,897
7170,871,895
7171,869,894
7172,866,896
7173,861,894
7174,858,893
7175,854,893
7176,852,893
7177,852,895
7178,851,898
7179,853,899
7180,852,899
7181,854,899
7182,854,898
7183,851,895
7184,847,893
7185,845,893
7186,843,893
7187,839,892
7188,837,889
7189,836,889
7190,836,888
7191,836,887
7192,836,886
7193,833,882
7194,832,878
7195,831,876
7196,828,872
7197,823,868
7198,819,864
7199,816,859
7200,816,856
7201,812,855
7202,812,856
7203,807,849
7204,806,852
7205,804,845
7206,801,841
7207,798,835
7208,793,831
7209,788,827
7210,784,820
7211,779,816
7212,775,812
7213,776,809
7214,776,808
7215,774,806
7216,775,804
7217,775,801
7218,773,797
7219,772,795
7220,774,793
7221,776,793
7222,777,795
7223,781,796
7224,787,799
7225,794,803
7226,802,808
7227,808,813
7228,817,817
7229,824,820
7230,828,826
7231,837,832
7232,842,835
7233,846,839
7234,849,846
7235,854,851
7236,859,861
7237,863,869
7238,869,874
7239,877,878
7240,883,883
7241,890,885
7242,895,890
7243,897,893
7244,898,895
7245,900,897
7246,901,898
7247,901,900
7248,903,902
7249,905,905
7250,906,907
7251,911,906
7252,914,909
7253,916,909
7254,918,910
7255,918,909
7256,919,908
7257,920,908
7258,921,906
7259,920,906
7260,921,906
7261,923,909
7262,923,910
7263,925,912
7264,929,915
7265,932,917
7266,932,917
7267,930,917
7268,929,915
7269,927,913
7270,927,911
7271,924,911
7272,926,911
7273,926,911
7274,928,914
7275,929,915
7276,931,915
7277,931,918
7278,931,914
7279,933,916
7280,930,914
7281,927,911
7282,926,911
7283,923,910
7284,920,912
7285,917,911
7286,915,912
7287,915,911
7288,916,912
7289,915,911
7290,914,912
7291,915,909
7292,917,907
7293,915,908
7294,918,906
7295,920,908
7296,921,910
7297,923,908
7298,925,911
7299,927,913
7300,932,918
7301,934,918
7302,934,916
7303,936,922
7304,936,919
7305,933,919
7306,933,920
7307,933,921
7308,934,923
7309,933,928
7310,935,927
7311,934,931
7312,933,933
7313,938,932
7314,934,932
7315,935,931
7316,932,929
7317,930,925
7318,929,926
7319,929,922
7320,927,924
7321,926,924
7322,929,922
7323,928,923
7324,928,924
7325,928,924
7326,929,921
7327,929,919
7328,928,917
7329,926,915
7330,924,914
7331,923,912
7332,922,916
7333,923,914
7334,920,916
7335,917,915
7336,921,916
7337,924,917
7338,921,912
7339,920,914
7340,920,910
7341,914,910
7342,913,907
7343,913,907
7344,915,905
7345,915,903
7346,915,905
7347,919,907
7348,918,909
7349,918,906
7350,919,905
7351,920,906
7352,918,904
7353,916,902
7354,915,903
7355,916,902
7356,918,904
7357,921,905
7358,925,907
7359,927,908
7360,931,912
7361,934,911
7362,932,911
7363,933,911
7364,933,912
7365,930,911
7366,930,910
7367,929,907
7368,930,910
7369,932,907
7370,935,912
7371,935,913
7372,936,917
7373,934,917
7374,932,916
7375,929,918
7376,928,921
7377,936,925
7378,954,932
7379,987,950
7380,1030,972
7381,1084,998
7382,1150,1021
7383,1216,1042
7384,1283,1066
7385,1340,1085
7386,1376,1105
7387,1397,1125
7388,1397,1143
7389,1380,1152
7390,1348,1139
7391,1287,1087
7392,1196,1003
7393,1084,899
7394,979,794
7395,906,719
7396,872,685
7397,868,694
7398,880,730
7399,899,775
7400,912,813
7401,916,838
7402,913,850
7403,910,861
7404,903,869
7405,897,875
7406,896,883
7407,897,888
7408,900,895
7409,900,898
7410,902,897
7411,901,902
7412,898,901
7413,897,904
7414,897,903
7415,897,906
7416,898,908
7417,897,909
7418,899,912
7419,900,913
7420,903,917
7421,906,918
7422,904,918
7423,903,920
7424,900,918
7425,896,918
7426,894,916
7427,895,915
7428,895,919
7429,891,922
7430,891,920
7431,891,922
7432,894,922
7433,895,923
7434,892,920
7435,891,918
7436,892,918
7437,890,918
7438,887,918
7439,885,920
7440,882,923
7441,881,923
7442,881,923
7443,881,926
7444,884,928
7445,883,927
7446,880,929
7447,878,928
7448,877,927
7449,870,926
7450,866,924
7451,863,922
7452,862,923
7453,858,921
7454,856,923
7455,855,924
7456,854,922
7457,855,922
7458,852,919
7459,851,918
7460,847,917
7461,843,912
7462,840,910
7463,836,906
7464,838,905
7465,836,901
7466,835,901
7467,835,902
7468,835,900
7469,832,898
7470,833,895
7471,830,889
7472,827,883
7473,821,878
7474,821,873
7475,819,869
7476,817,868
7477,816,867
7478,818,867
7479,821,865
7480,820,865
7481,821,862
7482,823,859
7483,824,856
7484,827,856
7485,828,852
7486,834,852
7487,838,854
7488,846,857
7489,852,859
7490,862,865
7491,867,868
7492,873,874
7493,879,876
7494,886,881
7495,892,884
7496,895,886
7497,896,889
7498,897,890
7499,900,891
7500,906,898
7501,907,900
7502,911,904
7503,916,908
7504,919,910
7505,918,910
7506,916,909
7507,915,912
7508,913,910
7509,911,912
7510,910,912
7511,912,912
7512,911,911
7513,909,913
7514,913,914
7515,912,915
7516,915,916
7517,917,917
7518,919,913
7519,920,915
7520,919,913
7521,919,913
7522,918,910
7523,915,912
7524,916,912
7525,915,912
7526,916,912
7527,919,913
7528,921,916
7529,925,915
7530,926,914
7531,927,914
7532,927,913
7533,926,914
7534,925,912
7535,924,916
7536,923,915
7537,922,917
7538,920,918
7539,922,919
7540,923,920
7541,923,920
7542,924,919
7543,927,920
7544,924,917
7545,924,917
7546,923,917
7547,920,919
7548,921,919
7549,920,922
7550,921,924
7551,920,926
7552,919,928
7553,922,930
7554,921,928
7555,921,928
7556,920,927
7557,921,925
7558,922,925
7559,922,923
7560,922,926
7561,922,926
7562,925,928
7563,924,928
7564,928,929
7565,929,927
7566,930,925
7567,931,925
7568,930,923
7569,930,924
7570,927,924
7571,927,923
7572,931,925
7573,932,924
7574,934,924
7575,938,928
7576,937,929
7577,938,930
7578,936,927
7579,937,928
7580,932,924
7581,931,924
7582,931,922
7583,929,922
7584,930,923
7585,929,924
7586,931,925
7587,933,925
7588,933,924
7589,931,926
7590,931,925
7591,931,922
7592,930,922
7593,926,919
7594,925,918
7595,921,913
7596,922,914
7597,920,916
7598,920,916
7599,921,919
7600,922,917
7601,921,917
7602,921,916
7603,918,915
7604,916,914
7605,913,909
7606,911,910
7607,909,908
7608,910,911
7609,910,912
7610,910,913
7611,910,916
7612,911,915
7613,912,917
7614,913,916
7615,913,914
7616,912,914
7617,915,911
7618,913,912
7619,908,911
7620,912,914
7621,915,914
7622,917,916
7623,919,919
7624,920,919
7625,922,921
7626,924,918
7627,926,918
7628,930,918
7629,930,918
7630,929,916
7631,928,915
7632,929,916
7633,930,917
7634,932,919
7635,934,921
7636,934,923
7637,935,924
7638,934,926
7639,936,923
7640,934,922
7641,931,924
7642,931,922
7643,927,922
7644,927,923
7645,926,923
7646,925,922
7647,925,923
7648,924,924
7649,924,921
7650,920,919
7651,919,919
7652,919,916
7653,913,917
7654,912,916
7655,910,914
7656,911,912
7657,912,914
7658,911,914
7659,913,915
7660,915,916
7661,917,916
7662,918,915
7663,917,915
7664,915,911
7665,913,909
7666,911,904
7667,912,904
7668,911,905
7669,910,906
7670,911,906
7671,909,907
7672,912,906
7673,914,906
7674,915,906
7675,915,905
7676,916,904
7677,917,902
7678,917,899
7679,919,899
7680,917,899
7681,919,899
7682,918,902
7683,922,905
7684,923,905
7685,924,907
7686,926,906
7687,928,905
7688,926,906
7689,925,905
7690,927,902
7691,925,902
7692,928,903
7693,926,906
7694,926,908
7695,928,909
7696,928,910
7697,930,910
7698,928,909
7699,926,911
7700,924,910
7701,924,909
7702,922,909
7703,920,907
7704,919,909
7705,918,908
7706,920,910
7707,920,911
7708,921,912
7709,920,912
7710,921,909
7711,921,910
7712,918,907
7713,914,904
7714,914,902
7715,909,902
7716,910,903
7717,911,907
7718,909,906
7719,911,906
7720,913,909
7721,913,908
7722,914,907
7723,913,907
7724,912,904
7725,909,903
7726,906,901
7727,905,899
7728,906,901
7729,905,901
7730,904,903
7731,907,904
7732,909,905
7733,913,906
7734,916,904
7735,916,907
7736,918,904
7737,916,905
7738,915,903
7739,916,904
7740,914,906
7741,917,906
7742,917,907
7743,920,909
7744,921,909
7745,922,911
7746,923,907
7747,924,906
7748,921,907
7749,923,905
7750,924,904
7751,923,904
7752,926,908
7753,927,906
7754,927,908
7755,927,911
7756,928,912
7757,927,911
7758,926,909
7759,925,908
7760,923,906
7761,920,906
7762,919,904
7763,918,903
7764,918,907
7765,918,908
7766,922,909
7767,923,911
7768,924,913
7769,925,914
7770,929,912
7771,926,912
7772,927,910
7773,924,908
7774,923,908
7775,921,906
7776,919,908
7777,917,910
7778,918,912
7779,918,912
7780,917,916
7781,920,916
7782,919,916
7783,919,915
7784,916,910
7785,911,912
7786,902,911
7787,895,912
7788,894,913
7789,902,916
7790,924,926
7791,958,942
7792,1001,965
7793,1051,985
7794,1109,1003
7795,1171,1020
7796,1234,1038
7797,1291,1051
7798,1338,1067
7799,1367,1084
7800,1383,1110
7801,1383,1133
7802,1373,1152
7803,1354,1155
7804,1319,1130
7805,1259,1073
7806,1172,993
7807,1063,896
7808,972,806
7809,908,732
7810,880,695
7811,878,692
7812,886,720
7813,898,756
7814,907,793
7815,912,816
7816,911,835
7817,908,846
7818,905,851
7819,897,859
7820,893,861
7821,890,868
7822,888,871
7823,889,874
7824,889,882
7825,889,886
7826,890,893
7827,889,897
7828,890,900
7829,890,902
7830,889,903
7831,889,903
7832,887,905
7833,885,905
7834,882,905
7835,884,906
7836,883,910
7837,885,910
7838,885,915
7839,885,918
7840,884,918
7841,883,920
7842,885,919
7843,886,920
7844,882,919
7845,879,916
7846,877,913
7847,876,913
7848,872,912
7849,873,914
7850,872,915
7851,872,916
7852,874,915
7853,872,915
7854,873,918
7855,869,917
7856,867,915
7857,867,914
7858,865,910
7859,865,912
7860,866,914
7861,864,911
7862,862,913
7863,866,913
7864,865,915
7865,866,911
7866,863,912
7867,860,909
7868,860,907
7869,855,905
7870,853,900
7871,850,898
7872,848,896
7873,847,898
7874,845,899
7875,844,897
7876,844,896
7877,841,894
7878,840,889
7879,835,886
7880,833,881
7881,828,879
7882,824,877
7883,821,873
7884,817,874
7885,817,870
7886,813,868
7887,812,870
7888,808,868
7889,808,868
7890,805,865
7891,803,862
7892,798,858
7893,795,853
7894,793,852
7895,787,849
7896,787,849
7897,783,848
7898,783,844
7899,783,844
7900,783,841
7901,780,839
7902,777,835
7903,774,832
7904,770,828
7905,769,825
7906,766,820
7907,767,818
7908,766,817
7909,769,816
7910,771,817
7911,774,820
7912,776,821
7913,781,822
7914,784,824
7915,791,824
7916,794,825
7917,799,827
7918,805,830
7919,811,834
7920,817,840
7921,826,845
7922,833,851
7923,843,856
7924,853,863
7925,860,868
7926,864,869
7927,870,874
7928,874,876
7929,878,876
7930,880,880
7931,880,882
7932,884,884
7933,888,887
7934,891,891
7935,893,893
7936,898,894
7937,901,897
7938,904,898
7939,903,897
7940,905,897
7941,907,898
7942,904,899
7943,905,900
7944,905,902
7945,907,902
7946,907,903
7947,908,907
7948,910,908
7949,914,910
7950,916,907
7951,916,908
7952,921,909
7953,922,907
7954,924,906
7955,924,908
7956,926,912
7957,925,914
7958,924,918
7959,924,920
7960,923,919
7961,924,920
7962,921,922
7963,918,918
7964,919,917
7965,915,914
7966,913,914
7967,915,914
7968,917,916
7969,915,920
7970,913,918
7971,917,923
7972,920,922
7973,922,926
7974,922,925
7975,925,927
7976,921,924
7977,921,925
7978,920,923
7979,918,923
7980,916,926
7981,917,925
7982,917,926
7983,919,927
7984,919,926
7985,920,927
7986,921,924
7987,920,926
7988,920,924
7989,918,923
7990,917,922
7991,918,923
7992,920,924
7993,923,928
7994,923,930
7995,924,929
7996,926,931
7997,929,930
7998,929,931
7999,927,929
8000,928,928
8001,929,927
8002,925,924
8003,925,926
8004,922,926
8005,920,926
8006,923,927
8007,927,930
8008,927,930
8009,926,930
8010,924,928
8011,926,927
8012,925,927
8013,924,925
8014,924,923
8015,923,922
8016,922,924
8017,922,925
8018,921,926
8019,922,925
8020,923,926
8021,923,927
8022,922,924
8023,924,923
8024,923,922
8025,923,923
8026,921,919
8027,920,920
8028,920,920
8029,920,920
8030,920,924
8031,921,922
8032,923,926
8033,924,925
8034,923,926
8035,923,924
8036,921,922
8037,920,921
8038,915,918
8039,911,919
8040,914,918
8041,912,918
8042,910,920
8043,911,919
8044,914,923
8045,914,921
8046,913,918
8047,915,920
8048,914,919
8049,915,919
8050,916,917
8051,914,917
8052,913,920
8053,915,921
8054,914,922
8055,915,924
8056,915,925
8057,917,925
8058,917,926
8059,917,927
8060,917,923
8061,916,922
8062,913,921
8063,913,924
8064,915,924
8065,912,925
8066,917,926
8067,915,925
8068,917,926
8069,917,927
8070,917,924
8071,919,924
8072,917,923
8073,916,921
8074,917,920
8075,914,917
8076,913,919
8077,912,918
8078,914,918
8079,914,918
8080,915,919
8081,917,919
8082,916,919
8083,916,917
8084,918,915
8085,917,915
8086,919,912
8087,914,911
8088,917,911
8089,918,912
8090,918,913
8091,921,915
8092,922,917
8093,920,917
8094,923,914
8095,921,914
8096,921,912
8097,918,911
8098,916,910
8099,918,909
8100,919,910
8101,920,910
8102,921,914
8103,921,913
8104,924,916
8105,923,916
8106,923,914
8107,922,915
8108,920,912
8109,917,914
8110,917,913
8111,913,911
8112,914,911
8113,913,911
8114,915,915
8115,919,916
8116,921,917
8117,924,919
8118,924,918
8119,925,917
8120,921,916
8121,916,916
8122,915,912
8123,912,911
8124,913,915
8125,912,913
8126,913,916
8127,916,917
8128,917,919
8129,916,918
8130,915,915
8131,914,914
8132,913,913
8133,911,911
8134,914,911
8135,913,911
8136,915,911
8137,915,915
8138,916,915
8139,917,918
8140,918,918
8141,920,919
8142,919,917
8143,922,917
8144,922,916
8145,922,914
8146,922,914
8147,918,912
8148,920,913
8149,921,913
8150,921,917
8151,924,916
8152,927,918
8153,929,919
8154,930,919
8155,930,920
8156,928,919
8157,929,917
8158,926,920
8159,926,919
8160,927,920
8161,928,920
8162,927,922
8163,929,925
8164,929,924
8165,929,927
8166,931,926
8167,930,928
8168,928,923
8169,926,924
8170,923,919
8171,920,919
8172,918,920
8173,920,921
8174,919,921
8175,922,922
8176,924,925
8177,925,923
8178,923,921
8179,922,922
8180,921,917
8181,916,919
8182,917,915
8183,916,913
8184,917,915
8185,916,916
8186,918,918
8187,918,916
8188,920,917
8189,921,919
8190,922,918
8191,922,916
8192,918,915
8193,918,914
8194,916,913
8195,917,913
8196,916,915
8197,914,918
8198,912,918
8199,909,920
8200,905,924
8201,911,924
8202,925,929
8203,951,942
8204,989,958
8205,1037,976
8206,1092,994
8207,1154,1014
8208,1222,1035
8209,1285,1051
8210,1340,1070
8211,1376,1090
8212,1394,1111
8213,1395,1133
8214,1380,1147
8215,1349,1138
8216,1299,1100
8217,1216,1032
8218,1109,944
8219,1003,849
8220,923,769
8221,886,721
8222,877,718
8223,889,747
8224,906,790
8225,921,830
8226,926,859
8227,925,873
8228,920,883
8229,909,887
8230,901,889
8231,895,891
8232,891,897
8233,890,903
8234,890,908
8235,895,912
8236,896,915
8237,897,919
8238,895,918
8239,891,918
8240,891,918
8241,892,917
8242,889,916
8243,889,915
8244,889,919
8245,890,919
8246,890,922
8247,888,923
8248,889,925
8249,891,926
8250,891,927
8251,887,925
8252,888,925
8253,886,921
8254,885,922
8255,884,922
8256,879,923
8257,877,924
8258,878,926
8259,881,928
8260,878,930
8261,880,930
8262,880,928
8263,877,930
8264,875,925
8265,870,924
8266,871,923
8267,867,922
8268,865,921
8269,864,921
8270,865,924
8271,866,925
8272,866,926
8273,869,927
8274,870,923
8275,868,925
8276,866,922
8277,865,920
8278,864,916
8279,862,914
8280,860,914
8281,857,914
8282,855,917
8283,853,917
8284,848,916
8285,850,916
8286,846,913
8287,844,912
8288,838,906
8289,837,903
8290,835,899
8291,832,896
8292,829,895
8293,826,892
8294,824,892
8295,822,891
8296,819,888
8297,816,885
8298,814,880
8299,809,876
8300,806,870
8301,801,864
8302,795,859
8303,789,855
8304,785,852
8305,783,849
8306,781,848
8307,783,845
8308,782,843
8309,781,842
8310,782,837
8311,780,834
8312,779,831
8313,779,828
8314,778,824
8315,778,823
8316,780,825
8317,786,828
8318,791,831
8319,800,837
8320,809,843
8321,816,846
8322,825,851
8323,834,852
8324,841,856
8325,847,861
8326,853,865
8327,861,868
8328,867,874
8329,874,880
8330,880,886
8331,886,893
8332,893,898
8333,897,903
8334,900,906
8335,903,909
8336,908,911
8337,907,912
8338,908,913
8339,908,914
8340,912,919
8341,913,921
8342,914,922
8343,918,928
8344,920,931
8345,920,931
8346,920,929
8347,919,928
8348,923,929
8349,921,925
8350,920,925
8351,918,922
8352,918,925
8353,919,924
8354,920,925
8355,921,927
8356,920,926
8357,922,928
8358,920,925
8359,920,925
8360,920,925
8361,921,923
8362,922,922
8363,922,922
8364,922,924
8365,923,927
8366,925,926
8367,924,927
8368,927,928
8369,929,932
8370,929,931
8371,926,932
8372,927,930
8373,925,927
8374,925,926
8375,927,924
8376,926,927
8377,927,928
8378,929,932
8379,930,935
8380,930,938
8381,931,940
8382,932,938
8383,933,942
8384,927,941
8385,930,942
8386,929,941
8387,928,938
8388,924,942
8389,923,943
8390,926,942
8391,926,944
8392,929,946
8393,932,946
8394,930,944
8395,930,945
8396,932,943
8397,929,941
8398,930,940
8399,929,941
8400,927,941
8401,927,941
8402,926,943
8403,927,942
8404,929,947
8405,928,946
8406,928,943
8407,926,946
8408,929,942
8409,927,941
8410,923,938
8411,921,937
8412,920,937
8413,920,938
8414,922,939
8415,923,940
8416,925,941
8417,925,944
8418,927,940
8419,928,942
8420,930,938
8421,929,939
8422,929,937
8423,929,934
8424,928,938
8425,932,937
8426,934,939
8427,935,937
8428,938,941
8429,938,944
8430,940,946
8431,941,947
8432,940,949
8433,937,947
8434,932,948
8435,926,948
8436,922,951
8437,926,956
8438,941,965
8439,973,980
8440,1014,999
8441,1064,1023
8442,1125,1041
8443,1190,1061
8444,1259,1077
8445,1320,1099
8446,1366,1114
8447,1390,1135
8448,1398,1156
8449,1390,1176
8450,1368,1185
8451,1337,1167
8452,1278,1116
8453,1187,1031
8454,1076,928
8455,973,827
8456,907,746
8457,879,704
8458,881,706
8459,899,740
8460,913,786
8461,927,829
8462,934,860
8463,932,879
8464,923,895
8465,915,902
8466,909,906
8467,904,913
8468,902,911
8469,899,916
8470,898,918
8471,896,921
8472,895,927
8473,895,930
8474,894,930
8475,891,933
8476,890,934
8477,891,936
8478,888,934
8479,889,933
8480,891,933
8481,887,929
8482,887,929
8483,885,927
8484,886,929
8485,884,930
8486,886,931
8487,889,935
8488,887,935
8489,890,936
8490,892,935
8491,887,934
8492,889,934
8493,888,934
8494,889,935
8495,889,934
8496,890,937
8497,889,936
8498,891,938
8499,888,941
8500,893,943
8501,893,945
8502,894,942
8503,891,945
8504,891,944
8505,891,944
8506,889,943
8507,890,944
8508,887,945
8509,889,945
8510,891,947
8511,890,948
8512,893,951
8513,894,953
8514,894,951
8515,891,949
8516,889,948
8517,887,948
8518,888,946
8519,884,945
8520,881,948
8521,879,950
8522,878,953
8523,877,953
8524,875,955
8525,874,953
8526,869,949
8527,867,947
8528,861,941
8529,858,939
8530,853,935
8531,847,931
8532,842,929
8533,837,924
8534,833,922
8535,830,922
8536,827,918
8537,828,917
8538,827,915
8539,824,911
8540,821,907
8541,817,902
8542,814,895
8543,813,891
8544,811,890
8545,813,887
8546,812,887
8547,818,887
8548,820,886
8549,825,887
8550,831,887
8551,838,886
8552,844,885
8553,848,886
8554,854,888
8555,859,892
8556,865,895
8557,872,900
8558,875,900
8559,882,905
8560,888,910
8561,894,916
8562,900,916
8563,903,919
8564,904,918
8565,907,921
8566,909,922
8567,911,923
8568,916,928
8569,919,931
8570,922,933
8571,923,934
8572,927,935
8573,926,939
8574,928,935
8575,929,935
8576,931,933
8577,930,933
8578,930,931
8579,930,929
8580,929,928
8581,930,927
8582,929,928
8583,928,930
8584,930,933
8585,932,934
8586,932,935
8587,930,935
8588,927,937
8589,924,935
8590,920,936
8591,917,933
8592,915,935
8593,915,935
8594,912,938
8595,913,936
8596,918,938
8597,919,938
8598,923,939
8599,923,936
8600,925,936
8601,923,938
8602,926,936
8603,924,936
8604,922,938
8605,924,939
8606,922,943
8607,925,944
8608,929,948
8609,931,950
8610,938,949
8611,937,949
8612,937,947
8613,939,946
8614,939,946
8615,938,945
8616,936,948
8617,938,949
8618,940,952
8619,942,954
8620,940,957
8621,941,956
8622,942,954
8623,941,957
8624,943,954
8625,940,954
8626,937,951
8627,936,952
8628,938,955
8629,937,954
8630,938,956
8631,941,957
8632,940,958
8633,941,959
8634,942,956
8635,940,953
8636,940,953
8637,938,951
8638,935,949
8639,933,946
8640,931,947
8641,927,947
8642,929,944
8643,926,946
8644,922,945
8645,927,947
8646,926,945
8647,924,945
8648,922,941
8649,919,942
8650,918,941
8651,914,939
8652,916,941
8653,916,941
8654,918,943
8655,921,944
8656,921,947
8657,925,949
8658,926,945
8659,924,948
8660,926,944
8661,925,944
8662,931,942
8663,930,942
8664,930,942
8665,929,943
8666,929,945
8667,930,947
8668,930,947
8669,931,948
8670,934,948
8671,937,948
8672,935,945
8673,936,943
8674,938,942
8675,936,940
8676,935,941
8677,935,940
8678,936,942
8679,937,943
8680,937,945
8681,940,945
8682,940,944
8683,939,943
8684,941,941
8685,938,939
8686,937,938
8687,936,937
8688,936,939
8689,936,937
8690,935,941
8691,938,940
8692,939,945
8693,940,942
8694,940,940
8695,937,940
8696,935,938
8697,929,937
8698,927,936
8699,928,933
8700,924,935
8701,924,936
8702,923,933
8703,922,935
8704,923,934
8705,922,935
8706,924,932
8707,921,932
8708,918,931
8709,917,929
8710,916,927
8711,915,927
8712,919,927
8713,920,931
8714,920,932
8715,919,933
8716,916,935
8717,913,938
8718,910,940
8719,914,941
8720,929,947
8721,955,959
8722,996,972
8723,1043,993
8724,1097,1015
8725,1163,1038
8726,1231,1057
8727,1292,1076
8728,1339,1092
8729,1374,1111
8730,1388,1130
8731,1383,1151
8732,1371,1167
8733,1347,1166
8734,1308,1140
8735,1243,1083
8736,1152,1001
8737,1048,902
8738,958,809
8739,905,738
8740,885,703
8741,889,706
8742,899,737
8743,909,780
8744,919,816
8745,923,843
8746,920,858
8747,917,871
8748,913,878
8749,909,888
8750,907,895
8751,907,903
8752,908,906
8753,909,914
8754,910,915
8755,909,919
8756,906,919
8757,900,918
8758,897,918
8759,892,914
8760,891,915
8761,888,914
8762,886,915
8763,887,919
8764,884,919
8765,888,922
8766,886,923
8767,887,924
8768,888,926
8769,886,925
8770,883,924
8771,878,922
8772,877,924
8773,877,924
8774,880,925
8775,881,928
8776,882,931
8777,884,933
8778,885,931
8779,884,931
8780,881,924
8781,880,926
8782,875,923
8783,874,921
8784,872,922
8785,871,920
8786,871,923
8787,874,925
8788,871,926
8789,873,930
8790,872,927
8791,868,927
8792,868,925
8793,864,924
8794,864,920
8795,861,920
8796,861,921
8797,861,919
8798,860,924
8799,860,924
8800,859,926
8801,856,926
8802,855,924
8803,856,922
8804,852,919
8805,851,917
8806,849,915
8807,847,915
8808,844,914
8809,844,916
8810,842,912
8811,840,914
8812,838,912
8813,835,910
8814,831,906
8815,824,901
8816,817,898
8817,809,892
8818,805,887
8819,799,883
8820,796,876
8821,796,874
8822,792,871
8823,789,872
8824,787,869
8825,785,865
8826,784,861
8827,779,856
8828,778,853
8829,776,852
8830,775,850
8831,772,847
8832,772,846
8833,775,849
8834,775,848
8835,782,849
8836,790,848
8837,796,852
8838,803,852
8839,809,854
8840,816,856
8841,823,859
8842,830,863
8843,835,863
8844,840,870
8845,844,872
8846,853,878
8847,858,885
8848,865,887
8849,869,893
8850,876,896
8851,883,900
8852,888,903
8853,890,903
8854,894,907
8855,894,908
8856,898,912
8857,901,915
8858,903,918
8859,906,921
8860,909,925
8861,909,928
8862,909,927
8863,910,926
8864,912,924
8865,913,922
8866,911,922
8867,912,920
8868,911,922
8869,912,923
8870,915,924
8871,914,922
8872,915,924
8873,918,925
8874,922,925
8875,921,923
8876,917,920
8877,916,917
8878,915,918
8879,915,916
8880,913,920
8881,911,919
8882,913,919
8883,912,923
8884,913,922
8885,912,924
8886,911,922
8887,910,921
8888,908,917
8889,909,915
8890,905,914
8891,905,912
8892,904,911
8893,907,914
8894,906,918
8895,907,917
8896,908,921
8897,910,920
8898,910,923
8899,911,922
8900,912,922
8901,912,923
8902,913,920
8903,915,923
8904,914,923
8905,915,924
8906,917,928
8907,918,928
8908,920,931
8909,921,935
8910,922,932
8911,924,934
8912,922,934
8913,921,935
8914,921,934
8915,922,933
8916,921,936
8917,922,939
8918,921,939
8919,923,940
8920,924,945
8921,928,941
8922,928,943
8923,927,941
8924,928,940
8925,925,938
8926,925,937
8927,925,935
8928,926,934
8929,923,935
8930,925,935
8931,927,936
8932,930,940
8933,930,938
8934,929,937
8935,926,937
8936,924,935
8937,922,933
8938,920,930
8939,916,927
8940,914,928
8941,913,926
8942,908,927
8943,911,928
8944,911,928
8945,911,927
8946,909,924
8947,910,922
8948,911,918
8949,905,916
8950,906,913
8951,902,912
8952,903,910
8953,904,911
8954,905,910
8955,908,914
8956,910,917
8957,911,920
8958,912,922
8959,914,923
8960,915,921
8961,914,922
8962,912,922
8963,913,923
8964,911,924
8965,912,926
8966,914,929
8967,915,930
8968,919,933
8969,920,935
8970,923,937
8971,922,934
8972,922,937
8973,923,933
8974,924,934
8975,920,936
8976,917,934
8977,913,935
8978,907,938
8979,909,939
8980,921,947
8981,947,961
8982,983,977
8983,1028,996
8984,1086,1017
8985,1149,1034
8986,1213,1050
8987,1275,1065
8988,1327,1084
8989,1360,1107
8990,1377,1135
8991,1372,1162
8992,1360,1175
8993,1327,1160
8994,1270,1113
8995,1176,1029
8996,1063,925
8997,960,820
8998,890,740
8999,859,705
9000,854,713
9001,868,746
9002,884,792
9003,897,831
9004,901,859
9005,900,872
9006,896,876
9007,889,880
9008,884,884
9009,882,888
9010,886,891
9011,885,898
9012,888,904
9013,889,907
9014,888,912
9015,889,914
9016,888,915
9017,888,917
9018,889,916
9019,887,917
9020,886,917
9021,883,916
9022,886,917
9023,885,919
9024,884,920
9025,885,922
9026,886,924
9027,885,927
9028,885,930
9029,882,933
9030,880,933
9031,879,931
9032,880,930
9033,880,930
9034,880,929
9035,878,930
9036,876,929
9037,875,930
9038,874,934
9039,874,938
9040,873,935
9041,875,940
9042,873,937
9043,871,937
9044,869,937
9045,866,935
9046,865,934
9047,864,932
9048,862,934
9049,858,933
9050,857,933
9051,855,936
9052,852,936
9053,851,935
9054,847,933
9055,847,932
9056,842,927
9057,841,927
9058,839,924
9059,836,925
9060,834,922
9061,833,920
9062,832,921
9063,834,920
9064,832,921
9065,833,921
9066,833,920
9067,830,917
9068,827,912
9069,821,910
9070,818,906
9071,815,902
9072,809,902
9073,809,899
9074,806,899
9075,804,895
9076,802,893
9077,799,891
9078,801,887
9079,799,884
9080,795,879
9081,794,875
9082,792,871
9083,789,868
9084,786,863
9085,785,862
9086,785,860
9087,784,861
9088,787,859
9089,789,859
9090,791,858
9091,793,856
9092,796,856
9093,800,855
9094,806,856
9095,809,859
9096,817,862
9097,826,867
9098,834,871
9099,841,880
9100,850,885
9101,859,887
9102,867,891
9103,871,897
9104,874,900
9105,877,901
9106,878,901
9107,880,902
9108,882,903
9109,885,906
9110,887,909
9111,888,911
9112,890,915
9113,894,915
9114,894,917
9115,893,914
9116,894,912
9117,895,912
9118,896,911
9119,895,911
9120,894,912
9121,896,912
9122,897,912
9123,898,915
9124,902,917
9125,903,919
9126,905,919
9127,905,916
9128,905,917
9129,903,917
9130,900,915
9131,902,914
9132,901,915
9133,901,916
9134,903,917
9135,907,918
9136,907,920
9137,910,922
9138,910,922
9139,913,922
9140,912,922
9141,912,918
9142,911,919
9143,909,918
9144,908,919
9145,908,920
9146,907,922
9147,911,921
9148,909,925
9149,911,926
9150,913,927
9151,913,927
9152,911,926
9153,913,925
9154,911,926
9155,910,923
9156,908,925
9157,908,925
9158,910,929
9159,910,930
9160,911,932
9161,912,934
9162,911,934
9163,911,934
9164,911,933
9165,908,932
9166,907,931
9167,906,934
9168,905,931
9169,907,934
9170,909,934
9171,913,936
9172,913,937
9173,915,936
9174,917,937
9175,918,936
9176,917,931
9177,915,932
9178,916,928
9179,913,928
9180,911,927
9181,911,927
9182,913,927
9183,916,929
9184,917,929
9185,920,929
9186,922,930
9187,922,929
9188,920,928
9189,917,926
9190,915,926
9191,911,926
9192,910,927
9193,908,928
9194,909,929
9195,911,930
9196,911,931
9197,912,933
9198,915,933
9199,916,933
9200,917,930
9201,916,927
9202,915,927
9203,913,925
9204,912,924
9205,911,923
9206,913,925
9207,914,927
9208,915,929
9209,917,928
9210,919,930
9211,919,928
9212,920,928
9213,920,925
9214,919,928
9215,917,927
9216,917,927
9217,915,929
9218,914,931
9219,914,933
9220,913,934
9221,908,935
9222,904,937
9223,903,932
9224,900,932
9225,903,936
9226,917,942
9227,944,951
9228,981,970
9229,1027,993
9230,1082,1014
9231,1142,1029
9232,1207,1045
9233,1265,1062
9234,1317,1077
9235,1351,1093
9236,1367,1114
9237,1364,1135
9238,1350,1148
9239,1317,1137
9240,1260,1090
9241,1176,1015
9242,1066,915
9243,964,819
9244,895,739
9245,863,702
9246,862,710
9247,876,746
9248,895,794
9249,906,835
