'sample #','MLII','V1'
0,886,948
1,886,948
2,886,948
3,886,948
4,886,948
5,886,948
6,886,948
7,890,948
8,897,948
9,904,947
10,917,947
11,940,954
12,976,960
13,1028,968
14,1099,978
15,1178,980
16,1250,976
17,1299,958
18,1311,929
19,1269,895
20,1168,851
21,1040,816
22,912,792
23,784,793
24,687,810
25,702,836
26,753,864
27,804,889
28,842,908
29,861,921
30,866,926
31,860,931
32,855,934
33,851,936
34,851,938
35,850,940
36,850,941
37,850,944
38,851,947
39,851,950
40,850,952
41,853,955
42,852,954
43,852,953
44,852,953
45,851,951
46,851,952
47,850,953
48,852,955
49,854,952
50,853,955
51,860,956
52,861,955
53,861,960
54,861,958
55,861,959
56,863,957
57,865,959
58,866,956
59,864,954
60,864,955
61,866,955
62,869,957
63,869,959
64,871,961
65,873,962
66,874,963
67,875,961
68,876,957
69,877,956
70,877,957
71,876,957
72,873,960
73,876,959
74,878,962
75,880,963
76,882,960
77,885,961
78,886,960
79,889,961
80,889,958
81,888,960
82,889,960
83,890,960
84,890,959
85,890,959
86,893,961
87,894,961
88,897,963
89,898,964
90,900,964
91,901,963
92,903,963
93,905,960
94,904,961
95,905,960
96,905,960
97,906,964
98,908,966
99,909,967
100,911,969
101,914,968
102,914,965
103,914,963
104,914,962
105,912,962
106,914,960
107,913,961
108,913,961
109,915,962
110,920,961
111,926,962
112,931,964
113,930,963
114,932,961
115,932,960
116,935,959
117,936,958
118,936,953
119,940,954
120,942,952
121,940,950
122,941,952
123,940,954
124,939,952
125,938,953
126,935,949
127,932,951
128,928,947
129,925,943
130,921,943
131,915,942
132,914,945
133,908,944
134,906,948
135,905,947
136,904,948
137,902,948
138,899,946
139,895,945
140,892,943
141,890,945
142,887,945
143,887,944
144,885,944
145,885,945
146,885,946
147,886,947
148,885,949
149,887,950
150,884,949
151,884,947
152,884,946
153,883,944
154,883,943
155,881,940
156,881,941
157,881,943
158,881,948
159,882,951
160,884,952
161,887,951
162,888,950
163,887,949
164,887,943
165,887,944
166,886,944
167,885,942
168,888,946
169,890,947
170,894,947
171,894,948
172,895,951
173,899,954
174,897,950
175,896,951
176,896,948
177,896,947
178,898,944
179,895,944
180,896,944
181,895,946
182,897,950
183,897,951
184,899,951
185,901,951
186,901,951
187,902,948
188,900,945
189,896,943
190,896,942
191,894,944
192,894,945
193,894,948
194,895,949
195,896,947
196,895,947
197,897,949
198,895,946
199,894,946
200,893,946
201,893,947
202,888,943
203,890,943
204,888,944
205,888,945
206,888,947
207,889,951
208,890,952
209,889,952
210,890,950
211,889,948
212,889,945
213,889,945
214,887,945
215,884,942
216,883,945
217,885,946
218,883,947
219,885,951
220,886,950
221,888,950
222,887,948
223,887,946
224,886,945
225,884,944
226,883,944
227,881,943
228,879,944
229,878,944
230,879,946
231,883,945
232,882,947
233,883,951
234,883,950
235,885,949
236,882,945
237,881,943
238,880,943
239,879,943
240,878,944
241,876,945
242,878,948
243,879,948
244,878,950
245,881,951
246,880,948
247,880,949
248,882,947
249,878,944
250,873,943
251,874,943
252,874,943
253,877,944
254,876,947
255,879,948
256,879,951
257,881,950
258,882,948
259,882,947
260,882,946
261,881,944
262,882,943
263,881,942
264,882,945
265,882,946
266,884,950
267,890,952
268,893,953
269,898,953
270,900,952
271,903,953
272,903,955
273,903,957
274,904,958
275,906,956
276,908,954
277,910,951
278,910,948
279,908,944
280,903,941
281,904,940
282,902,942
283,900,939
284,901,938
285,897,939
286,896,937
287,894,938
288,892,940
289,890,943
290,886,948
291,885,949
292,884,950
293,884,951
294,884,947
295,882,945
296,881,943
297,880,943
298,879,940
299,879,940
300,879,940
301,878,943
302,883,944
303,885,946
304,888,949
305,898,948
306,906,951
307,921,956
308,952,964
309,1004,972
310,1073,980
311,1159,981
312,1238,974
313,1295,955
314,1314,930
315,1284,893
316,1196,857
317,1068,820
318,940,794
319,812,784
320,727,790
321,720,810
322,755,834
323,801,857
324,836,880
325,859,899
326,861,912
327,858,921
328,857,928
329,855,934
330,857,937
331,856,941
332,857,945
333,858,944
334,856,946
335,855,946
336,852,947
337,851,948
338,853,949
339,849,955
340,851,957
341,854,960
342,855,959
343,855,957
344,854,954
345,856,951
346,856,952
347,855,952
348,856,955
349,857,956
350,858,959
351,861,958
352,863,962
353,865,961
354,869,959
355,867,958
356,864,958
357,865,958
358,865,957
359,866,956
360,868,956
361,869,958
362,869,959
363,869,961
364,872,961
365,876,964
366,877,963
367,877,965
368,878,963
369,878,962
370,880,958
371,878,957
372,878,958
373,878,957
374,882,962
375,883,963
376,886,965
377,890,964
378,893,963
379,893,962
380,894,960
381,894,960
382,892,960
383,893,959
384,897,961
385,896,960
386,897,962
387,902,961
388,903,965
389,906,966
390,905,967
391,907,967
392,910,966
393,910,962
394,909,960
395,909,958
396,907,960
397,907,963
398,909,966
399,909,967
400,913,966
401,915,967
402,917,967
403,919,965
404,920,963
405,919,963
406,919,960
407,923,960
408,921,961
409,925,961
410,929,962
411,931,961
412,935,961
413,937,962
414,940,957
415,942,962
416,944,955
417,945,954
418,943,951
419,941,948
420,941,945
421,940,945
422,936,945
423,936,947
424,932,948
425,930,950
426,928,950
427,924,949
428,922,946
429,915,944
430,909,940
431,906,941
432,902,943
433,899,945
434,895,945
435,896,946
436,896,946
437,898,949
438,898,946
439,895,947
440,894,944
441,892,942
442,888,944
443,883,944
444,882,943
445,883,944
446,884,945
447,885,945
448,884,946
449,888,945
450,886,948
451,884,948
452,883,947
453,883,947
454,879,944
455,880,942
456,880,943
457,883,944
458,886,946
459,887,947
460,888,948
461,890,950
462,890,948
463,892,948
464,892,946
465,891,945
466,892,945
467,890,944
468,891,945
469,892,947
470,895,947
471,898,945
472,899,947
473,899,948
474,901,949
475,898,948
476,899,950
477,896,948
478,898,947
479,898,943
480,897,943
481,898,944
482,900,945
483,899,948
484,898,951
485,901,952
486,902,949
487,901,948
488,900,947
489,899,945
490,896,944
491,895,944
492,894,945
493,894,946
494,895,949
495,895,949
496,896,948
497,898,948
498,897,948
499,894,947
500,893,948
501,889,945
502,885,946
503,887,945
504,885,947
505,883,946
506,883,946
507,886,947
508,887,949
509,887,951
510,888,948
511,888,949
512,884,948
513,882,947
514,880,944
515,880,943
516,879,943
517,879,945
518,878,945
519,876,948
520,881,949
521,882,951
522,882,950
523,881,948
524,881,946
525,879,945
526,876,942
527,873,943
528,873,947
529,875,949
530,874,949
531,876,951
532,878,948
533,879,950
534,882,948
535,881,950
536,878,948
537,876,948
538,873,946
539,874,942
540,873,944
541,872,945
542,872,943
543,874,947
544,873,948
545,876,950
546,878,949
547,881,949
548,881,945
549,879,944
550,878,941
551,876,945
552,875,946
553,873,947
554,875,947
555,877,951
556,875,950
557,878,951
558,878,949
559,879,946
560,880,947
561,879,947
562,879,946
563,877,946
564,879,948
565,882,944
566,885,948
567,888,947
568,891,951
569,894,956
570,896,955
571,898,958
572,901,957
573,902,956
574,904,957
575,905,953
576,904,954
577,904,952
578,904,950
579,903,951
580,899,946
581,898,945
582,897,943
583,895,940
584,895,938
585,897,938
586,895,939
587,893,940
588,890,942
589,892,943
590,888,948
591,885,949
592,883,950
593,882,948
594,880,951
595,878,947
596,877,947
597,876,943
598,874,941
599,876,942
600,875,942
601,881,940
602,884,943
603,891,948
604,899,952
605,912,954
606,930,957
607,959,963
608,1009,967
609,1070,972
610,1149,977
611,1223,975
612,1283,966
613,1312,950
614,1305,922
615,1256,893
616,1159,862
617,1031,830
618,903,807
619,775,801
620,706,807
621,707,826
622,749,848
623,791,867
624,827,888
625,847,903
626,853,915
627,850,923
628,847,928
629,847,937
630,850,941
631,856,944
632,857,944
633,857,945
634,855,942
635,852,942
636,849,944
637,846,947
638,848,952
639,849,956
640,851,956
641,853,956
642,857,956
643,855,955
644,854,953
645,852,953
646,851,954
647,850,952
648,852,955
649,852,955
650,854,956
651,857,957
652,859,958
653,862,957
654,864,958
655,864,960
656,863,959
657,862,959
658,861,958
659,862,955
660,863,957
661,864,956
662,866,955
663,868,958
664,869,958
665,872,961
666,873,962
667,875,961
668,875,959
669,878,958
670,880,956
671,879,958
672,878,956
673,881,957
674,881,962
675,883,966
676,883,964
677,887,964
678,887,961
679,889,959
680,889,959
681,889,961
682,889,960
683,890,961
684,891,961
685,894,963
686,896,961
687,898,963
688,899,960
689,901,964
690,901,964
691,902,964
692,904,967
693,904,962
694,902,961
695,903,959
696,903,958
697,905,961
698,903,962
699,903,966
700,905,969
701,909,971
702,911,968
703,911,966
704,909,967
705,909,962
706,908,960
707,907,961
708,907,961
709,910,964
710,912,965
711,914,967
712,916,966
713,920,966
714,925,966
715,927,966
716,926,961
717,926,961
718,930,961
719,929,959
720,928,959
721,930,955
722,936,956
723,940,956
724,938,955
725,940,954
726,937,953
727,933,952
728,927,950
729,923,950
730,921,946
731,918,946
732,913,945
733,907,945
734,905,949
735,900,951
736,903,950
737,901,950
738,900,950
739,898,946
740,897,945
741,895,945
742,891,942
743,888,944
744,886,944
745,883,948
746,883,948
747,882,949
748,881,949
749,883,949
750,885,946
751,881,947
752,882,946
753,881,945
754,878,944
755,879,942
756,878,944
757,880,947
758,880,947
759,880,950
760,883,952
761,885,953
762,886,949
763,886,951
764,888,945
765,889,945
766,889,943
767,888,943
768,888,946
769,888,947
770,889,950
771,890,952
772,892,951
773,895,953
774,897,950
775,897,947
776,896,949
777,894,947
778,893,946
779,893,948
780,894,947
781,895,948
782,896,947
783,899,951
784,903,950
785,904,952
786,905,953
787,902,954
788,902,951
789,899,950
790,898,947
791,897,944
792,894,944
793,893,947
794,895,947
795,894,949
796,896,953
797,896,951
798,899,952
799,900,951
800,900,945
801,897,945
802,895,943
803,892,943
804,889,945
805,887,947
806,887,949
807,888,950
808,889,951
809,888,950
810,889,950
811,889,950
812,886,947
813,885,948
814,885,947
815,885,947
816,885,945
817,883,943
818,881,946
819,881,947
820,884,949
821,885,950
822,884,950
823,884,952
824,881,951
825,879,946
826,880,944
827,879,943
828,874,943
829,875,945
830,878,948
831,878,950
832,878,951
833,883,954
834,880,951
835,880,947
836,880,947
837,878,945
838,877,945
839,875,946
840,875,946
841,876,946
842,876,946
843,876,946
844,877,948
845,879,951
846,879,951
847,880,951
848,878,949
849,878,947
850,875,945
851,875,944
852,873,944
853,874,944
854,874,946
855,873,948
856,877,950
857,882,953
858,882,952
859,883,949
860,882,949
861,880,947
862,880,945
863,877,942
864,875,945
865,878,945
866,880,948
867,882,948
868,883,950
869,888,949
870,891,951
871,894,950
872,894,950
873,896,949
874,900,952
875,899,951
876,902,954
877,905,955
878,905,956
879,909,958
880,911,956
881,912,954
882,909,952
883,905,947
884,903,943
885,899,938
886,897,937
887,896,935
888,896,938
889,897,940
890,896,941
891,896,944
892,894,947
893,891,948
894,891,948
895,887,949
896,882,946
897,880,946
898,876,946
899,875,944
900,875,941
901,878,943
902,881,945
903,883,945
904,882,945
905,885,947
906,892,949
907,898,949
908,907,950
909,918,952
910,938,954
911,974,956
912,1026,968
913,1092,974
914,1173,981
915,1252,979
916,1302,964
917,1320,943
918,1290,910
919,1202,875
920,1074,841
921,946,814
922,818,805
923,690,813
924,684,830
925,725,851
926,780,873
927,826,892
928,850,908
929,859,919
930,856,924
931,851,932
932,849,933
933,851,937
934,857,939
935,860,938
936,861,942
937,858,944
938,857,946
939,857,951
940,856,955
941,856,956
942,858,952
943,859,953
944,858,952
945,855,951
946,855,950
947,856,953
948,856,953
949,858,954
950,859,955
951,864,953
952,865,955
953,867,959
954,868,958
955,865,960
956,864,959
957,864,960
958,866,958
959,867,954
960,866,953
961,867,955
962,866,954
963,870,955
964,871,960
965,873,963
966,875,962
967,879,959
968,879,958
969,879,956
970,878,957
971,878,954
972,879,955
973,881,957
974,883,961
975,885,958
976,887,960
977,890,960
978,892,960
979,895,959
980,896,960
981,895,961
982,894,963
983,896,958
984,896,958
985,897,957
986,900,957
987,901,960
988,900,962
989,902,965
990,904,965
991,903,965
992,905,962
993,905,962
994,905,959
995,905,957
996,906,958
997,908,959
998,910,960
999,913,966
1000,913,966
1001,917,966
1002,915,965
1003,913,963
1004,911,962
1005,911,963
1006,911,960
1007,909,962
1008,913,962
1009,915,962
1010,919,961
1011,921,964
1012,923,964
1013,926,962
1014,926,962
1015,926,961
1016,927,958
1017,932,957
1018,935,957
1019,932,956
1020,933,953
1021,937,955
1022,936,955
1023,936,953
1024,936,958
1025,935,954
1026,934,952
1027,933,951
1028,930,948
1029,927,946
1030,922,944
1031,918,944
1032,912,948
1033,910,948
1034,910,949
1035,908,950
1036,908,951
1037,905,951
1038,902,944
1039,898,946
1040,896,942
1041,889,943
1042,888,941
1043,889,944
1044,888,946
1045,888,945
1046,890,947
1047,889,949
1048,892,951
1049,889,950
1050,888,949
1051,885,947
1052,887,947
1053,885,946
1054,882,942
1055,882,942
1056,884,944
1057,882,947
1058,885,951
1059,886,950
1060,888,952
1061,892,951
1062,892,947
1063,891,944
1064,891,944
1065,890,943
1066,891,944
1067,890,946
1068,889,948
1069,892,947
1070,895,949
1071,899,950
1072,898,949
1073,900,952
1074,902,950
1075,903,948
1076,900,947
1077,900,948
1078,898,945
1079,900,942
1080,900,944
1081,903,946
1082,905,948
1083,905,949
1084,903,951
1085,903,951
1086,907,950
1087,904,947
1088,904,943
1089,903,944
1090,906,943
1091,904,943
1092,902,944
1093,901,947
1094,902,948
1095,902,950
1096,902,951
1097,904,950
1098,901,949
1099,900,948
1100,898,946
1101,898,944
1102,897,945
1103,897,945
1104,896,946
1105,897,945
1106,896,948
1107,895,948
1108,895,951
1109,895,954
1110,895,951
1111,893,950
1112,890,946
1113,889,945
1114,890,942
1115,888,942
1116,887,943
1117,887,945
1118,884,948
1119,888,950
1120,889,949
1121,890,951
1122,889,950
1123,890,947
1124,889,944
1125,886,945
1126,887,944
1127,883,946
1128,884,946
1129,883,947
1130,887,949
1131,886,947
1132,888,949
1133,888,949
1134,887,948
1135,887,949
1136,886,947
1137,885,945
1138,883,943
1139,882,945
1140,881,943
1141,883,945
1142,883,947
1143,884,949
1144,884,948
1145,885,951
1146,883,950
1147,884,948
1148,885,945
1149,884,945
1150,882,944
1151,880,944
1152,881,947
1153,879,947
1154,881,950
1155,883,948
1156,885,949
1157,884,949
1158,882,949
1159,883,950
1160,881,948
1161,881,946
1162,880,947
1163,881,946
1164,880,942
1165,882,944
1166,884,945
1167,887,951
1168,889,952
1169,893,953
1170,893,953
1171,896,953
1172,898,950
1173,900,950
1174,903,950
1175,905,952
1176,907,956
1177,909,959
1178,910,963
1179,916,961
1180,918,959
1181,918,954
1182,915,950
1183,910,945
1184,907,942
1185,905,940
1186,901,939
1187,902,938
1188,903,941
1189,902,943
1190,901,943
1191,899,947
1192,896,950
1193,893,950
1194,886,952
1195,881,949
1196,882,947
1197,881,942
1198,882,941
1199,881,940
1200,883,942
1201,884,943
1202,889,946
1203,893,947
1204,899,950
1205,904,947
1206,915,949
1207,927,951
1208,949,957
1209,990,962
1210,1043,971
1211,1110,977
1212,1187,978
1213,1256,971
1214,1298,955
1215,1304,933
1216,1268,907
1217,1182,878
1218,1054,843
1219,926,817
1220,798,806
1221,717,808
1222,714,825
1223,747,849
1224,792,871
1225,831,893
1226,856,908
1227,861,918
1228,859,925
1229,857,931
1230,856,934
1231,858,937
1232,860,941
1233,863,941
1234,863,945
1235,863,946
1236,862,946
1237,862,947
1238,861,949
1239,861,950
1240,861,953
1241,863,958
1242,864,957
1243,864,956
1244,863,954
1245,863,951
1246,861,950
1247,863,949
1248,862,951
1249,864,952
1250,863,958
1251,868,959
1252,869,962
1253,871,961
1254,870,957
1255,871,955
1256,873,956
1257,871,955
1258,871,954
1259,869,955
1260,870,957
1261,871,959
1262,873,959
1263,877,959
1264,880,961
1265,882,962
1266,881,961
1267,885,962
1268,884,961
1269,883,961
1270,885,956
1271,884,959
1272,887,956
1273,890,957
1274,889,960
1275,890,963
1276,892,967
1277,895,967
1278,896,963
1279,896,962
1280,898,960
1281,899,959
1282,897,960
1283,899,962
1284,901,961
1285,903,962
1286,906,962
1287,909,966
1288,912,965
1289,911,964
1290,912,967
1291,912,966
1292,911,966
1293,914,966
1294,911,963
1295,912,965
1296,914,963
1297,915,963
1298,917,964
1299,918,967
1300,921,971
1301,922,969
1302,921,969
1303,921,969
1304,922,967
1305,921,962
1306,922,963
1307,922,963
1308,924,963
1309,923,964
1310,925,966
1311,929,966
1312,930,968
1313,935,966
1314,937,965
1315,939,961
1316,940,962
1317,940,958
1318,940,957
1319,942,957
1320,941,958
1321,942,957
1322,944,955
1323,946,954
1324,943,953
1325,940,952
1326,939,951
1327,935,951
1328,929,948
1329,926,946
1330,921,947
1331,920,946
1332,916,944
1333,911,947
1334,908,947
1335,908,948
1336,908,950
1337,908,948
1338,904,949
1339,902,946
1340,900,944
1341,897,944
1342,897,945
1343,893,946
1344,893,946
1345,892,947
1346,893,950
1347,892,950
1348,892,950
1349,893,950
1350,890,945
1351,892,948
1352,889,948
1353,890,947
1354,887,946
1355,888,945
1356,888,946
1357,892,945
1358,890,947
1359,893,949
1360,894,950
1361,895,953
1362,894,949
1363,896,949
1364,896,948
1365,893,947
1366,893,946
1367,896,946
1368,896,949
1369,898,950
1370,900,953
1371,900,954
1372,906,953
1373,906,952
1374,905,949
1375,903,948
1376,904,947
1377,904,945
1378,903,945
1379,903,948
1380,905,949
1381,904,951
1382,904,953
1383,906,951
1384,906,953
1385,909,951
1386,910,948
1387,910,949
1388,907,949
1389,907,947
1390,907,945
1391,905,947
1392,905,948
1393,905,949
1394,906,948
1395,906,950
1396,908,950
1397,908,952
1398,907,951
1399,907,949
1400,905,948
1401,903,944
1402,899,945
1403,899,943
1404,897,945
1405,898,947
1406,898,950
1407,898,951
1408,899,952
1409,900,950
1410,900,948
1411,900,948
1412,897,945
1413,895,945
1414,892,948
1415,891,946
1416,891,948
1417,888,947
1418,890,951
1419,893,951
1420,892,951
1421,894,952
1422,891,950
1423,892,951
1424,891,949
1425,889,947
1426,887,944
1427,888,944
1428,886,946
1429,887,947
1430,887,949
1431,888,953
1432,889,954
1433,892,952
1434,893,949
1435,892,948
1436,889,948
1437,889,947
1438,886,945
1439,887,946
1440,884,947
1441,884,949
1442,885,949
1443,888,951
1444,888,952
1445,888,953
1446,887,951
1447,888,949
1448,888,948
1449,886,947
1450,886,949
1451,884,942
1452,884,944
1453,885,947
1454,885,950
1455,885,952
1456,884,955
1457,890,957
1458,887,951
1459,888,949
1460,888,950
1461,887,944
1462,886,947
1463,885,947
1464,883,948
1465,887,949
1466,889,951
1467,890,952
1468,891,952
1469,894,952
1470,894,950
1471,897,952
1472,896,950
1473,897,948
1474,897,947
1475,899,949
1476,900,950
1477,906,953
1478,908,957
1479,913,962
1480,914,966
1481,919,964
1482,918,961
1483,918,953
1484,917,947
1485,912,942
1486,909,937
1487,905,938
1488,905,940
1489,903,942
1490,906,945
1491,905,948
1492,907,949
1493,905,949
1494,901,948
1495,899,949
1496,892,948
1497,891,949
1498,886,946
1499,887,945
1500,886,946
1501,890,945
1502,891,946
1503,893,950
1504,897,950
1505,900,952
1506,900,952
1507,903,950
1508,908,950
1509,913,948
1510,920,948
1511,934,951
1512,960,958
1513,996,968
1514,1045,979
1515,1107,984
1516,1170,988
1517,1226,983
1518,1263,967
1519,1274,945
1520,1253,914
1521,1195,882
1522,1104,848
1523,994,817
1524,884,799
1525,803,795
1526,766,803
1527,770,823
1528,801,844
1529,835,864
1530,855,881
1531,869,897
1532,870,907
1533,863,913
1534,860,919
1535,857,924
1536,861,928
1537,864,935
1538,871,941
1539,873,945
1540,874,952
1541,875,953
1542,872,955
1543,868,955
1544,864,953
1545,862,954
1546,860,952
1547,860,951
1548,861,956
1549,861,958
1550,865,960
1551,866,960
1552,867,959
1553,870,962
1554,869,960
1555,872,962
1556,869,960
1557,870,960
1558,870,959
1559,871,958
1560,872,958
1561,872,961
1562,873,959
1563,875,962
1564,875,963
1565,878,966
1566,881,965
1567,883,966
1568,881,963
1569,882,960
1570,882,959
1571,882,959
1572,884,961
1573,886,962
1574,886,964
1575,889,967
1576,890,967
1577,893,966
1578,896,965
1579,895,964
1580,895,965
1581,896,965
1582,894,964
1583,895,965
1584,897,965
1585,897,965
1586,902,964
1587,904,964
1588,904,967
1589,908,968
1590,907,966
1591,908,969
1592,908,967
1593,909,965
1594,908,963
1595,907,964
1596,911,964
1597,911,965
1598,913,967
1599,916,970
1600,918,972
1601,923,972
1602,921,970
1603,923,969
1604,925,968
1605,923,967
1606,921,965
1607,922,966
1608,923,969
1609,922,972
1610,926,971
1611,927,974
1612,931,971
1613,933,972
1614,934,969
1615,932,968
1616,933,966
1617,933,966
1618,933,966
1619,933,967
1620,936,967
1621,940,966
1622,945,966
1623,948,965
1624,954,967
1625,957,966
1626,958,963
1627,958,961
1628,957,959
1629,954,955
1630,948,953
1631,946,952
1632,944,952
1633,941,953
1634,935,953
1635,936,954
1636,935,954
1637,931,954
1638,929,950
1639,926,947
1640,923,948
1641,918,948
1642,915,948
1643,912,948
1644,909,952
1645,907,953
1646,905,951
1647,903,953
1648,903,953
1649,903,954
1650,901,952
1651,902,953
1652,899,950
1653,897,949
1654,893,950
1655,893,948
1656,893,949
1657,894,951
1658,894,952
1659,894,953
1660,896,954
1661,897,953
1662,899,954
1663,898,951
1664,897,948
1665,895,947
1666,896,947
1667,897,948
1668,897,952
1669,898,953
1670,900,955
1671,902,955
1672,906,954
1673,906,956
1674,907,952
1675,908,952
1676,906,949
1677,905,952
1678,905,950
1679,906,948
1680,906,949
1681,906,952
1682,909,951
1683,911,953
1684,911,955
1685,913,956
1686,910,954
1687,911,953
1688,909,948
1689,907,948
1690,907,948
1691,906,946
1692,906,950
1693,906,951
1694,908,952
1695,909,954
1696,908,954
1697,911,954
1698,910,950
1699,909,950
1700,908,949
1701,906,949
1702,905,946
1703,903,948
1704,903,949
1705,901,950
1706,901,950
1707,900,952
1708,900,953
1709,901,952
1710,901,952
1711,901,950
1712,900,948
1713,900,946
1714,896,944
1715,893,945
1716,891,947
1717,890,949
1718,890,951
1719,890,951
1720,890,952
1721,894,951
1722,895,949
1723,893,948
1724,892,948
1725,892,948
1726,891,947
1727,889,948
1728,886,948
1729,888,948
1730,889,951
1731,888,950
1732,891,953
1733,890,952
1734,890,953
1735,891,951
1736,892,948
1737,884,947
1738,884,946
1739,887,946
1740,884,948
1741,886,949
1742,886,950
1743,886,953
1744,886,952
1745,889,952
1746,891,950
1747,889,947
1748,889,947
1749,887,946
1750,886,948
1751,887,946
1752,887,949
1753,884,950
1754,887,948
1755,888,949
1756,888,951
1757,889,952
1758,888,949
1759,888,950
1760,886,948
1761,887,947
1762,886,944
1763,887,943
1764,888,946
1765,886,948
1766,887,950
1767,889,953
1768,891,954
1769,895,954
1770,897,952
1771,897,949
1772,902,949
1773,903,949
1774,903,951
1775,907,954
1776,909,959
1777,912,957
1778,913,961
1779,917,961
1780,918,959
1781,917,957
1782,915,949
1783,911,947
1784,905,942
1785,905,937
1786,901,937
1787,902,938
1788,902,938
1789,901,942
1790,903,944
1791,902,948
1792,901,952
1793,898,950
1794,895,948
1795,891,946
1796,889,943
1797,885,944
1798,884,943
1799,883,943
1800,883,947
1801,886,946
1802,891,948
1803,890,949
1804,893,946
1805,897,947
1806,900,947
1807,903,947
1808,910,948
1809,921,949
1810,939,950
1811,970,954
1812,1017,963
1813,1078,971
1814,1155,976
1815,1230,979
1816,1289,971
1817,1321,957
1818,1318,933
1819,1279,906
1820,1201,876
1821,1085,847
1822,957,825
1823,829,811
1824,741,808
1825,709,819
1826,729,834
1827,772,855
1828,819,870
1829,849,883
1830,864,895
1831,862,906
1832,853,915
1833,844,922
1834,844,928
1835,848,930
1836,857,938
1837,864,940
1838,868,946
1839,869,948
1840,869,950
1841,867,951
1842,864,951
1843,862,952
1844,861,951
1845,859,954
1846,861,952
1847,858,950
1848,859,952
1849,860,955
1850,863,957
1851,864,957
1852,865,962
1853,868,963
1854,870,960
1855,871,958
1856,873,957
1857,871,954
1858,869,953
1859,872,953
1860,870,956
1861,872,958
1862,873,958
1863,875,961
1864,878,962
1865,880,961
1866,881,959
1867,882,959
1868,882,959
1869,882,961
1870,884,959
1871,883,958
1872,885,959
1873,886,958
1874,888,960
1875,889,963
1876,890,963
1877,891,967
1878,891,965
1879,892,963
1880,892,961
1881,890,959
1882,893,955
1883,892,955
1884,894,957
1885,896,961
1886,897,964
1887,899,964
1888,900,968
1889,905,966
1890,905,963
1891,904,964
1892,904,962
1893,904,962
1894,903,962
1895,905,961
1896,905,965
1897,907,967
1898,909,964
1899,913,966
1900,914,969
1901,917,968
1902,918,966
1903,918,968
1904,917,968
1905,916,966
1906,914,967
1907,910,968
1908,910,967
1909,912,965
1910,911,967
1911,916,966
1912,919,970
1913,921,969
1914,922,968
1915,923,968
1916,926,964
1917,927,966
1918,925,962
1919,925,963
1920,929,963
1921,931,962
1922,933,964
1923,939,964
1924,943,963
1925,946,959
1926,948,958
1927,947,956
1928,946,954
1929,941,954
1930,937,952
1931,933,952
1932,931,951
1933,927,951
1934,924,951
1935,922,951
1936,919,952
1937,917,954
1938,915,952
1939,913,950
1940,910,949
1941,908,946
1942,903,946
1943,904,946
1944,899,948
1945,899,948
1946,897,950
1947,895,952
1948,892,953
1949,892,955
1950,892,951
1951,890,951
1952,889,947
1953,890,946
1954,889,947
1955,884,948
1956,885,949
1957,888,951
1958,892,950
1959,891,952
1960,894,953
1961,896,951
1962,895,950
1963,894,952
1964,894,950
1965,889,950
1966,888,950
1967,889,948
1968,890,950
1969,892,949
1970,893,952
1971,899,950
1972,901,955
1973,901,956
1974,903,955
1975,904,953
1976,906,952
1977,904,949
1978,901,949
1979,903,948
1980,901,951
1981,900,951
1982,902,952
1983,903,954
1984,905,956
1985,906,955
1986,908,952
1987,912,951
1988,913,951
1989,909,946
1990,908,949
1991,906,951
1992,908,951
1993,909,951
1994,906,953
1995,907,953
1996,911,950
1997,907,953
1998,906,951
1999,906,952
2000,906,948
2001,905,948
2002,902,947
2003,902,946
2004,901,947
2005,899,948
2006,899,949
2007,899,953
2008,898,954
2009,899,952
2010,901,950
2011,900,951
2012,899,947
2013,897,946
2014,894,946
2015,896,946
2016,895,948
2017,894,949
2018,894,950
2019,895,951
2020,893,951
2021,892,952
2022,893,950
2023,890,953
2024,891,950
2025,885,950
2026,887,946
2027,888,946
2028,888,949
2029,888,948
2030,888,950
2031,889,953
2032,890,955
2033,890,954
2034,888,952
2035,890,951
2036,886,949
2037,884,947
2038,885,947
2039,882,946
2040,882,949
2041,880,951
2042,883,951
2043,887,954
2044,886,954
2045,891,953
2046,891,952
2047,890,951
2048,888,951
2049,886,949
2050,885,947
2051,883,947
2052,881,950
2053,883,949
2054,884,951
2055,884,952
2056,887,953
2057,887,953
2058,887,952
2059,885,951
2060,887,951
2061,886,949
2062,884,946
2063,885,946
2064,883,946
2065,882,948
2066,883,953
2067,886,952
2068,889,953
2069,895,954
2070,895,950
2071,897,951
2072,899,950
2073,902,952
2074,901,951
2075,905,952
2076,906,953
2077,909,957
2078,913,957
2079,915,961
2080,916,962
2081,918,962
2082,919,957
2083,918,955
2084,912,949
2085,911,945
2086,908,940
2087,906,937
2088,906,941
2089,905,942
2090,907,946
2091,908,949
2092,906,951
2093,904,951
2094,903,949
2095,899,950
2096,894,947
2097,889,944
2098,886,943
2099,883,944
2100,883,945
2101,883,947
2102,889,948
2103,888,948
2104,890,949
2105,893,950
2106,893,947
2107,894,949
2108,894,947
2109,896,948
2110,897,946
2111,903,945
2112,912,949
2113,931,952
2114,955,958
2115,989,964
2116,1039,975
2117,1098,983
2118,1170,984
2119,1242,984
2120,1300,972
2121,1332,957
2122,1336,936
2123,1310,912
2124,1244,885
2125,1134,860
2126,1006,838
2127,878,820
2128,750,816
2129,679,825
2130,695,839
2131,747,858
2132,801,876
2133,841,892
2134,856,903
2135,863,914
2136,857,925
2137,853,929
2138,853,937
2139,860,940
2140,867,947
2141,874,950
2142,873,951
2143,872,954
2144,868,953
2145,861,951
2146,860,951
2147,856,951
2148,857,952
2149,859,952
2150,861,955
2151,866,958
2152,869,960
2153,872,961
2154,874,961
2155,874,962
2156,874,957
2157,872,958
2158,866,956
2159,868,957
2160,869,957
2161,869,959
2162,871,959
2163,874,961
2164,876,962
2165,878,962
2166,882,960
2167,884,958
2168,883,961
2169,883,959
2170,882,960
2171,882,961
2172,880,962
2173,882,962
2174,884,961
2175,886,961
2176,888,963
2177,891,965
2178,890,963
2179,889,965
2180,892,962
2181,894,963
2182,894,960
2183,894,960
2184,898,961
2185,897,961
2186,900,964
2187,900,966
2188,901,969
2189,902,970
2190,905,969
2191,906,966
2192,904,964
2193,907,962
2194,905,961
2195,906,961
2196,904,965
2197,907,968
2198,910,968
2199,914,968
2200,915,970
2201,917,970
2202,918,965
2203,915,965
2204,916,966
2205,913,965
2206,912,967
2207,910,968
2208,910,967
2209,911,967
2210,915,968
2211,917,970
2212,917,969
2213,921,973
2214,919,971
2215,919,971
2216,921,970
2217,920,967
2218,920,965
2219,922,964
2220,918,965
2221,919,966
2222,924,970
2223,926,968
2224,931,971
2225,936,971
2226,940,965
2227,942,963
2228,943,959
2229,946,955
2230,947,955
2231,945,954
2232,943,954
2233,942,960
2234,941,957
2235,940,957
2236,936,956
2237,935,957
2238,933,952
2239,929,954
2240,926,950
2241,919,951
2242,914,950
2243,910,947
2244,909,948
2245,907,947
2246,909,950
2247,906,951
2248,904,956
2249,902,956
2250,901,956
2251,898,953
2252,897,953
2253,896,949
2254,894,947
2255,891,946
2256,891,952
2257,889,951
2258,891,955
2259,892,955
2260,892,957
2261,896,956
2262,898,953
2263,898,952
2264,897,950
2265,892,951
2266,892,951
2267,889,951
2268,890,953
2269,891,949
2270,889,953
2271,895,950
2272,895,953
2273,899,955
2274,901,955
2275,902,956
2276,902,953
2277,902,952
2278,904,950
2279,904,948
2280,904,950
2281,904,948
2282,906,952
2283,908,956
2284,906,956
2285,911,960
2286,910,957
2287,912,954
2288,912,952
2289,910,951
2290,909,949
2291,910,949
2292,908,952
2293,910,952
2294,912,952
2295,915,954
2296,914,954
2297,917,957
2298,917,954
2299,915,957
2300,913,954
2301,910,955
2302,910,950
2303,909,948
2304,907,949
2305,907,949
2306,908,951
2307,908,953
2308,908,956
2309,910,959
2310,911,956
2311,909,956
2312,908,953
2313,906,950
2314,903,948
2315,901,948
2316,897,952
2317,896,952
2318,896,954
2319,898,953
2320,901,954
2321,901,954
2322,898,953
2323,895,955
2324,893,953
2325,892,953
2326,895,951
2327,893,950
2328,893,950
2329,894,950
2330,894,950
2331,895,950
2332,895,957
2333,896,959
2334,898,956
2335,896,956
2336,895,954
2337,893,952
2338,892,948
2339,890,947
2340,889,951
2341,886,953
2342,887,954
2343,890,957
2344,894,957
2345,895,956
2346,896,954
2347,894,955
2348,893,952
2349,892,950
2350,890,949
2351,889,952
2352,889,952
2353,889,951
2354,892,951
2355,891,955
2356,892,953
2357,892,955
2358,890,954
2359,891,956
2360,890,953
2361,887,953
2362,887,951
2363,886,948
2364,885,949
2365,887,951
2366,889,954
2367,888,954
2368,891,957
2369,894,959
2370,894,955
2371,894,956
2372,891,952
2373,884,952
2374,887,953
2375,891,950
2376,893,953
2377,895,953
2378,901,955
2379,906,954
2380,905,958
2381,909,960
2382,914,964
2383,917,963
2384,919,964
2385,921,963
2386,923,960
2387,922,956
2388,919,954
2389,914,950
2390,913,950
2391,911,949
2392,910,951
2393,913,952
2394,913,950
2395,912,949
2396,910,949
2397,908,949
2398,903,946
2399,899,948
2400,897,951
2401,892,954
2402,891,953
2403,891,953
2404,891,954
2405,892,954
2406,892,954
2407,891,955
2408,888,952
2409,888,953
2410,891,950
2411,890,947
2412,891,949
2413,894,949
2414,901,950
2415,905,953
2416,917,959
2417,931,963
2418,953,964
2419,987,969
2420,1032,976
2421,1094,981
2422,1168,984
2423,1241,984
2424,1297,977
2425,1329,963
2426,1331,943
2427,1289,915
2428,1193,883
2429,1065,852
2430,937,825
2431,809,811
2432,697,818
2433,701,837
2434,747,860
2435,802,885
2436,843,904
2437,864,918
2438,871,927
2439,870,935
2440,871,940
2441,870,947
2442,870,948
2443,869,955
2444,870,954
2445,870,952
2446,866,949
2447,863,950
2448,863,951
2449,861,957
2450,863,958
2451,867,962
2452,867,961
2453,869,964
2454,872,963
2455,873,962
2456,871,958
2457,869,960
2458,867,960
2459,867,959
2460,868,962
2461,868,963
2462,871,963
2463,875,963
2464,876,964
2465,879,965
2466,879,966
2467,879,966
2468,881,965
2469,879,966
2470,879,965
2471,882,962
2472,879,964
2473,880,963
2474,881,964
2475,885,967
2476,886,970
2477,890,972
2478,891,969
2479,894,967
2480,894,966
2481,893,964
2482,894,962
2483,893,963
2484,893,966
2485,895,968
2486,896,966
2487,899,970
2488,901,970
2489,905,969
2490,907,969
2491,906,967
2492,908,967
2493,907,966
2494,906,967
2495,907,968
2496,908,970
2497,908,968
2498,911,970
2499,913,968
2500,916,971
2501,918,973
2502,919,973
2503,919,969
2504,918,971
2505,919,970
2506,918,967
2507,920,966
2508,918,968
2509,920,970
2510,918,970
2511,920,972
2512,925,972
2513,927,972
2514,928,971
2515,927,970
2516,927,971
2517,927,970
2518,928,968
2519,930,969
2520,932,968
2521,934,967
2522,937,969
2523,942,967
2524,945,967
2525,950,968
2526,950,967
2527,953,965
2528,952,963
2529,951,959
2530,950,957
2531,950,954
2532,947,954
2533,943,956
2534,942,958
2535,940,959
2536,939,959
2537,937,958
2538,935,953
2539,930,953
2540,927,951
2541,922,951
2542,919,951
2543,915,952
2544,913,952
2545,910,952
2546,910,952
2547,907,951
2548,909,953
2549,907,954
2550,906,953
2551,905,955
2552,904,952
2553,902,951
2554,901,949
2555,899,948
2556,898,947
2557,898,951
2558,896,951
2559,897,955
2560,897,955
2561,899,956
2562,901,955
2563,900,955
2564,902,951
2565,902,950
2566,900,948
2567,900,950
2568,897,948
2569,896,952
2570,897,956
2571,901,958
2572,903,958
2573,908,957
2574,908,954
2575,910,954
2576,909,954
2577,905,953
2578,908,952
2579,908,952
2580,907,952
2581,908,954
2582,909,952
2583,911,954
2584,911,957
2585,910,956
2586,912,957
2587,912,956
2588,913,954
2589,913,950
2590,913,949
2591,912,948
2592,914,951
2593,915,953
2594,914,955
2595,917,954
2596,915,956
2597,918,958
2598,920,952
2599,919,952
2600,916,951
2601,913,949
2602,912,950
2603,910,949
2604,912,950
2605,909,951
2606,910,953
2607,909,952
2608,911,953
2609,912,959
2610,911,955
2611,911,956
2612,910,953
2613,905,951
2614,903,949
2615,902,949
2616,897,949
2617,900,953
2618,900,954
2619,901,956
2620,904,955
2621,902,955
2622,904,952
2623,902,952
2624,902,951
2625,900,949
2626,898,949
2627,897,949
2628,896,951
2629,896,950
2630,897,951
2631,895,951
2632,897,955
2633,899,954
2634,898,954
2635,897,954
2636,897,952
2637,895,950
2638,896,948
2639,894,948
2640,893,948
2641,893,950
2642,891,953
2643,894,955
2644,895,957
2645,899,955
2646,899,952
2647,897,952
2648,898,950
2649,894,950
2650,892,949
2651,891,949
2652,892,950
2653,892,951
2654,892,953
2655,892,952
2656,892,954
2657,895,954
2658,896,953
2659,894,954
2660,893,950
2661,892,951
2662,893,949
2663,892,947
2664,893,947
2665,892,950
2666,891,954
2667,894,956
2668,895,956
2669,898,958
2670,900,952
2671,899,953
2672,900,953
2673,902,949
2674,901,950
2675,899,950
2676,904,952
2677,907,953
2678,911,954
2679,915,956
2680,918,959
2681,922,962
2682,923,964
2683,925,965
2684,926,964
2685,927,960
2686,926,955
2687,923,949
2688,922,947
2689,917,943
2690,914,943
2691,914,945
2692,915,946
2693,916,951
2694,917,949
2695,918,947
2696,914,948
2697,912,946
2698,908,945
2699,903,945
2700,896,950
2701,893,955
2702,892,954
2703,896,954
2704,893,954
2705,895,953
2706,897,950
2707,899,950
2708,897,949
2709,896,950
2710,896,947
2711,896,948
2712,899,950
2713,902,949
2714,908,950
2715,915,951
2716,925,957
2717,944,964
2718,980,968
2719,1035,979
2720,1115,985
2721,1205,987
2722,1287,981
2723,1337,962
2724,1348,930
2725,1295,890
2726,1173,851
2727,1045,813
2728,917,790
2729,789,789
2730,714,802
2731,743,832
2732,794,858
2733,842,882
2734,872,900
2735,882,911
2736,879,922
2737,873,926
2738,869,932
2739,870,939
2740,872,946
2741,877,951
2742,879,954
2743,880,954
2744,877,953
2745,875,952
2746,872,953
2747,871,951
2748,871,954
2749,870,957
2750,870,960
2751,874,963
2752,875,964
2753,878,965
2754,878,963
2755,881,960
2756,879,960
2757,875,961
2758,875,960
2759,874,958
2760,877,962
2761,877,963
2762,879,963
2763,884,965
2764,884,965
2765,882,968
2766,885,969
2767,886,968
2768,887,965
2769,888,965
2770,889,962
2771,888,961
2772,890,962
2773,890,963
2774,891,963
2775,894,966
2776,897,969
2777,900,970
2778,901,970
2779,902,970
2780,903,967
2781,903,964
2782,903,962
2783,902,962
2784,902,965
2785,903,965
2786,907,968
2787,907,969
2788,911,970
2789,912,968
2790,915,968
2791,916,971
2792,915,969
2793,913,967
2794,915,964
2795,919,966
2796,918,966
2797,920,965
2798,921,968
2799,923,971
2800,925,972
2801,925,975
2802,925,972
2803,927,974
2804,925,970
2805,928,968
2806,927,966
2807,924,965
2808,926,968
2809,927,970
2810,930,972
2811,932,973
2812,933,974
2813,935,974
2814,940,973
2815,938,970
2816,938,971
2817,940,968
2818,940,965
2819,943,964
2820,945,963
2821,950,965
2822,952,964
2823,957,963
2824,960,964
2825,963,965
2826,964,963
2827,965,962
2828,965,960
2829,963,956
2830,960,951
2831,954,949
2832,947,951
2833,950,952
2834,947,953
2835,944,954
2836,943,955
2837,944,954
2838,941,953
2839,939,948
2840,937,949
2841,932,948
2842,923,947
2843,918,946
2844,918,949
2845,916,949
2846,916,948
2847,915,950
2848,915,952
2849,915,951
2850,914,950
2851,913,952
2852,910,950
2853,908,952
2854,905,949
2855,906,949
2856,903,947
2857,904,948
2858,904,948
2859,906,948
2860,905,952
2861,906,953
2862,908,954
2863,906,954
2864,907,953
2865,906,949
2866,904,949
2867,903,945
2868,902,947
2869,904,949
2870,907,952
2871,911,952
2872,911,952
2873,915,955
2874,917,952
2875,917,952
2876,918,952
2877,918,951
2878,914,949
2879,915,948
2880,915,951
2881,917,950
2882,920,950
2883,922,951
2884,923,953
2885,923,954
2886,923,953
2887,924,955
2888,922,950
2889,923,951
2890,920,947
2891,922,946
2892,919,947
2893,920,948
2894,917,949
2895,920,950
2896,920,953
2897,921,956
2898,923,952
2899,923,951
2900,921,948
2901,918,946
2902,917,944
2903,917,947
2904,913,948
2905,913,949
2906,910,950
2907,915,949
2908,917,949
2909,918,952
2910,918,950
2911,915,950
2912,912,950
2913,910,948
2914,910,949
2915,908,947
2916,905,946
2917,906,947
2918,905,948
2919,907,949
2920,907,950
2921,909,953
2922,908,953
2923,908,952
2924,909,947
2925,907,947
2926,906,947
2927,904,944
2928,903,946
2929,903,948
2930,901,949
2931,901,951
2932,902,951
2933,902,952
2934,904,951
2935,903,951
2936,900,945
2937,898,946
2938,896,946
2939,892,948
2940,893,947
2941,895,949
2942,896,950
2943,899,950
2944,897,951
2945,897,949
2946,899,949
2947,898,951
2948,897,949
2949,894,949
2950,895,945
2951,898,946
2952,894,947
2953,894,947
2954,895,948
2955,895,949
2956,895,950
2957,897,952
2958,899,950
2959,900,950
2960,899,947
2961,895,947
2962,894,946
2963,895,945
2964,894,947
2965,895,949
2966,895,951
2967,896,947
2968,898,948
2969,899,951
2970,899,949
2971,895,948
2972,895,950
2973,895,946
2974,899,946
2975,897,946
2976,897,944
2977,899,945
2978,902,945
2979,905,951
2980,909,951
2981,911,952
2982,912,954
2983,913,954
2984,915,952
2985,918,952
2986,920,952
2987,921,954
2988,924,955
2989,924,956
2990,925,957
2991,929,958
2992,929,953
2993,929,949
2994,927,943
2995,921,941
2996,920,938
2997,919,936
2998,916,935
2999,915,936
3000,915,941
3001,914,944
3002,913,945
3003,911,946
3004,903,947
3005,903,948
3006,901,949
3007,898,948
3008,897,948
3009,896,946
3010,897,944
3011,896,940
3012,897,942
3013,897,940
3014,899,944
3015,899,944
3016,903,947
3017,908,952
3018,917,951
3019,927,951
3020,946,953
3021,978,961
3022,1029,967
3023,1101,976
3024,1184,982
3025,1265,983
3026,1323,973
3027,1349,955
3028,1340,925
3029,1282,894
3030,1176,860
3031,1048,830
3032,920,805
3033,792,794
3034,702,795
3035,712,812
3036,762,835
3037,817,854
3038,856,874
3039,875,892
3040,875,907
3041,869,916
3042,861,924
3043,859,927
3044,862,932
3045,867,933
3046,874,937
3047,877,939
3048,875,942
3049,875,945
3050,869,949
3051,867,951
3052,869,955
3053,869,955
3054,868,956
3055,868,955
3056,868,953
3057,872,954
3058,870,954
3059,870,954
3060,871,954
3061,869,954
3062,871,956
3063,876,959
3064,876,960
3065,877,964
3066,880,960
3067,880,961
3068,879,961
3069,879,959
3070,881,957
3071,881,957
3072,884,957
3073,883,954
3074,884,960
3075,882,961
3076,884,965
3077,887,966
3078,888,964
3079,889,964
3080,889,961
3081,889,960
3082,889,958
3083,891,955
3084,893,959
3085,893,960
3086,897,960
3087,899,963
3088,899,963
3089,903,964
3090,906,964
3091,905,962
3092,905,962
3093,905,961
3094,906,960
3095,907,960
3096,907,963
3097,910,960
3098,912,963
3099,915,963
3100,916,964
3101,919,968
3102,917,965
3103,917,967
3104,920,965
3105,919,965
3106,921,964
3107,917,961
3108,918,960
3109,920,963
3110,921,965
3111,923,968
3112,924,968
3113,925,971
3114,927,971
3115,927,966
3116,927,967
3117,924,965
3118,925,966
3119,923,966
3120,924,966
3121,924,966
3122,927,968
3123,929,967
3124,931,968
3125,934,968
3126,935,967
3127,936,967
3128,936,965
3129,936,963
3130,936,963
3131,937,960
3132,936,960
3133,940,960
3134,943,960
3135,949,957
3136,953,960
3137,954,961
3138,955,958
3139,952,958
3140,953,955
3141,950,952
3142,943,949
3143,940,948
3144,937,948
3145,935,947
3146,932,949
3147,931,953
3148,929,953
3149,930,954
3150,927,949
3151,924,948
3152,920,945
3153,914,945
3154,911,945
3155,907,945
3156,905,946
3157,903,948
3158,903,947
3159,903,948
3160,904,949
3161,904,950
3162,905,949
3163,903,948
3164,904,948
3165,900,946
3166,899,945
3167,899,944
3168,898,942
3169,899,947
3170,898,948
3171,900,950
3172,900,951
3173,901,952
3174,903,954
3175,906,951
3176,907,949
3177,907,945
3178,906,944
3179,907,945
3180,905,946
3181,907,947
3182,906,950
3183,910,953
3184,912,952
3185,916,952
3186,915,952
3187,915,951
3188,915,950
3189,915,948
3190,916,949
3191,917,947
3192,918,948
3193,919,947
3194,922,949
3195,922,950
3196,921,952
3197,920,954
3198,923,953
3199,919,951
3200,922,949
3201,924,945
3202,920,943
3203,918,942
3204,916,944
3205,914,947
3206,917,947
3207,916,951
3208,917,950
3209,915,954
3210,918,949
3211,916,947
3212,914,946
3213,912,946
3214,913,946
3215,910,943
3216,911,944
3217,911,945
3218,910,948
3219,911,947
3220,911,950
3221,911,951
3222,909,952
3223,906,950
3224,905,949
3225,904,944
3226,902,945
3227,900,941
3228,900,943
3229,898,945
3230,899,948
3231,901,950
3232,904,949
3233,905,951
3234,904,950
3235,901,947
3236,897,945
3237,897,944
3238,894,945
3239,892,946
3240,893,943
3241,894,944
3242,895,945
3243,899,946
3244,899,946
3245,899,951
3246,900,951
3247,898,950
3248,899,949
3249,897,947
3250,894,943
3251,892,942
3252,891,942
3253,892,942
3254,891,944
3255,893,946
3256,892,947
3257,896,950
3258,899,948
3259,898,945
3260,896,945
3261,896,944
3262,888,944
3263,888,946
3264,890,944
3265,890,947
3266,892,943
3267,894,944
3268,894,946
3269,895,950
3270,893,949
3271,894,948
3272,896,947
3273,892,946
3274,890,941
3275,892,943
3276,889,940
3277,891,943
3278,892,944
3279,895,945
3280,895,949
3281,897,951
3282,900,950
3283,903,950
3284,906,947
3285,907,944
3286,909,943
3287,911,946
3288,911,947
3289,914,949
3290,918,954
3291,920,959
3292,923,961
3293,928,960
3294,927,957
3295,927,954
3296,925,949
3297,921,944
3298,916,938
3299,912,935
3300,911,933
3301,913,935
3302,916,936
3303,917,938
3304,915,944
3305,916,946
3306,910,946
3307,909,949
3308,905,945
3309,899,945
3310,894,943
3311,892,939
3312,890,939
3313,891,939
3314,893,942
3315,896,942
3316,897,944
3317,897,946
3318,902,943
3319,904,944
3320,908,944
3321,909,941
3322,914,941
3323,922,944
3324,938,946
3325,968,952
3326,1017,959
3327,1086,971
3328,1165,978
3329,1245,980
3330,1310,973
3331,1336,955
3332,1324,928
3333,1261,896
3334,1139,858
3335,1011,825
3336,883,804
3337,755,801
3338,687,811
3339,716,832
3340,773,858
3341,826,881
3342,863,899
3343,876,909
3344,878,918
3345,872,922
3346,868,926
3347,864,929
3348,866,936
3349,870,940
3350,874,942
3351,875,946
3352,876,948
3353,874,948
3354,873,949
3355,873,950
3356,872,952
3357,873,951
3358,873,949
3359,870,950
3360,869,948
3361,874,949
3362,874,952
3363,875,954
3364,876,956
3365,877,958
3366,879,956
3367,878,955
3368,881,953
3369,881,953
3370,881,953
3371,881,951
3372,880,952
3373,883,954
3374,888,956
3375,890,957
3376,891,955
3377,891,959
3378,890,959
3379,892,960
3380,892,959
3381,893,957
3382,887,956
3383,892,956
3384,893,953
3385,890,954
3386,893,954
3387,898,957
3388,902,958
3389,904,961
3390,906,963
3391,906,961
3392,906,961
3393,904,958
3394,906,957
3395,904,957
3396,905,958
3397,904,957
3398,907,960
3399,907,960
3400,913,962
3401,915,962
3402,918,962
3403,918,961
3404,917,961
3405,918,961
3406,919,961
3407,917,961
3408,918,960
3409,919,961
3410,919,961
3411,920,962
3412,918,964
3413,919,966
3414,917,966
3415,920,965
3416,920,964
3417,920,963
3418,919,962
3419,920,961
3420,920,958
3421,920,962
3422,922,963
3423,924,966
3424,924,966
3425,925,968
3426,926,967
3427,927,962
3428,929,962
3429,930,959
3430,932,957
3431,931,956
3432,934,959
3433,937,959
3434,942,960
3435,946,958
3436,950,956
3437,951,957
3438,953,952
3439,950,952
3440,947,952
3441,944,950
3442,939,947
3443,935,948
3444,933,947
3445,929,947
3446,928,947
3447,927,945
3448,923,946
3449,923,945
3450,922,948
3451,920,947
3452,918,946
3453,912,942
3454,910,942
3455,906,940
3456,902,942
3457,898,945
3458,901,946
3459,896,947
3460,897,949
3461,899,946
3462,901,942
3463,901,944
3464,899,943
3465,895,941
3466,896,942
3467,894,943
3468,892,944
3469,897,943
3470,899,943
3471,898,944
3472,899,946
3473,900,948
3474,901,945
3475,901,947
3476,904,948
3477,901,942
3478,903,944
3479,903,940
3480,905,940
3481,906,942
3482,907,944
3483,908,947
3484,910,948
3485,909,950
3486,912,946
3487,913,944
3488,912,944
3489,912,944
3490,914,943
3491,913,943
3492,912,944
3493,913,943
3494,913,943
3495,914,945
3496,918,947
3497,919,948
3498,920,950
3499,920,946
3500,919,944
3501,918,943
3502,915,942
3503,915,941
3504,912,940
3505,912,944
3506,914,942
3507,915,945
3508,914,948
3509,915,948
3510,918,946
3511,915,946
3512,911,944
3513,906,945
3514,903,944
3515,903,944
3516,901,943
3517,899,943
3518,902,943
3519,896,944
3520,900,946
3521,900,946
3522,904,947
3523,905,945
3524,903,945
3525,903,942
3526,901,944
3527,897,941
3528,895,943
3529,895,945
3530,896,944
3531,896,945
3532,896,946
3533,896,947
3534,900,947
3535,899,944
3536,900,944
3537,896,943
3538,895,944
3539,893,943
3540,890,941
3541,891,943
3542,894,943
3543,895,945
3544,895,945
3545,894,946
3546,895,946
3547,893,945
3548,893,943
3549,889,940
3550,891,939
3551,891,940
3552,890,941
3553,889,943
3554,891,943
3555,891,945
3556,892,947
3557,894,947
3558,896,947
3559,894,944
3560,893,943
3561,892,942
3562,891,942
3563,889,943
3564,891,944
3565,890,944
3566,890,943
3567,892,944
3568,893,943
3569,893,946
3570,895,946
3571,895,945
3572,896,947
3573,895,944
3574,892,941
3575,895,942
3576,897,941
3577,899,942
3578,900,946
3579,902,947
3580,908,948
3581,910,949
3582,915,951
3583,915,949
3584,920,952
3585,919,951
3586,921,953
3587,921,955
3588,922,954
3589,923,953
3590,920,949
3591,920,944
3592,917,940
3593,914,938
3594,913,938
3595,913,938
3596,913,938
3597,913,937
3598,911,940
3599,908,938
3600,904,937
3601,900,942
3602,895,941
3603,892,947
3604,888,946
3605,889,945
3606,894,943
3607,893,941
3608,893,941
3609,896,939
3610,894,939
3611,895,941
3612,897,940
3613,899,944
3614,905,940
3615,915,944
3616,931,947
3617,954,953
3618,993,959
3619,1044,968
3620,1116,972
3621,1194,980
3622,1266,974
3623,1316,960
3624,1330,938
3625,1299,913
3626,1213,881
3627,1085,849
3628,957,822
3629,829,805
3630,701,803
3631,696,818
3632,737,839
3633,791,860
3634,835,880
3635,858,897
3636,862,909
3637,856,916
3638,855,921
3639,857,927
3640,862,931
3641,869,937
3642,873,940
3643,875,943
3644,872,945
3645,870,946
3646,868,943
3647,866,943
3648,863,943
3649,862,945
3650,864,946
3651,866,950
3652,868,953
3653,868,955
3654,869,955
3655,870,954
3656,871,951
3657,869,949
3658,870,947
3659,869,947
3660,869,950
3661,872,949
3662,873,952
3663,875,957
3664,878,955
3665,879,956
3666,881,956
3667,881,953
3668,880,954
3669,880,950
3670,879,951
3671,880,952
3672,881,952
3673,884,955
3674,881,955
3675,884,954
3676,889,958
3677,891,960
3678,892,959
3679,894,960
3680,895,958
3681,894,954
3682,897,952
3683,896,951
3684,897,954
3685,897,956
3686,898,957
3687,899,959
3688,900,962
3689,903,962
3690,908,960
3691,907,958
3692,909,958
3693,908,956
3694,907,956
3695,907,957
3696,907,957
3697,908,956
3698,912,958
3699,913,958
3700,916,960
3701,919,964
3702,916,963
3703,915,962
3704,914,964
3705,916,961
3706,916,961
3707,912,958
3708,910,959
3709,913,960
3710,911,963
3711,912,964
3712,918,966
3713,917,968
3714,922,966
3715,922,964
3716,920,965
3717,922,960
3718,919,958
3719,919,959
3720,918,958
3721,919,961
3722,921,963
3723,927,961
3724,930,962
3725,931,962
3726,938,961
3727,939,959
3728,942,956
3729,942,956
3730,942,952
3731,938,950
3732,937,949
3733,938,946
3734,939,948
3735,934,946
3736,934,945
3737,931,951
3738,931,950
3739,927,949
3740,925,945
3741,921,944
3742,921,941
3743,917,938
3744,911,937
3745,906,941
3746,905,942
3747,904,945
3748,902,946
3749,900,946
3750,902,947
3751,903,943
3752,899,945
3753,897,943
3754,894,942
3755,892,941
3756,888,942
3757,891,942
3758,894,942
3759,894,941
3760,894,945
3761,896,948
3762,895,947
3763,897,945
3764,896,945
3765,897,941
3766,895,942
3767,896,940
3768,895,941
3769,895,940
3770,897,943
3771,899,945
3772,900,948
3773,903,949
3774,906,947
3775,907,946
3776,907,943
3777,907,943
3778,906,940
3779,904,941
3780,902,942
3781,906,944
3782,906,945
3783,909,944
3784,913,944
3785,913,943
3786,914,949
3787,914,946
3788,914,946
3789,912,944
3790,913,942
3791,912,940
3792,913,939
3793,912,940
3794,910,940
3795,911,944
3796,910,946
3797,914,947
3798,915,948
3799,914,945
3800,914,944
3801,912,943
3802,911,940
3803,909,940
3804,906,941
3805,905,944
3806,906,941
3807,906,942
3808,908,946
3809,907,944
3810,907,944
3811,906,946
3812,904,944
3813,903,943
3814,902,941
3815,901,941
3816,898,937
3817,898,942
3818,899,939
3819,900,942
3820,898,944
3821,897,946
3822,898,946
3823,898,945
3824,900,942
3825,898,939
3826,899,939
3827,894,938
3828,893,938
3829,893,940
3830,891,942
3831,894,943
3832,891,943
3833,893,945
3834,894,945
3835,892,943
3836,891,944
3837,889,943
3838,888,942
3839,887,940
3840,888,940
3841,890,940
3842,890,940
3843,889,942
3844,888,943
3845,892,944
3846,893,947
3847,892,948
3848,892,944
3849,893,943
3850,892,940
3851,890,937
3852,887,939
3853,886,941
3854,888,944
3855,888,946
3856,892,946
3857,892,945
3858,895,946
3859,895,943
3860,894,942
3861,892,942
3862,890,943
3863,889,943
3864,889,943
3865,888,944
3866,889,943
3867,890,942
3868,892,942
3869,892,944
3870,894,946
3871,893,946
3872,895,946
3873,892,943
3874,891,944
3875,892,942
3876,892,940
3877,895,941
3878,898,942
3879,898,943
3880,902,949
3881,904,948
3882,909,950
3883,912,951
3884,915,951
3885,915,954
3886,918,952
3887,919,954
3888,920,951
3889,922,951
3890,922,948
3891,921,946
3892,918,942
3893,916,938
3894,917,937
3895,915,934
3896,914,936
3897,911,937
3898,911,938
3899,907,938
3900,905,937
3901,903,939
3902,896,941
3903,894,945
3904,896,944
3905,894,944
3906,896,946
3907,897,947
3908,896,943
3909,896,941
3910,896,938
3911,897,936
3912,896,937
3913,897,939
3914,900,941
3915,906,944
3916,911,945
3917,922,947
3918,936,951
3919,968,955
3920,1015,966
3921,1077,974
3922,1151,984
3923,1234,985
3924,1297,978
3925,1340,963
3926,1346,938
3927,1318,905
3928,1244,871
3929,1123,838
3930,995,804
3931,867,781
3932,739,776
3933,703,783
3934,726,806
3935,780,826
3936,830,845
3937,864,864
3938,877,883
3939,874,898
3940,863,910
3941,857,917
3942,859,926
3943,864,929
3944,871,932
3945,876,935
3946,879,936
3947,875,940
3948,871,942
3949,869,945
3950,866,948
3951,865,950
3952,865,952
3953,866,952
3954,869,952
3955,870,950
3956,867,952
3957,867,950
3958,870,951
3959,869,952
3960,869,955
3961,869,952
3962,873,953
3963,872,955
3964,874,955
3965,876,957
3966,880,958
3967,878,957
3968,878,956
3969,880,956
3970,880,954
3971,879,952
3972,880,952
3973,881,955
3974,883,955
3975,883,959
3976,884,959
3977,888,960
3978,890,959
3979,891,955
3980,891,956
3981,891,956
3982,890,955
3983,892,955
3984,894,958
3985,894,962
3986,896,956
3987,900,959
3988,899,960
3989,903,960
3990,904,960
3991,905,961
3992,906,960
3993,906,959
3994,906,957
3995,907,956
3996,910,955
3997,911,956
3998,911,957
3999,914,962
4000,916,963
4001,916,963
4002,919,963
4003,919,962
4004,921,960
4005,921,958
4006,922,958
4007,921,957
4008,919,957
4009,918,960
4010,922,963
4011,923,962
4012,926,964
4013,927,964
4014,927,964
4015,929,962
4016,931,962
4017,931,959
4018,930,960
4019,931,959
4020,931,958
4021,932,960
4022,934,960
4023,934,960
4024,936,962
4025,938,963
4026,941,961
4027,944,960
4028,949,959
4029,948,956
4030,951,954
4031,953,953
4032,956,948
4033,958,950
4034,956,950
4035,958,951
4036,957,951
4037,957,953
4038,956,951
4039,953,947
4040,950,945
4041,944,942
4042,938,943
4043,933,939
4044,928,939
4045,923,941
4046,919,939
4047,918,939
4048,917,941
4049,914,944
4050,911,946
4051,908,945
4052,908,944
4053,905,941
4054,904,937
4055,902,938
4056,901,938
4057,900,941
4058,901,942
4059,899,945
4060,900,944
4061,903,945
4062,904,946
4063,902,943
4064,903,942
4065,903,943
4066,903,941
4067,898,941
4068,901,941
4069,902,941
4070,903,942
4071,905,944
4072,908,945
4073,909,945
4074,910,948
4075,910,945
4076,912,945
4077,910,943
4078,910,942
4079,912,938
4080,915,941
4081,912,941
4082,914,944
4083,914,946
4084,914,946
4085,917,947
4086,919,946
4087,923,943
4088,920,942
4089,919,942
4090,917,941
4091,917,942
4092,916,940
4093,915,943
4094,917,940
4095,917,942
4096,918,944
4097,918,946
4098,919,946
4099,919,945
4100,916,946
4101,915,942
4102,912,940
4103,915,939
4104,914,938
4105,912,940
4106,909,941
4107,912,943
4108,912,947
4109,913,949
4110,912,948
4111,913,945
4112,912,943
4113,909,940
4114,905,940
4115,903,941
4116,903,941
4117,903,942
4118,903,943
4119,904,943
4120,905,943
4121,904,943
4122,905,945
4123,903,943
4124,905,946
4125,904,943
4126,901,938
4127,900,937
4128,899,935
4129,897,938
4130,897,941
4131,898,944
4132,898,944
4133,897,945
4134,897,948
4135,899,942
4136,897,942
4137,899,940
4138,897,936
4139,898,940
4140,893,940
4141,895,945
4142,893,943
4143,895,944
4144,896,943
4145,899,945
4146,897,946
4147,897,943
4148,896,942
4149,893,942
4150,894,941
4151,891,942
4152,893,939
4153,891,940
4154,893,941
4155,890,940
4156,892,946
4157,893,947
4158,894,948
4159,893,946
4160,895,943
4161,894,942
4162,894,938
4163,893,940
4164,891,938
4165,890,940
4166,890,941
4167,892,944
4168,894,946
4169,894,947
4170,897,947
4171,896,945
4172,896,941
4173,896,943
4174,895,941
4175,893,940
4176,895,940
4177,893,942
4178,895,943
4179,897,943
4180,901,943
4181,904,944
4182,907,945
4183,908,948
4184,909,947
4185,911,950
4186,914,952
4187,916,952
4188,919,950
4189,919,949
4190,919,948
4191,921,946
4192,921,941
4193,916,937
4194,915,936
4195,913,930
4196,910,930
4197,910,932
4198,909,935
4199,905,933
4200,903,934
4201,901,938
4202,897,938
4203,897,940
4204,894,941
4205,895,943
4206,894,942
4207,894,941
4208,894,941
4209,894,939
4210,894,936
4211,893,932
4212,895,933
4213,896,935
4214,898,938
4215,903,941
4216,911,947
4217,920,948
4218,942,953
4219,970,955
4220,1016,966
4221,1079,969
4222,1151,976
4223,1225,981
4224,1288,975
4225,1323,960
4226,1327,938
4227,1298,909
4228,1224,873
4229,1108,837
4230,980,806
4231,852,780
4232,745,775
4233,716,784
4234,738,804
4235,784,827
4236,831,845
4237,861,866
4238,871,882
4239,870,896
4240,865,909
4241,857,916
4242,859,925
4243,864,928
4244,869,933
4245,874,935
4246,874,937
4247,874,938
4248,872,938
4249,867,939
4250,866,943
4251,864,947
4252,866,949
4253,868,950
4254,869,950
4255,869,949
4256,865,950
4257,867,949
4258,864,949
4259,865,949
4260,864,950
4261,866,950
4262,869,950
4263,871,951
4264,873,953
4265,875,952
4266,875,955
4267,875,956
4268,877,956
4269,879,954
4270,878,953
4271,876,952
4272,878,948
4273,880,950
4274,880,951
4275,881,953
4276,883,956
4277,886,958
4278,889,958
4279,890,958
4280,894,958
4281,890,957
4282,890,955
4283,892,954
4284,890,952
4285,890,956
4286,891,958
4287,894,957
4288,896,958
4289,900,959
4290,901,959
4291,900,957
4292,900,957
4293,901,956
4294,903,958
4295,901,956
4296,902,955
4297,907,958
4298,906,955
4299,910,955
4300,911,957
4301,914,963
4302,917,963
4303,915,961
4304,916,958
4305,916,960
4306,917,959
4307,918,956
4308,916,955
4309,914,957
4310,915,959
4311,916,962
4312,917,962
4313,917,964
4314,919,964
4315,921,961
4316,921,961
4317,922,960
4318,922,958
4319,922,958
4320,921,959
4321,920,958
4322,924,961
4323,923,961
4324,925,962
4325,928,961
4326,933,959
4327,933,961
4328,935,958
4329,940,956
4330,942,955
4331,944,953
4332,946,951
4333,947,950
4334,950,951
4335,949,949
4336,950,952
4337,946,950
4338,945,948
4339,945,947
4340,942,945
4341,940,940
4342,934,943
4343,930,942
4344,924,939
4345,920,941
4346,917,941
4347,914,944
4348,917,942
4349,915,943
4350,914,942
4351,912,942
4352,909,942
4353,906,940
4354,903,940
4355,902,940
4356,902,939
4357,902,940
4358,897,942
4359,897,940
4360,898,942
4361,899,944
4362,900,946
4363,902,944
4364,903,945
4365,900,944
4366,902,942
4367,905,940
4368,902,939
4369,900,942
4370,900,946
4371,899,946
4372,903,946
4373,904,947
4374,907,946
4375,908,942
4376,910,943
4377,911,942
4378,910,941
4379,911,943
4380,910,943
4381,910,944
4382,909,945
4383,911,944
4384,913,946
4385,918,948
4386,919,947
4387,919,947
4388,920,946
4389,920,944
4390,920,943
4391,920,938
4392,919,939
4393,918,942
4394,920,942
4395,920,946
4396,920,947
4397,921,950
4398,924,950
4399,922,947
4400,922,945
4401,920,943
4402,916,938
4403,917,937
4404,917,938
4405,915,944
4406,916,946
4407,915,947
4408,917,945
4409,919,948
4410,918,948
4411,916,946
4412,913,944
4413,912,943
4414,909,941
4415,908,940
4416,908,939
4417,908,939
4418,909,940
4419,907,943
4420,907,947
4421,906,948
4422,905,949
4423,902,947
4424,901,946
4425,904,940
4426,902,940
4427,900,938
4428,900,939
4429,900,941
4430,902,943
4431,902,944
4432,902,946
4433,904,947
4434,906,947
4435,907,942
4436,905,941
4437,901,943
4438,899,941
4439,897,939
4440,897,940
4441,897,939
4442,897,941
4443,900,941
4444,900,944
4445,899,944
4446,900,946
4447,902,946
4448,901,946
4449,897,945
4450,896,940
4451,898,940
4452,895,937
4453,894,939
4454,894,941
4455,894,942
4456,898,945
4457,898,946
4458,901,946
4459,901,946
4460,900,943
4461,900,942
4462,898,941
4463,896,938
4464,894,940
4465,895,942
4466,893,944
4467,894,942
4468,896,945
4469,898,945
4470,901,944
4471,901,945
4472,900,943
4473,901,944
4474,900,944
4475,899,942
4476,897,938
4477,896,941
4478,898,937
4479,898,939
4480,902,944
4481,903,945
4482,907,949
4483,909,947
4484,911,946
4485,915,945
4486,918,944
4487,917,946
4488,919,949
4489,922,952
4490,923,955
4491,929,958
4492,933,954
4493,932,953
4494,932,949
4495,927,941
4496,923,935
4497,920,934
4498,915,932
4499,914,932
4500,915,931
4501,913,936
4502,918,935
4503,914,938
4504,912,939
4505,911,943
4506,909,944
4507,901,946
4508,900,948
4509,899,945
4510,898,943
4511,899,938
4512,899,935
4513,899,938
4514,900,939
4515,901,940
4516,902,940
4517,901,943
4518,904,946
4519,906,941
4520,911,942
4521,916,940
4522,921,941
4523,928,941
4524,946,943
4525,972,950
4526,1016,961
4527,1070,970
4528,1141,976
4529,1213,979
4530,1278,977
4531,1318,966
4532,1330,943
4533,1309,916
4534,1245,885
4535,1133,853
4536,1005,820
4537,877,798
4538,756,790
4539,717,801
4540,730,821
4541,775,846
4542,823,867
4543,855,885
4544,869,897
4545,870,908
4546,865,912
4547,860,917
4548,856,920
4549,859,928
4550,866,932
4551,872,938
4552,876,943
4553,876,945
4554,874,947
4555,872,945
4556,870,944
4557,871,942
4558,869,944
4559,870,947
4560,870,949
4561,870,949
4562,872,950
4563,870,953
4564,874,951
4565,876,950
4566,877,954
4567,877,949
4568,878,950
4569,877,951
4570,879,952
4571,877,951
4572,882,950
4573,882,950
4574,883,949
4575,883,954
4576,887,954
4577,886,957
4578,890,957
4579,890,957
4580,892,955
4581,889,952
4582,892,950
4583,892,948
4584,893,951
4585,893,953
4586,897,956
4587,899,959
4588,902,958
4589,902,958
4590,904,957
4591,905,957
4592,904,955
4593,904,954
4594,904,953
4595,904,953
4596,904,954
4597,906,954
4598,908,955
4599,911,955
4600,914,957
4601,913,957
4602,918,961
4603,919,959
4604,919,960
4605,920,958
4606,917,957
4607,919,954
4608,919,952
4609,918,954
4610,919,955
4611,920,959
4612,922,960
4613,924,964
4614,927,962
4615,928,962
4616,929,959
4617,929,958
4618,925,957
4619,924,955
4620,924,955
4621,922,958
4622,923,961
4623,924,964
4624,924,962
4625,928,962
4626,929,962
4627,931,959
4628,933,960
4629,935,960
4630,933,958
4631,933,956
4632,936,955
4633,937,955
4634,938,954
4635,942,955
4636,943,954
4637,947,957
4638,948,955
4639,953,952
4640,955,949
4641,956,946
4642,955,942
4643,949,942
4644,948,941
4645,944,942
4646,941,944
4647,935,946
4648,935,944
4649,935,945
4650,935,944
4651,934,942
4652,927,941
4653,923,940
4654,919,939
4655,916,940
4656,915,938
4657,914,939
4658,911,938
4659,910,941
4660,910,944
4661,906,944
4662,908,945
4663,907,946
4664,904,943
4665,903,941
4666,900,937
4667,903,936
4668,903,934
4669,899,938
4670,901,939
4671,906,940
4672,905,943
4673,911,945
4674,910,947
4675,911,942
4676,912,942
4677,909,938
4678,906,940
4679,906,940
4680,906,940
4681,905,939
4682,906,941
4683,911,942
4684,915,942
4685,916,943
4686,919,945
4687,920,945
4688,919,945
4689,921,944
4690,921,943
4691,920,939
4692,921,937
4693,920,938
4694,921,939
4695,920,941
4696,923,945
4697,921,945
4698,924,946
4699,924,945
4700,926,944
4701,927,940
4702,924,939
4703,923,938
4704,921,938
4705,922,939
4706,921,942
4707,918,943
4708,922,943
4709,923,945
4710,925,946
4711,926,942
4712,924,942
4713,923,943
4714,921,940
4715,920,937
4716,917,939
4717,917,937
4718,915,938
4719,915,939
4720,914,941
4721,914,943
4722,913,949
4723,913,944
4724,911,944
4725,911,942
4726,909,939
4727,909,935
4728,906,936
4729,902,938
4730,906,940
4731,904,941
4732,907,945
4733,908,945
4734,909,945
4735,908,942
4736,906,941
4737,902,942
4738,900,940
4739,900,939
4740,898,939
4741,898,940
4742,900,942
4743,899,937
4744,903,940
4745,902,944
4746,904,946
4747,905,945
4748,904,946
4749,899,945
4750,901,943
4751,898,938
4752,897,938
4753,895,938
4754,894,939
4755,894,941
4756,895,943
4757,898,945
4758,899,947
4759,899,944
4760,899,942
4761,899,940
4762,900,942
4763,896,939
4764,898,938
4765,895,941
4766,896,943
4767,897,943
4768,897,943
4769,894,943
4770,898,943
4771,896,942
4772,896,943
4773,898,943
4774,898,943
4775,895,939
4776,896,937
4777,898,939
4778,898,941
4779,899,943
4780,900,944
4781,900,947
4782,904,946
4783,903,944
4784,905,945
4785,905,940
4786,905,941
4787,908,940
4788,909,943
4789,911,945
4790,919,948
4791,923,951
4792,928,954
4793,931,955
4794,934,954
4795,934,952
4796,931,949
4797,929,945
4798,924,940
4799,921,934
4800,917,933
4801,916,931
4802,916,933
4803,918,934
4804,919,936
4805,919,939
4806,918,944
4807,913,943
4808,912,943
4809,909,942
4810,906,941
4811,903,939
4812,897,937
4813,899,938
4814,898,941
4815,900,942
4816,900,942
4817,903,943
4818,906,941
4819,908,941
4820,905,941
4821,910,939
4822,916,941
4823,924,940
4824,933,941
4825,949,946
4826,973,949
4827,1013,955
4828,1066,967
4829,1133,977
4830,1206,983
4831,1272,980
4832,1315,968
4833,1329,949
4834,1310,921
4835,1252,890
4836,1151,857
4837,1023,828
4838,895,806
4839,770,795
4840,720,804
4841,727,823
4842,767,845
4843,815,863
4844,849,882
4845,866,896
4846,870,906
4847,863,916
4848,861,920
4849,859,928
4850,863,933
4851,873,937
4852,876,940
4853,883,943
4854,884,946
4855,882,944
4856,879,946
4857,877,947
4858,875,947
4859,871,949
4860,870,948
4861,873,946
4862,873,948
4863,873,947
4864,874,949
4865,874,953
4866,879,956
4867,881,955
4868,883,952
4869,883,952
4870,884,949
4871,884,949
4872,882,950
4873,883,952
4874,885,955
4875,886,956
4876,886,958
4877,889,957
4878,890,957
4879,890,955
4880,891,953
4881,892,953
4882,892,952
4883,890,952
4884,892,954
4885,893,954
4886,895,955
4887,897,953
4888,899,956
4889,900,955
4890,904,956
4891,903,958
4892,906,957
4893,905,959
4894,906,956
4895,905,953
4896,906,951
4897,908,953
4898,909,954
4899,910,955
4900,912,957
4901,913,959
4902,916,960
4903,918,961
4904,919,957
4905,919,957
4906,920,955
4907,918,955
4908,917,956
4909,917,960
4910,916,959
4911,920,960
4912,922,962
4913,924,959
4914,927,959
4915,926,958
4916,930,958
4917,928,959
4918,925,960
4919,926,958
4920,924,959
4921,925,959
4922,925,959
4923,927,962
4924,926,963
4925,926,965
4926,927,965
4927,928,963
4928,930,962
4929,931,958
4930,933,955
4931,934,957
4932,935,955
4933,937,954
4934,940,957
4935,943,959
4936,950,958
4937,952,957
4938,957,955
4939,955,951
4940,955,951
4941,953,947
4942,951,945
4943,948,946
4944,945,944
4945,941,942
4946,938,942
4947,937,945
4948,934,945
4949,932,946
4950,930,949
4951,929,947
4952,924,945
4953,921,942
4954,918,940
4955,913,938
4956,908,937
4957,904,940
4958,906,944
4959,909,944
4960,908,945
4961,909,946
4962,912,946
4963,910,945
4964,910,943
4965,908,944
4966,904,942
4967,902,941
4968,901,943
4969,900,942
4970,898,944
4971,903,942
4972,902,945
4973,907,945
4974,908,949
4975,910,946
4976,911,946
4977,910,944
4978,909,942
4979,908,941
4980,908,940
4981,910,941
4982,909,943
4983,911,947
4984,913,949
4985,916,950
4986,920,947
4987,922,944
4988,921,946
4989,922,943
4990,921,942
4991,921,943
4992,920,944
4993,918,944
4994,921,945
4995,922,946
4996,922,946
4997,926,947
4998,928,948
4999,927,947
5000,926,947
5001,925,944
5002,925,941
5003,923,941
5004,923,940
5005,922,942
5006,922,945
5007,924,946
5008,925,948
5009,924,947
5010,925,948
5011,926,944
5012,923,944
5013,921,944
5014,920,944
5015,918,943
5016,915,943
5017,912,946
5018,914,944
5019,912,944
5020,912,945
5021,912,946
5022,914,948
5023,912,947
5024,911,946
5025,909,947
5026,907,944
5027,905,939
5028,903,941
5029,901,944
5030,903,945
5031,903,947
5032,904,947
5033,904,949
5034,907,947
5035,907,944
5036,906,945
5037,906,944
5038,905,943
5039,903,945
5040,900,944
5041,899,945
5042,900,945
5043,900,945
5044,902,944
5045,901,946
5046,904,948
5047,903,948
5048,903,946
5049,903,947
5050,902,945
5051,900,943
5052,899,941
5053,898,943
5054,897,945
5055,897,948
5056,898,949
5057,900,952
5058,900,952
5059,903,948
5060,903,948
5061,902,943
5062,900,943
5063,898,942
5064,896,943
5065,894,945
5066,897,945
5067,896,946
5068,897,948
5069,897,947
5070,899,947
5071,901,948
5072,901,947
5073,902,948
5074,902,944
5075,905,942
5076,906,941
5077,906,944
5078,907,945
5079,908,947
5080,912,949
5081,917,951
5082,921,954
5083,922,953
5084,929,952
5085,930,952
5086,931,954
5087,930,955
5088,931,955
5089,930,955
5090,929,953
5091,929,948
5092,926,945
5093,924,943
5094,921,942
5095,921,942
5096,924,944
5097,925,943
5098,920,943
5099,915,944
5100,912,942
5101,913,944
5102,913,942
5103,908,945
5104,904,949
5105,904,950
5106,903,950
5107,902,950
5108,903,948
5109,903,943
5110,902,942
5111,901,940
5112,901,940
5113,901,942
5114,901,945
5115,905,946
5116,909,948
5117,913,949
5118,922,951
5119,932,949
5120,940,949
5121,956,952
5122,981,955
5123,1020,964
5124,1070,971
5125,1138,979
5126,1212,984
5127,1280,981
5128,1326,967
5129,1342,949
5130,1323,925
5131,1251,893
5132,1127,857
5133,999,825
5134,871,809
5135,743,804
5136,707,819
5137,735,843
5138,789,868
5139,834,892
5140,866,911
5141,881,927
5142,885,933
5143,882,935
5144,882,935
5145,879,937
5146,879,940
5147,879,941
5148,876,943
5149,875,944
5150,873,948
5151,871,951
5152,873,951
5153,876,952
5154,878,954
5155,881,954
5156,880,955
5157,881,954
5158,879,953
5159,881,951
5160,881,949
5161,881,950
5162,881,954
5163,882,954
5164,884,957
5165,882,961
5166,886,960
5167,888,960
5168,889,959
5169,889,955
5170,887,954
5171,890,952
5172,886,953
5173,884,956
5174,887,956
5175,890,957
5176,894,962
5177,897,962
5178,899,961
5179,901,959
5180,901,961
5181,901,960
5182,901,959
5183,901,958
5184,900,955
5185,902,958
5186,904,956
5187,906,960
5188,908,958
5189,909,960
5190,911,965
5191,911,963
5192,913,965
5193,915,964
5194,914,959
5195,915,959
5196,915,955
5197,912,957
5198,917,958
5199,916,962
5200,919,963
5201,921,966
5202,922,966
5203,926,965
5204,927,964
5205,930,962
5206,927,959
5207,927,961
5208,927,959
5209,925,962
5210,928,962
5211,926,963
5212,929,966
5213,929,966
5214,931,968
5215,932,969
5216,937,968
5217,935,965
5218,934,964
5219,933,961
5220,935,961
5221,935,960
5222,934,961
5223,937,963
5224,939,966
5225,942,965
5226,947,967
5227,948,962
5228,951,963
5229,954,959
5230,958,955
5231,958,952
5232,958,953
5233,958,953
5234,958,953
5235,957,953
5236,958,950
5237,955,952
5238,955,951
5239,953,952
5240,949,950
5241,944,950
5242,942,950
5243,936,948
5244,933,943
5245,929,943
5246,928,941
5247,928,943
5248,926,946
5249,922,949
5250,923,952
5251,921,950
5252,919,950
5253,917,947
5254,915,947
5255,911,944
5256,911,942
5257,909,943
5258,908,945
5259,909,947
5260,909,949
5261,911,951
5262,912,952
5263,914,949
5264,913,949
5265,911,948
5266,908,945
5267,910,945
5268,910,946
5269,907,949
5270,909,948
5271,911,949
5272,912,949
5273,914,948
5274,914,950
5275,918,949
5276,917,948
5277,917,950
5278,914,949
5279,915,947
5280,915,946
5281,916,947
5282,917,945
5283,919,946
5284,922,949
5285,925,952
5286,926,951
5287,926,950
5288,924,949
5289,925,948
5290,925,946
5291,926,944
5292,923,943
5293,925,948
5294,925,948
5295,925,949
5296,925,950
5297,929,950
5298,928,949
5299,930,950
5300,930,946
5301,929,945
5302,927,947
5303,924,946
5304,925,946
5305,923,948
5306,923,947
5307,924,947
5308,925,948
5309,923,948
5310,925,950
5311,922,949
5312,922,947
5313,921,949
5314,920,947
5315,919,943
5316,919,944
5317,914,945
5318,914,945
5319,916,948
5320,914,950
5321,915,952
5322,916,952
5323,916,950
5324,916,947
5325,916,944
5326,911,942
5327,911,945
5328,910,943
5329,905,947
5330,906,944
5331,905,952
5332,908,951
5333,910,951
5334,913,947
5335,913,948
5336,912,947
5337,910,947
5338,911,948
5339,909,946
5340,907,944
5341,906,945
5342,906,944
5343,906,948
5344,907,948
5345,909,950
5346,909,954
5347,909,952
5348,907,951
5349,908,948
5350,907,946
5351,904,946
5352,903,942
5353,904,945
5354,904,944
5355,903,948
5356,905,948
5357,906,953
5358,906,953
5359,907,952
5360,906,950
5361,906,948
5362,905,944
5363,903,945
5364,903,945
5365,900,947
5366,903,945
5367,902,948
5368,905,951
5369,906,949
5370,906,952
5371,908,952
5372,906,953
5373,907,954
5374,904,948
5375,903,946
5376,903,945
5377,901,947
5378,904,947
5379,902,947
5380,905,952
5381,906,953
5382,910,955
5383,911,957
5384,913,952
5385,915,951
5386,915,946
5387,916,946
5388,917,945
5389,916,949
5390,918,952
5391,924,959
5392,926,961
5393,930,963
5394,935,965
5395,939,963
5396,938,958
5397,937,952
5398,933,949
5399,931,944
5400,925,938
5401,922,937
5402,923,939
5403,925,939
5404,926,941
5405,926,946
5406,924,949
5407,924,950
5408,919,951
5409,917,951
5410,912,950
5411,910,947
5412,907,947
5413,903,946
5414,902,944
5415,901,947
5416,904,948
5417,906,952
5418,906,954
5419,910,952
5420,909,951
5421,911,947
5422,910,944
5423,913,943
5424,913,944
5425,917,946
5426,922,949
5427,929,950
5428,947,957
5429,972,965
5430,1013,975
5431,1074,981
5432,1147,990
5433,1229,992
5434,1294,981
5435,1334,960
5436,1338,930
5437,1300,895
5438,1210,853
5439,1082,815
5440,954,788
5441,826,778
5442,742,784
5443,736,802
5444,772,829
5445,825,849
5446,865,868
5447,887,884
5448,889,897
5449,882,908
5450,873,918
5451,870,925
5452,870,932
5453,877,941
5454,884,946
5455,893,948
5456,892,950
5457,889,948
5458,885,948
5459,880,948
5460,877,949
5461,877,954
5462,875,954
5463,877,957
5464,878,958
5465,880,957
5466,885,959
5467,885,958
5468,883,958
5469,886,957
5470,881,958
5471,883,958
5472,882,958
5473,883,961
5474,883,960
5475,885,960
5476,888,961
5477,891,962
5478,892,962
5479,893,962
5480,894,965
5481,893,963
5482,893,961
5483,895,960
5484,893,958
5485,892,959
5486,894,959
5487,898,963
5488,897,967
5489,898,968
5490,901,969
5491,905,967
5492,908,966
5493,909,961
5494,910,961
5495,909,961
5496,909,961
5497,909,963
5498,909,964
5499,912,967
5500,913,967
5501,914,967
5502,917,968
5503,916,966
5504,917,967
5505,917,964
5506,917,967
5507,921,966
5508,921,965
5509,922,963
5510,924,965
5511,926,967
5512,926,969
5513,929,970
5514,931,973
5515,934,974
5516,934,971
5517,935,967
5518,934,966
5519,934,964
5520,934,963
5521,933,965
5522,932,967
5523,935,970
5524,936,973
5525,937,972
5526,940,973
5527,943,971
5528,942,970
5529,943,965
5530,943,965
5531,943,965
5532,941,966
5533,942,966
5534,947,966
5535,951,966
5536,954,967
5537,954,967
5538,958,969
5539,960,967
5540,964,965
5541,967,962
5542,969,960
5543,970,957
5544,967,954
5545,966,954
5546,967,954
5547,966,953
5548,967,956
5549,964,956
5550,963,957
5551,960,955
5552,957,954
5553,956,947
5554,951,948
5555,945,944
5556,937,945
5557,931,945
5558,930,947
5559,929,947
5560,928,950
5561,928,951
5562,926,953
5563,924,950
5564,922,952
5565,922,949
5566,919,948
5567,916,947
5568,913,946
5569,913,945
5570,910,943
5571,911,948
5572,913,949
5573,914,950
5574,915,954
5575,913,954
5576,915,952
5577,915,948
5578,913,948
5579,914,948
5580,914,943
5581,913,944
5582,913,946
5583,912,950
5584,915,952
5585,918,954
5586,922,954
5587,921,951
5588,921,949
5589,921,951
5590,922,950
5591,921,951
5592,920,948
5593,921,947
5594,924,948
5595,924,949
5596,925,950
5597,926,953
5598,926,955
5599,927,954
5600,926,954
5601,926,953
5602,928,951
5603,928,947
5604,929,946
5605,926,946
5606,927,948
5607,925,950
5608,927,952
5609,930,955
5610,929,955
5611,931,953
5612,931,952
5613,928,951
5614,929,948
5615,925,947
5616,924,949
5617,924,950
5618,926,951
5619,924,949
5620,927,949
5621,925,951
5622,927,953
5623,927,953
5624,921,953
5625,920,950
5626,919,950
5627,917,950
5628,916,948
5629,913,947
5630,914,946
5631,915,948
5632,915,948
5633,916,950
5634,918,954
5635,917,952
5636,915,952
5637,916,948
5638,915,947
5639,914,944
5640,911,946
5641,910,947
5642,908,949
5643,907,950
5644,909,949
5645,909,952
5646,909,951
5647,908,951
5648,908,949
5649,911,950
5650,910,950
5651,906,948
5652,903,947
5653,906,946
5654,907,945
5655,907,947
5656,910,948
5657,909,950
5658,910,955
5659,912,950
5660,910,951
5661,907,949
5662,907,946
5663,906,946
5664,906,944
5665,904,944
5666,906,945
5667,905,949
5668,905,949
5669,907,950
5670,908,952
5671,908,952
5672,907,950
5673,908,945
5674,906,946
5675,906,945
5676,905,948
5677,903,947
5678,901,945
5679,901,948
5680,904,948
5681,905,949
5682,906,949
5683,910,949
5684,909,952
5685,907,950
5686,907,953
5687,907,947
5688,907,946
5689,907,947
5690,909,946
5691,910,949
5692,912,947
5693,913,950
5694,918,955
5695,920,954
5696,921,950
5697,922,951
5698,924,955
5699,926,955
5700,928,958
5701,928,960
5702,932,961
5703,933,961
5704,936,960
5705,937,953
5706,939,950
5707,937,941
5708,933,938
5709,928,937
5710,924,939
5711,923,938
5712,923,939
5713,922,941
5714,922,943
5715,920,944
5716,921,944
5717,918,947
5718,914,952
5719,910,951
5720,908,951
5721,905,947
5722,903,945
5723,905,942
5724,904,942
5725,902,941
5726,904,943
5727,905,945
5728,905,948
5729,909,949
5730,913,951
5731,917,947
5732,920,947
5733,927,946
5734,937,947
5735,957,953
5736,984,959
5737,1029,971
5738,1091,982
5739,1166,989
5740,1241,987
5741,1299,979
5742,1327,956
5743,1318,924
5744,1267,885
5745,1169,845
5746,1041,809
5747,913,782
5748,793,774
5749,749,787
5750,757,811
5751,798,841
5752,844,867
5753,876,890
5754,890,908
5755,892,917
5756,884,921
5757,882,925
5758,880,927
5759,880,933
5760,881,937
5761,883,943
5762,885,948
5763,888,949
5764,887,953
5765,886,953
5766,883,956
5767,885,956
5768,884,953
5769,882,955
5770,881,952
5771,881,956
5772,881,955
5773,881,957
5774,882,957
5775,884,958
5776,887,958
5777,890,960
5778,886,962
5779,890,963
5780,890,961
5781,893,961
5782,890,958
5783,890,955
5784,892,956
5785,893,955
5786,893,959
5787,898,961
5788,897,963
5789,902,964
5790,902,966
5791,906,963
5792,903,962
5793,903,959
5794,902,960
5795,901,957
5796,902,960
5797,905,961
5798,909,962
5799,909,962
5800,914,964
5801,912,964
5802,914,966
5803,915,964
5804,915,965
5805,915,965
5806,916,964
5807,919,960
5808,918,960
5809,918,959
5810,919,961
5811,921,964
5812,921,968
5813,927,968
5814,928,971
5815,929,968
5816,931,967
5817,932,965
5818,930,963
5819,929,960
5820,930,960
5821,929,962
5822,930,967
5823,933,969
5824,935,967
5825,938,969
5826,937,969
5827,939,968
5828,939,965
5829,941,966
5830,938,965
5831,937,963
5832,935,963
5833,937,964
5834,940,962
5835,940,964
5836,942,964
5837,943,969
5838,947,968
5839,949,970
5840,950,967
5841,954,964
5842,954,961
5843,956,956
5844,959,952
5845,960,954
5846,962,958
5847,965,956
5848,967,957
5849,966,959
5850,969,958
5851,968,955
5852,965,951
5853,960,950
5854,958,948
5855,952,949
5856,948,947
5857,944,946
5858,944,947
5859,940,947
5860,939,947
5861,938,949
5862,938,950
5863,933,949
5864,928,950
5865,927,950
5866,927,947
5867,924,946
5868,920,944
5869,916,944
5870,917,944
5871,919,945
5872,917,947
5873,919,951
5874,919,952
5875,921,952
5876,919,949
5877,919,948
5878,918,944
5879,914,944
5880,913,946
5881,911,945
5882,914,946
5883,916,947
5884,920,948
5885,920,948
5886,923,950
5887,924,950
5888,924,950
5889,923,950
5890,922,946
5891,921,945
5892,924,944
5893,924,944
5894,924,943
5895,926,946
5896,927,946
5897,931,951
5898,932,954
5899,934,950
5900,936,950
5901,936,947
5902,934,946
5903,932,944
5904,930,945
5905,930,944
5906,928,946
5907,930,946
5908,933,946
5909,934,947
5910,934,950
5911,937,951
5912,936,948
5913,936,949
5914,935,945
5915,931,944
5916,929,944
5917,929,942
5918,928,943
5919,926,944
5920,928,945
5921,929,947
5922,930,951
5923,931,949
5924,931,947
5925,932,947
5926,929,944
5927,927,944
5928,924,942
5929,922,943
5930,921,944
5931,922,945
5932,923,948
5933,923,946
5934,922,948
5935,923,948
5936,920,948
5937,922,946
5938,922,946
5939,918,946
5940,916,942
5941,916,944
5942,916,942
5943,913,944
5944,914,947
5945,915,947
5946,915,951
5947,919,948
5948,919,947
5949,917,945
5950,915,944
5951,913,941
5952,910,942
5953,910,941
5954,909,944
5955,909,945
5956,912,946
5957,913,948
5958,913,947
5959,913,947
5960,914,946
5961,912,946
5962,910,943
5963,910,945
5964,911,943
5965,909,944
5966,907,943
5967,908,945
5968,908,949
5969,909,949
5970,910,951
5971,913,951
5972,912,946
5973,914,944
5974,909,945
5975,908,942
5976,909,944
5977,908,944
5978,903,944
5979,906,945
5980,908,946
5981,909,948
5982,911,949
5983,912,948
5984,914,950
5985,912,947
5986,913,944
5987,914,943
5988,914,942
5989,916,945
5990,916,944
5991,920,949
5992,920,953
5993,923,955
5994,927,958
5995,930,957
5996,932,957
5997,934,955
5998,936,952
5999,937,950
6000,936,950
6001,936,947
6002,934,944
6003,931,944
6004,931,942
6005,929,940
6006,929,940
6007,931,941
6008,928,939
6009,925,941
6010,923,941
6011,918,940
6012,911,939
6013,914,941
6014,909,941
6015,911,943
6016,910,944
6017,910,945
6018,910,947
6019,912,945
6020,914,944
6021,916,942
6022,916,938
6023,915,939
6024,919,938
6025,925,940
6026,934,944
6027,945,945
6028,967,950
6029,994,957
6030,1033,963
6031,1083,969
6032,1143,973
6033,1205,971
6034,1259,965
6035,1290,950
6036,1293,931
6037,1267,905
6038,1203,878
6039,1105,850
6040,978,827
6041,862,815
6042,779,815
6043,751,825
6044,763,840
6045,802,859
6046,840,873
6047,864,884
6048,877,896
6049,877,905
6050,874,915
6051,871,923
6052,872,931
6053,878,935
6054,883,939
6055,894,942
6056,895,943
6057,893,943
6058,890,941
6059,885,946
6060,881,943
6061,878,943
6062,880,947
6063,881,950
6064,882,949
6065,884,951
6066,885,954
6067,890,952
6068,891,952
6069,888,954
6070,890,953
6071,891,951
6072,889,950
6073,890,950
6074,892,951
6075,894,951
6076,894,955
6077,896,957
6078,897,958
6079,900,960
6080,899,959
6081,900,957
6082,899,954
6083,898,951
6084,898,951
6085,900,953
6086,900,954
6087,902,956
6088,904,958
6089,907,956
6090,908,956
6091,913,957
6092,912,956
6093,912,956
6094,909,958
6095,909,956
6096,909,955
6097,911,953
6098,913,954
6099,915,957
6100,917,958
6101,920,960
6102,923,962
6103,928,961
6104,924,960
6105,929,958
6106,924,956
6107,926,955
6108,925,955
6109,925,954
6110,926,957
6111,925,957
6112,929,957
6113,932,961
6114,935,962
6115,937,961
6116,935,963
6117,935,960
6118,934,963
6119,931,961
6120,933,957
6121,934,957
6122,934,959
6123,934,960
6124,935,957
6125,937,962
6126,939,963
6127,938,962
6128,940,963
6129,940,963
6130,942,960
6131,939,958
6132,939,955
6133,941,956
6134,943,956
6135,943,957
6136,947,958
6137,952,959
6138,957,958
6139,962,956
6140,963,956
6141,963,953
6142,963,952
6143,962,951
6144,960,953
6145,958,954
6146,954,954
6147,956,954
6148,953,953
6149,949,953
6150,952,950
6151,950,950
6152,946,948
6153,943,950
6154,935,947
6155,933,945
6156,930,942
6157,925,941
6158,925,942
6159,923,941
6160,922,945
6161,920,945
6162,919,945
6163,918,947
6164,917,943
6165,914,944
6166,913,943
6167,913,941
6168,909,939
6169,908,940
6170,909,940
6171,909,941
6172,912,943
6173,912,945
6174,916,945
6175,917,943
6176,915,944
6177,916,943
6178,913,943
6179,911,943
6180,914,941
6181,913,941
6182,913,940
6183,914,942
6184,913,943
6185,915,944
6186,917,947
6187,922,947
6188,923,946
6189,924,945
6190,926,943
6191,926,941
6192,926,940
6193,925,943
6194,924,944
6195,925,946
6196,927,946
6197,927,946
6198,929,948
6199,931,945
6200,929,945
6201,930,942
6202,930,942
6203,930,942
6204,929,943
6205,929,941
6206,925,943
6207,924,944
6208,929,943
6209,932,942
6210,931,944
6211,933,944
6212,933,945
6213,930,943
6214,927,941
6215,928,941
6216,925,940
6217,924,940
6218,923,941
6219,924,940
6220,925,944
6221,922,944
6222,925,947
6223,923,947
6224,923,944
6225,921,944
6226,919,941
6227,919,939
6228,917,940
6229,914,939
6230,909,942
6231,910,944
6232,912,943
6233,912,944
6234,916,944
6235,916,943
6236,914,941
6237,913,943
6238,914,942
6239,909,941
6240,908,939
6241,903,942
6242,906,941
6243,906,940
6244,906,941
6245,906,945
6246,906,946
6247,909,945
6248,905,944
6249,906,943
6250,907,940
6251,909,938
6252,905,939
6253,905,941
6254,904,942
6255,901,944
6256,901,945
6257,902,945
6258,906,946
6259,908,943
6260,906,942
6261,907,941
6262,905,941
6263,903,940
6264,901,939
6265,900,943
6266,902,941
6267,904,942
6268,905,943
6269,905,944
6270,906,945
6271,906,946
6272,906,945
6273,905,944
6274,903,940
6275,898,939
6276,900,939
6277,898,939
6278,900,941
6279,900,942
6280,901,945
6281,903,946
6282,907,946
6283,909,944
6284,910,942
6285,909,943
6286,908,941
6287,907,941
6288,904,940
6289,904,941
6290,902,944
6291,905,944
6292,909,946
6293,911,948
6294,914,947
6295,920,948
6296,920,946
6297,922,947
6298,923,947
6299,924,949
6300,927,949
6301,927,948
6302,931,950
6303,932,947
6304,930,948
6305,931,947
6306,930,945
6307,929,943
6308,927,939
6309,924,937
6310,922,935
6311,919,933
6312,920,933
6313,916,935
6314,914,939
6315,911,942
6316,912,943
6317,909,946
6318,910,945
6319,909,945
6320,906,941
6321,906,941
6322,908,938
6323,904,937
6324,905,938
6325,904,938
6326,906,939
6327,910,939
6328,916,942
6329,920,941
6330,926,945
6331,938,948
6332,952,950
6333,970,951
6334,997,954
6335,1037,956
6336,1085,964
6337,1143,967
6338,1205,970
6339,1257,965
6340,1289,957
6341,1299,936
6342,1274,913
6343,1213,884
6344,1111,853
6345,983,822
6346,861,805
6347,777,802
6348,747,813
6349,759,832
6350,792,853
6351,829,874
6352,858,891
6353,872,904
6354,875,913
6355,874,921
6356,873,925
6357,873,930
6358,879,932
6359,883,933
6360,883,934
6361,884,935
6362,880,939
6363,881,940
6364,879,943
6365,882,947
6366,881,951
6367,882,949
6368,881,949
6369,880,951
6370,879,947
6371,880,946
6372,880,943
6373,880,944
6374,881,947
6375,883,947
6376,888,949
6377,889,954
6378,892,954
6379,894,954
6380,893,950
6381,891,951
6382,891,951
6383,889,950
6384,890,950
6385,889,950
6386,892,950
6387,894,952
6388,895,951
6389,896,954
6390,902,954
6391,903,956
6392,903,958
6393,906,956
6394,907,953
6395,907,951
6396,906,950
6397,906,948
6398,906,952
6399,906,954
6400,908,956
6401,908,957
6402,911,958
6403,915,957
6404,917,955
6405,920,955
6406,918,955
6407,914,954
6408,918,954
6409,920,954
6410,919,957
6411,921,953
6412,923,956
6413,927,956
6414,927,958
6415,929,961
6416,931,960
6417,929,959
6418,928,960
6419,927,957
6420,928,954
6421,929,954
6422,931,956
6423,928,955
6424,930,959
6425,930,961
6426,934,965
6427,934,965
6428,934,962
6429,931,962
6430,931,960
6431,928,957
6432,930,957
6433,930,956
6434,932,958
6435,931,961
6436,934,961
6437,938,959
6438,940,960
6439,944,959
6440,946,954
6441,947,955
6442,947,956
6443,950,955
6444,950,953
6445,951,952
6446,955,950
6447,957,949
6448,955,949
6449,957,947
6450,958,948
6451,952,948
6452,949,947
6453,948,945
6454,945,942
6455,940,941
6456,936,937
6457,932,937
6458,927,941
6459,925,942
6460,924,943
6461,921,943
6462,918,944
6463,919,945
6464,916,942
6465,916,943
6466,912,942
6467,910,942
6468,909,940
6469,907,938
6470,906,942
6471,907,941
6472,909,941
6473,909,944
6474,908,946
6475,909,947
6476,910,944
6477,907,944
6478,909,941
6479,908,939
6480,910,938
6481,908,940
6482,911,941
6483,911,942
6484,914,945
6485,915,945
6486,917,944
6487,918,944
6488,918,944
6489,917,945
6490,917,943
6491,917,944
6492,918,942
6493,916,943
6494,922,943
6495,921,943
6496,924,942
6497,925,946
6498,927,947
6499,927,949
6500,929,946
6501,929,946
6502,927,943
6503,926,941
6504,924,941
6505,925,938
6506,925,943
6507,923,942
6508,922,945
6509,928,945
6510,928,944
6511,930,944
6512,928,943
6513,928,940
6514,927,941
6515,925,942
6516,920,943
6517,921,941
6518,922,941
6519,920,940
6520,921,941
6521,921,943
6522,922,943
6523,919,944
6524,920,944
6525,918,946
6526,918,943
6527,916,939
6528,915,939
6529,912,938
6530,912,939
6531,912,943
6532,914,945
6533,913,945
6534,913,946
6535,913,945
6536,911,940
6537,909,942
6538,906,941
6539,909,941
6540,903,941
6541,901,940
6542,900,942
6543,903,940
6544,904,942
6545,905,943
6546,908,946
6547,905,943
6548,903,943
6549,906,945
6550,905,944
6551,906,942
6552,904,941
6553,903,940
6554,902,940
6555,903,940
6556,902,942
6557,903,944
6558,902,947
6559,902,946
6560,906,946
6561,903,943
6562,902,940
6563,901,940
6564,901,939
6565,899,939
6566,899,943
6567,898,944
6568,900,944
6569,900,944
6570,902,946
6571,904,944
6572,901,940
6573,902,942
6574,900,942
6575,898,943
6576,897,941
6577,897,942
6578,897,945
6579,897,940
6580,900,943
6581,902,941
6582,904,946
6583,906,946
6584,904,945
6585,905,942
6586,903,944
6587,903,942
6588,903,941
6589,905,942
6590,906,942
6591,908,943
6592,911,944
6593,913,948
6594,917,948
6595,919,952
6596,924,951
6597,927,951
6598,927,951
6599,927,951
6600,932,950
6601,931,948
6602,932,951
6603,928,944
6604,927,942
6605,926,939
6606,927,937
6607,925,936
6608,925,936
6609,923,936
6610,920,940
6611,918,938
6612,916,940
6613,913,938
6614,911,940
6615,908,940
6616,908,944
6617,905,946
6618,903,946
6619,905,945
6620,904,944
6621,905,943
6622,904,941
6623,903,938
6624,906,935
6625,906,938
6626,908,939
6627,909,941
6628,917,944
6629,922,945
6630,931,948
6631,945,947
6632,963,951
6633,991,952
6634,1027,959
6635,1077,967
6636,1136,973
6637,1193,975
6638,1243,968
6639,1268,954
6640,1266,931
6641,1231,902
6642,1159,870
6643,1059,842
6644,942,817
6645,842,802
6646,782,801
6647,768,814
6648,786,833
6649,819,854
6650,847,872
6651,867,889
6652,874,903
6653,872,913
6654,869,922
6655,870,928
6656,873,929
6657,876,934
6658,879,933
6659,883,934
6660,883,938
6661,882,939
6662,876,943
6663,876,945
6664,878,946
6665,878,950
6666,879,950
6667,879,953
6668,880,949
6669,882,949
6670,881,949
6671,878,951
6672,878,950
6673,877,949
6674,879,952
6675,882,953
6676,884,950
6677,887,953
6678,888,957
6679,889,957
6680,889,957
6681,892,956
6682,892,954
6683,891,954
6684,890,950
6685,889,951
6686,891,954
6687,893,954
6688,892,958
6689,895,960
6690,898,960
6691,898,961
6692,903,959
6693,904,956
6694,902,956
6695,903,955
6696,902,955
6697,901,955
6698,904,955
6699,905,956
6700,908,956
6701,907,959
6702,911,960
6703,913,962
6704,915,959
6705,915,963
6706,915,959
6707,916,956
6708,917,955
6709,917,953
6710,915,954
6711,917,955
6712,921,957
6713,922,960
6714,922,963
6715,925,965
6716,927,963
6717,927,961
6718,928,959
6719,929,957
6720,928,955
6721,927,956
6722,927,961
6723,930,960
6724,930,961
6725,933,962
6726,936,964
6727,937,963
6728,937,962
6729,937,960
6730,937,962
6731,939,962
6732,937,961
6733,935,959
6734,938,960
6735,939,958
6736,942,961
6737,945,960
6738,948,961
6739,952,962
6740,953,962
6741,958,962
6742,958,960
6743,959,954
6744,961,951
6745,962,948
6746,963,948
6747,963,950
6748,961,949
6749,961,950
6750,959,947
6751,957,947
6752,953,946
6753,950,945
6754,946,943
6755,941,942
6756,937,941
6757,934,940
6758,930,940
6759,927,941
6760,926,941
6761,923,943
6762,922,945
6763,922,946
6764,920,944
6765,920,944
6766,918,944
6767,915,941
6768,915,940
6769,912,939
6770,910,940
6771,908,943
6772,908,944
6773,909,946
6774,909,947
6775,913,946
6776,912,944
6777,912,943
6778,909,941
6779,908,942
6780,908,942
6781,909,942
6782,908,942
6783,908,942
6784,911,944
6785,914,943
6786,916,945
6787,917,947
6788,916,944
6789,917,945
6790,917,943
6791,915,944
6792,915,941
6793,915,939
6794,917,942
6795,917,944
6796,916,943
6797,918,945
6798,919,948
6799,923,948
6800,923,946
6801,923,945
6802,927,940
6803,924,941
6804,924,940
6805,922,942
6806,924,941
6807,921,943
6808,924,944
6809,925,945
6810,927,945
6811,928,945
6812,929,943
6813,926,942
6814,926,941
6815,922,941
6816,920,942
6817,918,943
6818,921,944
6819,920,943
6820,919,944
6821,917,943
6822,921,946
6823,921,949
6824,920,946
6825,919,945
6826,916,943
6827,915,943
6828,912,939
6829,912,940
6830,911,942
6831,910,943
6832,910,945
6833,911,946
6834,913,946
6835,914,947
6836,911,943
6837,911,943
6838,909,942
6839,908,943
6840,904,941
6841,905,941
6842,903,943
6843,904,939
6844,906,943
6845,904,941
6846,907,943
6847,906,947
6848,906,944
6849,905,946
6850,904,942
6851,904,942
6852,901,940
6853,901,939
6854,900,940
6855,901,941
6856,898,944
6857,900,947
6858,903,949
6859,904,946
6860,903,945
6861,903,944
6862,903,943
6863,902,940
6864,900,940
6865,897,942
6866,897,944
6867,895,945
6868,898,945
6869,903,944
6870,903,946
6871,906,944
6872,905,945
6873,905,944
6874,903,944
6875,901,942
6876,900,943
6877,895,942
6878,898,941
6879,897,942
6880,898,943
6881,899,946
6882,899,948
6883,903,948
6884,903,945
6885,902,944
6886,904,945
6887,903,942
6888,902,940
6889,902,940
6890,901,942
6891,904,943
6892,904,946
6893,907,947
6894,907,948
6895,911,947
6896,914,943
6897,915,946
6898,918,944
6899,918,946
6900,920,947
6901,920,950
6902,922,956
6903,927,957
6904,931,956
6905,934,953
6906,934,951
6907,936,947
6908,934,940
6909,928,938
6910,926,934
6911,921,933
6912,921,932
6913,918,933
6914,921,934
6915,919,937
6916,919,941
6917,918,943
6918,915,944
6919,912,946
6920,913,945
6921,909,944
6922,905,942
6923,903,939
6924,903,939
6925,903,938
6926,903,941
6927,903,942
6928,905,944
6929,908,945
6930,911,946
6931,918,947
6932,919,944
6933,923,942
6934,929,945
6935,938,947
6936,953,951
6937,981,956
6938,1029,966
6939,1089,976
6940,1165,983
6941,1238,985
6942,1297,978
6943,1333,959
6944,1334,931
6945,1297,896
6946,1215,855
6947,1093,815
6948,965,785
6949,837,770
6950,758,777
6951,743,796
6952,771,826
6953,819,850
6954,859,874
6955,882,893
6956,890,903
6957,887,912
6958,880,917
6959,876,923
6960,873,926
6961,877,933
6962,880,938
6963,887,941
6964,887,945
6965,886,948
6966,885,947
6967,885,952
6968,882,951
6969,880,953
6970,879,951
6971,880,951
6972,876,950
6973,878,948
6974,880,949
6975,880,954
6976,881,955
6977,883,958
6978,883,962
6979,887,963
6980,889,960
6981,889,959
6982,887,956
6983,888,954
6984,888,954
6985,888,953
6986,890,959
6987,890,958
6988,891,958
6989,894,959
6990,895,961
6991,898,960
6992,898,958
6993,899,960
6994,897,961
6995,904,958
6996,900,956
6997,902,957
6998,899,958
6999,902,959
7000,907,960
7001,908,961
7002,908,964
7003,912,963
7004,912,963
7005,915,963
7006,914,960
7007,916,957
7008,915,956
7009,915,955
7010,916,957
7011,917,957
7012,918,963
7013,922,963
7014,926,963
7015,928,965
7016,932,964
7017,929,962
7018,929,960
7019,928,963
7020,929,961
7021,928,962
7022,929,963
7023,930,962
7024,935,961
7025,935,965
7026,934,966
7027,936,969
7028,937,968
7029,937,968
7030,936,963
7031,940,963
7032,940,962
7033,942,960
7034,939,961
7035,943,961
7036,944,963
7037,947,965
7038,948,968
7039,952,968
7040,952,964
7041,956,963
7042,957,960
7043,957,956
7044,958,956
7045,960,956
7046,963,956
7047,964,955
7048,967,953
7049,971,954
7050,971,953
7051,968,953
7052,967,951
7053,963,949
7054,957,950
7055,950,945
7056,945,943
7057,945,940
7058,941,939
7059,938,942
7060,936,946
7061,933,946
7062,932,949
7063,930,948
7064,927,944
7065,923,942
7066,920,942
7067,920,942
7068,915,942
7069,914,940
7070,911,943
7071,911,942
7072,911,944
7073,914,945
7074,914,945
7075,915,947
7076,913,947
7077,916,949
7078,913,944
7079,912,943
7080,911,941
7081,911,938
7082,910,943
7083,911,944
7084,912,948
7085,914,949
7086,915,950
7087,917,950
7088,920,948
7089,921,946
7090,920,944
7091,919,945
7092,917,942
7093,919,944
7094,918,947
7095,919,948
7096,919,945
7097,921,947
7098,924,948
7099,927,947
7100,926,949
7101,927,948
7102,928,948
7103,927,947
7104,926,946
7105,925,943
7106,926,944
7107,926,944
7108,928,943
7109,928,946
7110,931,946
7111,931,948
7112,929,948
7113,928,948
7114,927,946
7115,928,942
7116,925,940
7117,926,939
7118,923,943
7119,924,945
7120,923,945
7121,925,947
7122,926,945
7123,925,945
7124,924,944
7125,925,944
7126,923,945
7127,919,946
7128,921,943
7129,918,942
7130,917,944
7131,918,939
7132,917,941
7133,918,941
7134,917,945
7135,918,947
7136,918,945
7137,918,946
7138,919,944
7139,917,941
7140,915,941
7141,912,938
7142,910,941
7143,908,942
7144,910,943
7145,910,945
7146,911,946
7147,912,947
7148,911,946
7149,913,945
7150,912,941
7151,910,942
7152,907,941
7153,907,943
7154,906,942
7155,905,945
7156,906,946
7157,906,946
7158,909,945
7159,910,944
7160,910,943
7161,912,944
7162,910,941
7163,908,943
7164,908,943
7165,905,943
7166,906,942
7167,903,942
7168,907,942
7169,905,943
7170,905,943
7171,911,946
7172,908,943
7173,907,947
7174,907,942
7175,906,942
7176,906,940
7177,903,940
7178,902,942
7179,903,942
7180,904,944
7181,906,946
7182,907,947
7183,906,944
7184,907,942
7185,908,943
7186,908,939
7187,906,937
7188,907,940
7189,908,942
7190,908,941
7191,907,942
7192,909,945
7193,912,944
7194,913,946
7195,917,945
7196,916,945
7197,917,946
7198,918,944
7199,919,943
7200,922,943
7201,923,944
7202,924,947
7203,926,949
7204,928,953
7205,935,956
7206,937,959
7207,940,956
7208,939,949
7209,939,945
7210,937,938
7211,930,933
7212,928,930
7213,923,930
7214,921,935
7215,921,936
7216,927,940
7217,927,942
7218,924,941
7219,922,942
7220,918,942
7221,913,942
7222,913,941
7223,908,943
7224,905,939
7225,905,938
7226,906,940
7227,909,939
7228,910,940
7229,911,943
7230,914,943
7231,914,944
7232,916,944
7233,915,944
7234,920,940
7235,926,941
7236,934,941
7237,950,944
7238,970,951
7239,1012,960
7240,1065,971
7241,1141,980
7242,1218,984
7243,1293,979
7244,1341,962
7245,1360,940
7246,1344,912
7247,1283,878
7248,1181,846
7249,1053,814
7250,925,796
7251,797,788
7252,725,795
7253,731,814
7254,778,836
7255,829,861
7256,867,878
7257,886,893
7258,887,905
7259,879,914
7260,874,920
7261,867,925
7262,870,930
7263,878,935
7264,883,942
7265,887,945
7266,892,950
7267,891,952
7268,886,949
7269,884,948
7270,883,949
7271,881,948
7272,879,949
7273,877,947
7274,876,952
7275,878,952
7276,880,955
7277,884,956
7278,887,955
7279,886,957
7280,890,956
7281,888,958
7282,889,955
7283,890,954
7284,892,955
7285,890,953
7286,889,956
7287,890,955
7288,893,955
7289,893,957
7290,898,961
7291,902,961
7292,901,961
7293,901,959
7294,904,956
7295,903,954
7296,902,953
7297,903,953
7298,904,953
7299,905,954
7300,907,958
7301,909,961
7302,911,960
7303,915,962
7304,917,961
7305,917,959
7306,918,959
7307,918,956
7308,917,956
7309,915,957
7310,917,958
7311,920,960
7312,919,957
7313,920,960
7314,925,962
7315,927,961
7316,930,962
7317,929,962
7318,930,962
7319,931,960
7320,932,958
7321,932,956
7322,933,960
7323,932,959
7324,933,963
7325,934,967
7326,934,968
7327,936,968
7328,936,967
7329,936,967
7330,938,961
7331,936,961
7332,935,958
7333,936,962
7334,935,963
7335,935,964
7336,936,965
7337,938,965
7338,938,965
7339,943,967
7340,942,964
7341,944,966
7342,947,959
7343,951,958
7344,954,956
7345,955,950
7346,959,952
7347,962,953
7348,964,952
7349,964,954
7350,963,955
7351,963,953
7352,958,949
7353,957,949
7354,951,946
7355,949,944
7356,945,944
7357,941,940
7358,938,943
7359,935,945
7360,931,944
7361,927,944
7362,924,948
7363,924,949
7364,923,946
7365,921,946
7366,919,943
7367,917,940
7368,916,939
7369,913,939
7370,911,942
7371,910,944
7372,911,946
7373,909,948
7374,909,948
7375,914,947
7376,910,945
7377,911,945
7378,910,941
7379,908,942
7380,908,940
7381,908,942
7382,909,942
7383,907,943
7384,912,944
7385,913,945
7386,918,948
7387,918,950
7388,919,948
7389,915,949
7390,915,945
7391,914,947
7392,916,944
7393,915,941
7394,917,942
7395,919,943
7396,920,945
7397,922,947
7398,927,950
7399,928,951
7400,929,949
7401,930,949
7402,931,945
7403,929,944
7404,925,942
7405,925,943
7406,921,945
7407,923,945
7408,926,946
7409,927,944
7410,926,946
7411,931,948
7412,933,946
7413,931,947
7414,929,946
7415,928,942
7416,926,940
7417,925,940
7418,921,940
7419,922,942
7420,919,945
7421,921,947
7422,923,947
7423,925,947
7424,925,942
7425,922,943
7426,920,941
7427,919,939
7428,916,939
7429,913,940
7430,911,943
7431,913,943
7432,914,944
7433,915,945
7434,914,944
7435,914,945
7436,916,948
7437,914,946
7438,913,943
7439,911,941
7440,909,939
7441,909,939
7442,908,942
7443,907,942
7444,907,947
7445,906,948
7446,906,949
7447,909,951
7448,907,946
7449,906,942
7450,909,942
7451,907,938
7452,906,940
7453,905,941
7454,903,942
7455,905,944
7456,905,945
7457,905,943
7458,906,945
7459,907,946
7460,905,945
7461,905,945
7462,904,945
7463,901,943
7464,900,940
7465,898,939
7466,901,940
7467,900,941
7468,903,941
7469,904,944
7470,905,947
7471,905,948
7472,905,948
7473,904,946
7474,904,943
7475,900,940
7476,898,942
7477,900,939
7478,899,942
7479,899,942
7480,902,944
7481,904,945
7482,906,948
7483,909,948
7484,911,944
7485,910,946
7486,911,945
7487,909,944
7488,908,942
7489,909,943
7490,908,941
7491,913,943
7492,917,946
7493,922,952
7494,926,954
7495,930,959
7496,933,958
7497,937,958
7498,938,955
7499,940,947
7500,937,943
7501,932,939
7502,930,937
7503,926,937
7504,923,938
7505,923,939
7506,923,940
7507,925,942
7508,924,941
7509,922,941
7510,918,941
7511,913,940
7512,909,942
7513,904,941
7514,904,941
7515,902,942
7516,902,942
7517,901,944
7518,904,945
7519,904,945
7520,904,947
7521,902,946
7522,905,943
7523,904,940
7524,905,937
7525,911,936
7526,918,937
7527,924,942
7528,938,949
7529,956,952
7530,982,960
7531,1025,967
7532,1081,976
7533,1149,979
7534,1225,981
7535,1288,975
7536,1332,961
7537,1344,942
7538,1321,917
7539,1256,888
7540,1140,854
7541,1012,828
7542,884,809
7543,756,806
7544,704,818
7545,727,839
7546,776,864
7547,825,886
7548,858,903
7549,873,911
7550,873,916
7551,869,924
7552,867,931
7553,870,936
7554,875,943
7555,882,947
7556,883,946
7557,881,947
7558,881,946
7559,879,943
7560,876,946
7561,874,945
7562,869,948
7563,874,950
7564,875,952
7565,879,954
7566,881,953
7567,881,954
7568,884,953
7569,884,955
7570,884,952
7571,883,952
7572,882,953
7573,884,950
7574,885,952
7575,886,952
7576,888,951
7577,890,954
7578,891,957
7579,892,959
7580,892,957
7581,891,958
7582,895,956
7583,894,953
7584,893,952
7585,893,951
7586,893,952
7587,892,955
7588,896,955
7589,901,958
7590,903,959
7591,905,961
7592,908,956
7593,906,956
7594,907,956
7595,908,956
7596,904,956
7597,905,954
7598,906,954
7599,907,957
7600,906,957
7601,912,958
7602,915,960
7603,917,959
7604,920,958
7605,921,958
7606,921,959
7607,922,959
7608,923,958
7609,923,955
7610,924,958
7611,924,957
7612,923,958
7613,926,960
7614,928,961
7615,930,967
7616,927,964
7617,928,964
7618,929,961
7619,929,960
7620,927,959
7621,926,958
7622,927,961
7623,928,961
7624,929,964
7625,932,966
7626,934,964
7627,934,965
7628,935,963
7629,937,964
7630,935,960
7631,935,960
7632,935,959
7633,936,958
7634,937,957
7635,941,958
7636,944,958
7637,949,956
7638,953,959
7639,958,962
7640,961,960
7641,959,957
7642,957,953
7643,954,949
7644,954,945
7645,952,945
7646,951,946
7647,950,947
7648,948,948
7649,944,948
7650,942,948
7651,946,948
7652,946,944
7653,940,943
7654,935,942
7655,932,942
7656,926,945
7657,922,941
7658,921,946
7659,919,946
7660,916,943
7661,919,943
7662,915,942
7663,915,943
7664,913,943
7665,914,944
7666,909,943
7667,912,942
7668,910,940
7669,911,939
7670,911,939
7671,909,941
7672,908,943
7673,907,945
7674,906,946
7675,909,949
7676,908,946
7677,907,944
7678,909,942
7679,909,940
7680,909,937
7681,906,941
7682,906,941
7683,906,945
7684,909,945
7685,909,946
7686,912,948
7687,917,947
7688,918,944
7689,917,945
7690,919,944
7691,913,942
7692,915,943
7693,915,943
7694,915,943
7695,917,945
7696,920,944
7697,919,945
7698,924,947
7699,927,947
7700,930,946
7701,930,945
7702,930,944
7703,928,941
7704,926,942
7705,925,941
7706,925,943
7707,925,944
7708,923,946
7709,924,946
7710,924,949
7711,926,947
7712,926,946
7713,928,942
7714,926,941
7715,926,941
7716,923,940
7717,922,942
7718,921,942
7719,920,944
7720,918,943
7721,921,944
7722,921,944
7723,921,946
7724,919,946
7725,916,944
7726,917,943
7727,916,942
7728,915,939
7729,912,936
7730,909,941
7731,912,940
7732,912,941
7733,910,945
7734,910,947
7735,909,949
7736,907,946
7737,907,946
7738,908,943
7739,908,939
7740,906,939
7741,904,937
7742,903,942
7743,904,942
7744,905,945
7745,903,945
7746,906,944
7747,908,945
7748,908,944
7749,907,943
7750,903,942
7751,903,943
7752,902,943
7753,900,940
7754,900,939
7755,901,943
7756,902,939
7757,904,944
7758,905,944
7759,903,949
7760,905,948
7761,903,946
7762,902,945
7763,901,941
7764,898,941
7765,898,938
7766,896,938
7767,896,939
7768,895,944
7769,900,945
7770,901,946
7771,903,948
7772,904,946
7773,903,944
7774,904,941
7775,902,941
7776,900,942
7777,898,940
7778,897,941
7779,897,940
7780,898,942
7781,900,943
7782,899,943
7783,899,944
7784,902,946
7785,900,945
7786,903,945
7787,903,941
7788,904,940
7789,902,938
7790,904,939
7791,905,941
7792,906,944
7793,910,946
7794,915,947
7795,918,949
7796,922,948
7797,925,951
7798,926,949
7799,928,950
7800,926,949
7801,930,948
7802,931,949
7803,931,949
7804,933,946
7805,929,940
7806,926,941
7807,925,939
7808,922,936
7809,924,938
7810,922,938
7811,921,937
7812,917,935
7813,916,936
7814,915,935
7815,914,937
7816,911,940
7817,909,944
7818,907,946
7819,904,944
7820,902,947
7821,903,947
7822,903,940
7823,901,939
7824,900,937
7825,901,935
7826,900,936
7827,902,940
7828,906,942
7829,907,944
7830,916,944
7831,924,946
7832,934,946
7833,946,948
7834,964,949
7835,995,956
7836,1037,963
7837,1093,971
7838,1161,975
7839,1231,977
7840,1291,971
7841,1330,956
7842,1344,936
7843,1323,913
7844,1260,881
7845,1145,852
7846,1017,822
7847,889,801
7848,761,799
7849,693,812
7850,713,831
7851,765,854
7852,818,875
7853,854,895
7854,869,910
7855,874,919
7856,867,924
7857,865,928
7858,865,927
7859,870,931
7860,874,929
7861,879,935
7862,880,935
7863,878,940
7864,876,943
7865,875,947
7866,875,946
7867,876,948
7868,876,946
7869,878,945
7870,876,945
7871,873,945
7872,875,946
7873,874,948
7874,874,948
7875,876,950
7876,877,952
7877,878,951
7878,880,950
7879,883,951
7880,883,950
7881,885,951
7882,884,955
7883,882,953
7884,885,951
7885,887,949
7886,885,951
7887,886,953
7888,886,954
7889,887,956
7890,888,955
7891,893,959
7892,893,958
7893,893,956
7894,895,954
7895,896,952
7896,897,953
7897,895,952
7898,895,954
7899,896,958
7900,898,959
7901,900,957
7902,903,958
7903,904,958
7904,909,956
7905,908,956
7906,907,959
7907,909,956
7908,908,958
7909,907,955
7910,909,955
7911,911,955
7912,911,954
7913,915,957
7914,919,957
7915,920,961
7916,922,960
7917,922,960
7918,922,957
7919,924,956
7920,924,955
7921,923,954
7922,922,954
7923,922,957
7924,925,960
7925,926,963
7926,928,965
7927,931,964
7928,931,960
7929,931,962
7930,932,958
7931,932,961
7932,931,957
7933,928,957
7934,930,957
7935,933,959
7936,933,957
7937,938,958
7938,938,961
7939,941,962
7940,944,960
7941,945,959
7942,947,958
7943,951,953
7944,952,950
7945,955,948
7946,956,950
7947,957,949
7948,959,950
7949,959,952
7950,958,949
7951,954,949
7952,955,945
7953,950,944
7954,946,942
7955,941,944
7956,935,942
7957,931,942
7958,930,940
7959,927,939
7960,923,941
7961,920,941
7962,919,942
7963,915,945
7964,916,944
7965,913,944
7966,912,942
7967,910,940
7968,909,937
7969,907,937
7970,905,939
7971,904,942
7972,905,947
7973,904,945
7974,903,946
7975,909,945
7976,908,944
7977,908,941
7978,905,942
7979,904,940
7980,902,941
7981,903,941
7982,901,942
7983,904,941
7984,904,942
7985,906,944
7986,904,943
7987,907,945
7988,910,945
7989,910,946
7990,910,944
7991,910,941
7992,909,939
7993,909,937
7994,908,940
7995,911,942
7996,914,944
7997,916,947
7998,917,946
7999,921,948
8000,921,946
8001,921,943
8002,922,942
8003,921,940
8004,919,941
8005,917,941
8006,918,942
8007,918,943
8008,920,941
8009,920,945
8010,919,944
8011,921,947
8012,922,943
8013,920,944
8014,919,942
8015,917,942
8016,918,939
8017,914,940
8018,916,940
8019,915,941
8020,916,942
8021,914,944
8022,916,946
8023,915,947
8024,918,944
8025,915,941
8026,914,940
8027,911,941
8028,910,937
8029,907,941
8030,905,942
8031,907,943
8032,907,943
8033,907,944
8034,907,945
8035,909,945
8036,908,942
8037,908,943
8038,904,941
8039,902,943
8040,903,942
8041,901,940
8042,901,940
8043,903,940
8044,902,943
8045,901,944
8046,899,948
8047,900,948
8048,899,946
8049,898,944
8050,903,943
8051,900,939
8052,899,941
8053,896,940
8054,897,940
8055,897,941
8056,898,946
8057,899,946
8058,900,946
8059,902,946
8060,904,946
8061,900,945
8062,897,942
8063,896,943
8064,896,939
8065,893,939
8066,895,942
8067,895,940
8068,895,943
8069,896,946
8070,898,944
8071,898,948
8072,899,948
8073,899,944
8074,896,942
8075,898,941
8076,895,939
8077,895,938
8078,893,938
8079,893,941
8080,894,944
8081,896,946
8082,897,949
8083,896,946
8084,901,946
8085,900,946
8086,900,941
8087,898,942
8088,898,939
8089,894,939
8090,896,943
8091,898,942
8092,900,945
8093,902,945
8094,905,946
8095,907,949
8096,910,948
8097,909,950
8098,912,948
8099,913,948
8100,917,948
8101,915,947
8102,919,948
8103,923,951
8104,926,954
8105,930,954
8106,928,951
8107,930,950
8108,927,944
8109,922,940
8110,919,934
8111,918,931
8112,917,930
8113,915,932
8114,915,934
8115,915,935
8116,912,940
8117,912,944
8118,910,944
8119,911,947
8120,907,945
8121,905,945
8122,901,942
8123,896,943
8124,895,941
8125,893,941
8126,896,939
8127,897,940
8128,898,941
8129,901,940
8130,900,942
8131,906,944
8132,906,943
8133,910,947
8134,912,944
8135,918,943
8136,926,946
8137,946,950
8138,976,957
8139,1029,967
8140,1098,980
8141,1185,986
8142,1270,983
8143,1334,969
8144,1362,942
8145,1344,905
8146,1271,863
8147,1143,819
8148,1015,787
8149,887,770
8150,759,775
8151,709,791
8152,744,820
8153,799,845
8154,849,870
8155,882,888
8156,889,900
8157,886,912
8158,875,921
8159,870,924
8160,867,929
8161,872,934
8162,876,937
8163,880,940
8164,881,942
8165,883,946
8166,879,948
8167,878,952
8168,877,953
8169,876,955
8170,876,952
8171,875,949
8172,875,947
8173,875,949
8174,873,949
8175,871,951
8176,873,954
8177,873,956
8178,877,958
8179,882,958
8180,885,957
8181,883,957
8182,884,954
8183,882,956
8184,882,955
8185,881,956
8186,881,956
8187,882,956
8188,883,958
8189,887,957
8190,890,957
8191,891,961
8192,893,960
8193,896,959
8194,893,960
8195,895,959
8196,895,957
8197,894,957
8198,896,957
8199,897,956
8200,899,958
8201,901,959
8202,899,962
8203,904,963
8204,906,963
8205,907,961
8206,909,958
8207,908,957
8208,907,958
8209,907,957
8210,910,959
8211,910,960
8212,910,963
8213,915,964
8214,916,962
8215,921,962
8216,924,962
8217,926,963
8218,924,961
8219,924,962
8220,925,961
8221,926,960
8222,925,959
8223,926,960
8224,928,961
8225,928,961
8226,930,965
8227,932,967
8228,935,967
8229,936,967
8230,938,962
8231,938,962
8232,937,958
8233,938,960
8234,936,961
8235,935,964
8236,936,964
8237,939,963
8238,942,964
8239,943,965
8240,946,961
8241,950,961
8242,952,962
8243,954,961
8244,955,958
8245,959,957
8246,961,956
8247,963,953
8248,965,953
8249,966,951
8250,966,953
8251,968,954
8252,967,952
8253,963,952
8254,960,949
8255,955,946
8256,951,944
8257,948,944
8258,942,944
8259,937,944
8260,936,946
8261,934,945
8262,931,947
8263,929,947
8264,928,945
8265,925,944
8266,923,942
8267,919,943
8268,914,944
8269,912,943
8270,910,944
8271,909,945
8272,909,945
8273,910,944
8274,908,948
8275,907,948
8276,907,949
8277,906,948
8278,907,946
8279,909,944
8280,908,943
8281,907,942
8282,907,942
8283,907,945
8284,905,947
8285,908,949
8286,910,950
8287,913,949
8288,916,946
8289,916,946
8290,917,945
8291,914,945
8292,914,946
8293,914,946
8294,913,948
8295,916,949
8296,917,947
8297,919,948
8298,922,949
8299,923,951
8300,924,950
8301,924,953
8302,924,950
8303,920,946
8304,924,944
8305,923,944
8306,920,945
8307,921,946
8308,920,947
8309,923,950
8310,925,952
8311,926,949
8312,928,948
8313,927,950
8314,925,946
8315,924,947
8316,920,946
8317,920,944
8318,919,945
8319,921,943
8320,920,945
8321,919,945
8322,918,946
8323,918,948
8324,919,947
8325,920,949
8326,918,947
8327,919,944
8328,916,943
8329,914,943
8330,911,942
8331,911,943
8332,910,945
8333,912,946
8334,911,949
8335,911,946
8336,914,946
8337,912,947
8338,911,945
8339,908,944
8340,906,944
8341,904,942
8342,905,944
8343,905,943
8344,905,943
8345,906,946
8346,908,944
8347,909,947
8348,909,946
8349,908,949
8350,905,949
8351,904,945
8352,904,942
8353,902,941
8354,899,943
8355,901,943
8356,899,943
8357,900,947
8358,900,948
8359,902,950
8360,903,946
8361,902,946
8362,903,943
8363,902,944
8364,901,943
8365,899,945
8366,898,944
8367,898,942
8368,899,941
8369,901,944
8370,901,945
8371,900,948
8372,903,946
8373,902,950
8374,901,947
8375,901,946
8376,900,943
8377,899,941
8378,898,941
8379,899,941
8380,898,945
8381,897,949
8382,899,947
8383,901,948
8384,904,948
8385,903,944
8386,904,944
8387,903,942
8388,900,943
8389,901,943
8390,901,944
8391,904,945
8392,908,944
8393,912,945
8394,915,946
8395,919,949
8396,920,952
8397,923,954
8398,926,956
8399,926,958
8400,926,958
8401,928,953
8402,929,954
8403,930,950
8404,932,948
8405,929,945
8406,925,944
8407,924,939
8408,923,941
8409,924,940
8410,924,937
8411,924,936
8412,922,937
8413,918,937
8414,916,940
8415,913,942
8416,911,945
8417,910,946
8418,907,948
8419,907,948
8420,907,946
8421,906,947
8422,905,943
8423,902,942
8424,903,941
8425,902,940
8426,902,944
8427,902,944
8428,905,944
8429,906,945
8430,910,946
8431,917,948
8432,925,949
8433,936,951
8434,956,956
8435,994,963
8436,1048,970
8437,1121,976
8438,1203,980
8439,1285,976
8440,1339,964
8441,1361,944
8442,1341,912
8443,1278,877
8444,1162,843
8445,1034,812
8446,906,791
8447,778,788
8448,724,805
8449,737,824
8450,784,848
8451,832,874
8452,864,891
8453,879,909
8454,881,916
8455,877,924
8456,875,931
8457,872,935
8458,877,940
8459,879,941
8460,880,942
8461,880,943
8462,878,946
8463,875,946
8464,874,949
8465,872,952
8466,872,956
8467,874,956
8468,876,956
8469,876,953
8470,877,952
8471,878,950
8472,879,951
8473,877,949
8474,878,954
8475,877,955
8476,878,958
8477,882,959
8478,883,961
8479,885,959
8480,887,957
8481,887,956
8482,887,956
8483,887,958
8484,887,956
8485,888,956
8486,889,957
8487,890,958
8488,891,960
8489,893,959
8490,897,962
8491,896,963
8492,898,961
8493,899,963
8494,900,960
8495,900,959
8496,902,955
8497,901,956
8498,904,955
8499,903,958
8500,905,960
8501,906,962
8502,910,965
8503,911,964
8504,913,963
8505,914,964
8506,914,962
8507,916,960
8508,917,959
8509,918,959
8510,920,963
8511,920,962
8512,922,960
8513,926,963
8514,922,966
8515,926,965
8516,927,966
8517,928,965
8518,928,964
8519,930,961
8520,930,959
8521,929,960
8522,930,961
8523,932,963
8524,927,967
8525,932,969
8526,933,967
8527,936,968
8528,939,970
8529,936,967
8530,935,962
8531,934,961
8532,932,964
8533,933,963
8534,936,963
8535,937,964
8536,941,965
8537,945,964
8538,949,967
8539,949,968
8540,955,964
8541,958,963
8542,959,959
8543,960,955
8544,959,954
8545,959,951
8546,957,950
8547,957,950
8548,954,953
8549,953,953
8550,950,955
8551,949,956
8552,948,952
8553,945,951
8554,940,949
8555,937,945
8556,931,945
8557,927,948
8558,921,946
8559,919,945
8560,917,947
8561,916,947
8562,919,950
8563,917,950
8564,918,945
8565,914,948
8566,914,948
8567,910,947
8568,903,945
8569,905,944
8570,903,943
8571,904,943
8572,907,946
8573,905,947
8574,907,947
8575,907,952
8576,910,951
8577,909,948
8578,909,948
8579,908,945
8580,905,942
8581,906,944
8582,905,943
8583,902,947
8584,905,951
8585,906,949
8586,911,950
8587,913,952
8588,917,950
8589,914,949
8590,916,947
8591,916,948
8592,917,947
8593,917,947
8594,916,947
8595,917,947
8596,919,946
8597,920,950
8598,921,952
8599,922,953
8600,923,953
8601,923,951
8602,926,947
8603,925,948
8604,926,945
8605,925,944
8606,925,942
8607,924,945
8608,923,950
8609,924,951
8610,926,954
8611,924,953
8612,927,952
8613,926,949
8614,925,949
8615,923,945
8616,923,945
8617,920,945
8618,919,944
8619,921,948
8620,920,948
8621,923,948
8622,923,950
8623,923,952
8624,919,950
8625,917,949
8626,917,948
8627,914,948
8628,912,946
8629,911,945
8630,911,943
8631,911,944
8632,911,943
8633,914,947
8634,915,949
8635,914,951
8636,915,949
8637,914,952
8638,913,951
8639,912,949
8640,907,944
8641,902,943
8642,901,945
8643,900,948
8644,901,949
8645,901,948
8646,906,949
8647,906,951
8648,909,948
8649,907,947
8650,907,949
8651,907,948
8652,905,945
8653,901,945
8654,899,946
8655,900,943
8656,896,946
8657,899,947
8658,899,949
8659,901,949
8660,903,951
8661,904,950
8662,903,949
8663,901,947
8664,899,944
8665,900,942
8666,899,943
8667,898,943
8668,898,949
8669,897,951
8670,900,949
8671,901,949
8672,903,949
8673,902,947
8674,901,946
8675,899,945
8676,898,945
8677,896,944
8678,898,945
8679,895,945
8680,897,948
8681,901,946
8682,902,949
8683,904,947
8684,904,950
8685,905,950
8686,903,949
8687,904,946
8688,904,944
8689,903,945
8690,903,944
8691,906,944
8692,912,949
8693,914,949
8694,917,953
8695,922,955
8696,923,956
8697,924,955
8698,928,958
8699,927,956
8700,930,956
8701,929,956
8702,929,955
8703,929,953
8704,929,951
8705,928,949
8706,927,945
8707,927,944
8708,928,941
8709,927,941
8710,927,940
8711,926,939
8712,920,943
8713,917,942
8714,913,945
8715,910,946
8716,912,947
8717,910,946
8718,908,948
8719,906,949
8720,905,948
8721,903,947
8722,903,947
8723,903,945
8724,903,945
8725,903,942
8726,902,942
8727,904,946
8728,908,945
8729,911,946
8730,917,949
8731,928,953
8732,943,955
8733,962,956
8734,989,959
8735,1034,966
8736,1091,974
8737,1162,980
8738,1234,983
8739,1299,979
8740,1335,964
8741,1346,944
8742,1318,914
8743,1242,880
8744,1115,847
8745,987,819
8746,859,808
8747,731,807
8748,703,823
8749,733,845
8750,787,867
8751,835,887
8752,862,903
8753,874,915
8754,876,924
8755,871,932
8756,870,934
8757,871,938
8758,879,943
8759,882,942
8760,886,944
8761,884,944
8762,880,946
8763,877,949
8764,876,952
8765,876,954
8766,878,957
8767,883,957
8768,882,956
8769,883,953
8770,884,953
8771,885,954
8772,885,954
8773,881,956
8774,880,958
8775,882,957
8776,883,957
8777,883,960
8778,887,959
8779,887,961
8780,889,958
8781,890,962
8782,892,959
8783,892,960
8784,893,957
8785,893,955
8786,892,955
8787,892,959
8788,894,960
8789,894,963
8790,895,965
8791,899,965
8792,898,964
8793,900,962
8794,904,959
8795,905,957
8796,906,955
8797,907,957
8798,907,961
8799,907,963
8800,907,961
8801,913,962
8802,913,966
8803,915,967
8804,915,965
8805,917,965
8806,919,964
8807,917,962
8808,917,960
8809,920,960
8810,921,959
8811,922,961
8812,924,964
8813,926,967
8814,928,967
8815,930,969
8816,932,967
8817,931,964
8818,931,966
8819,929,965
8820,927,965
8821,926,964
8822,927,965
8823,927,966
8824,931,966
8825,931,966
8826,933,967
8827,935,969
8828,935,970
8829,936,970
8830,934,967
8831,936,967
8832,935,966
8833,935,965
8834,934,964
8835,937,964
8836,939,965
8837,943,968
8838,948,967
8839,952,966
8840,957,967
8841,959,961
8842,961,959
8843,960,957
8844,958,957
8845,956,955
8846,951,954
8847,949,955
8848,944,957
8849,942,955
8850,941,953
8851,942,953
8852,939,953
8853,937,953
8854,935,952
8855,932,951
8856,928,949
8857,924,949
8858,924,948
8859,919,949
8860,918,950
8861,914,952
8862,911,954
8863,911,953
8864,911,955
8865,910,950
8866,909,948
8867,907,948
8868,908,947
8869,906,946
8870,904,948
8871,903,950
8872,905,952
8873,908,951
8874,907,951
8875,908,952
8876,910,951
8877,910,954
8878,909,953
8879,910,950
8880,910,949
8881,910,947
8882,912,950
8883,911,947
8884,912,949
8885,913,953
8886,916,956
8887,918,956
8888,921,953
8889,922,951
8890,922,951
8891,921,947
8892,917,950
8893,918,948
8894,917,950
8895,919,952
8896,921,952
8897,924,954
8898,924,952
8899,928,954
8900,926,953
8901,926,953
8902,925,953
8903,926,951
8904,925,951
8905,924,949
8906,924,947
8907,923,951
8908,923,950
8909,923,951
8910,923,954
8911,924,955
8912,926,955
8913,926,953
8914,924,953
8915,924,949
8916,924,945
8917,920,946
8918,919,946
8919,919,950
8920,920,953
8921,919,955
8922,919,956
8923,919,955
8924,920,955
8925,921,952
8926,919,951
8927,917,949
8928,915,949
8929,912,949
8930,911,949
8931,911,951
8932,912,951
8933,913,952
8934,912,955
8935,913,953
8936,914,952
8937,912,951
8938,910,951
8939,908,950
8940,905,949
8941,903,948
8942,902,947
8943,903,948
8944,902,949
8945,905,951
8946,905,954
8947,905,955
8948,905,956
8949,905,952
8950,906,950
8951,904,947
8952,902,947
8953,899,947
8954,898,947
8955,898,951
8956,897,953
8957,896,953
8958,899,953
8959,902,954
8960,903,951
8961,902,953
8962,902,950
8963,898,948
8964,899,947
8965,896,949
8966,895,950
8967,895,949
8968,900,949
8969,898,950
8970,898,951
8971,900,954
8972,901,956
8973,899,954
8974,897,952
8975,897,951
8976,894,948
8977,897,945
8978,896,946
8979,896,947
8980,895,950
8981,896,952
8982,896,956
8983,898,956
8984,901,957
8985,904,954
8986,904,952
8987,905,950
8988,905,948
8989,907,949
8990,905,947
8991,907,951
8992,909,954
8993,912,955
8994,917,957
8995,922,958
8996,925,959
8997,926,960
8998,928,961
8999,930,964
9000,930,958
9001,930,958
9002,927,955
9003,928,954
9004,924,948
9005,921,946
9006,919,944
9007,921,946
9008,923,944
9009,921,945
9010,923,946
9011,920,948
9012,917,948
9013,913,946
9014,908,947
9015,905,946
9016,901,948
9017,899,951
9018,896,952
9019,898,954
9020,901,952
9021,901,950
9022,902,947
9023,902,946
9024,901,947
9025,903,946
9026,902,947
9027,906,948
9028,909,949
9029,920,949
9030,931,951
9031,947,959
9032,973,962
9033,1008,968
9034,1063,977
9035,1130,984
9036,1206,985
9037,1272,981
9038,1321,964
9039,1343,944
9040,1322,914
9041,1262,885
9042,1155,857
9043,1027,830
9044,899,814
9045,771,809
9046,708,817
9047,720,832
9048,762,856
9049,810,874
9050,845,892
9051,860,907
9052,865,919
9053,862,925
9054,861,933
9055,862,939
9056,868,939
9057,877,941
9058,878,944
9059,882,946
9060,879,946
9061,879,949
9062,875,952
9063,871,953
9064,868,954
9065,871,955
9066,870,955
9067,874,957
9068,875,959
9069,879,958
9070,877,960
9071,878,958
9072,879,955
9073,878,955
9074,878,956
9075,878,959
9076,878,960
9077,881,960
9078,883,963
9079,884,963
9080,886,964
9081,887,963
9082,886,959
9083,886,959
9084,887,958
9085,888,956
9086,887,959
9087,888,963
9088,890,962
9089,892,965
9090,891,965
9091,897,965
9092,898,964
9093,896,962
9094,899,964
9095,901,963
9096,898,962
9097,897,960
9098,899,960
9099,902,961
9100,903,960
9101,907,964
9102,907,965
9103,908,967
9104,913,969
9105,913,966
9106,915,965
9107,914,961
9108,915,959
9109,916,961
9110,915,963
9111,912,965
9112,915,969
9113,918,968
9114,922,969
9115,926,967
9116,923,967
9117,923,965
9118,925,965
9119,924,967
9120,923,966
9121,922,964
9122,922,964
9123,922,964
9124,926,966
9125,928,968
9126,929,970
9127,930,971
9128,933,971
9129,932,970
9130,932,967
9131,932,966
9132,933,964
9133,933,960
9134,931,962
9135,935,966
9136,937,969
9137,936,968
9138,942,969
9139,947,969
9140,950,965
9141,954,962
9142,956,960
9143,955,957
9144,955,956
9145,956,955
9146,953,954
9147,954,957
9148,953,955
9149,952,955
9150,950,952
9151,949,954
9152,948,954
9153,944,951
9154,942,952
9155,938,951
9156,935,950
9157,930,946
9158,926,946
9159,923,945
9160,920,946
9161,919,949
9162,916,952
9163,916,954
9164,914,953
9165,912,951
9166,910,949
9167,911,948
9168,908,945
9169,905,943
9170,904,944
9171,903,948
9172,903,950
9173,902,949
9174,904,951
9175,905,950
9176,907,951
9177,905,949
9178,906,948
9179,906,948
9180,905,947
9181,904,947
9182,903,946
9183,903,946
9184,904,945
9185,909,949
9186,910,950
9187,913,953
9188,913,953
9189,911,955
9190,913,952
9191,914,950
9192,914,947
9193,913,945
9194,913,944
9195,914,946
9196,914,949
9197,916,948
9198,917,952
9199,918,956
9200,920,956
9201,923,950
9202,921,950
9203,922,947
9204,923,945
9205,921,947
9206,918,949
9207,920,949
9208,917,948
9209,921,950
9210,923,952
9211,924,949
9212,926,950
9213,927,951
9214,923,952
9215,921,950
9216,919,948
9217,918,947
9218,918,946
9219,919,946
9220,919,947
9221,919,949
9222,916,949
9223,918,952
9224,919,952
9225,918,951
9226,916,951
9227,915,947
9228,910,947
9229,910,945
9230,909,945
9231,909,946
9232,909,948
9233,910,950
9234,908,953
9235,912,953
9236,913,952
9237,912,951
9238,910,950
9239,910,951
9240,907,950
9241,904,949
9242,902,948
9243,902,949
9244,902,948
9245,904,950
9246,907,951
9247,905,952
9248,906,953
9249,905,952
9250,905,954
9251,905,951
9252,902,948
9253,900,946
9254,900,945
9255,899,946
9256,899,947
9257,900,951
9258,902,951
9259,901,954
9260,903,952
9261,902,947
9262,902,950
9263,901,948
9264,896,949
9265,896,947
9266,893,949
9267,896,949
9268,895,952
9269,898,949
9270,898,949
9271,899,950
9272,900,952
9273,900,951
9274,901,952
9275,898,952
9276,898,949
9277,896,946
9278,895,947
9279,894,949
9280,898,946
9281,900,951
9282,902,951
9283,902,955
9284,903,956
9285,906,950
9286,905,950
9287,907,948
9288,905,948
9289,907,947
