'sample #','MLII','V1'
0,967,1034
1,967,1034
2,967,1034
3,967,1034
4,967,1034
5,967,1034
6,967,1034
7,967,1034
8,966,1034
9,968,1034
10,964,1035
11,963,1031
12,960,1027
13,959,1031
14,961,1035
15,967,1039
16,967,1037
17,962,1034
18,960,1031
19,956,1034
20,959,1039
21,962,1040
22,961,1040
23,959,1038
24,957,1037
25,957,1037
26,963,1041
27,963,1043
28,963,1041
29,962,1040
30,959,1038
31,959,1039
32,960,1041
33,962,1042
34,965,1041
35,963,1040
36,961,1036
37,958,1038
38,957,1040
39,965,1044
40,964,1041
41,960,1037
42,958,1035
43,955,1036
44,956,1040
45,957,1042
46,959,1038
47,957,1035
48,956,1032
49,953,1033
50,958,1034
51,961,1034
52,963,1034
53,963,1032
54,958,1029
55,959,1028
56,962,1030
57,964,1033
58,966,1031
59,962,1029
60,960,1023
61,959,1026
62,960,1028
63,966,1030
64,966,1028
65,965,1025
66,958,1022
67,961,1022
68,966,1024
69,970,1025
70,970,1020
71,968,1018
72,966,1014
73,965,1013
74,969,1012
75,971,1015
76,973,1014
77,972,1011
78,970,1007
79,969,1004
80,969,1004
81,977,1009
82,977,1007
83,977,1005
84,974,1003
85,976,1003
86,979,1003
87,982,1001
88,984,1002
89,984,999
90,985,997
91,984,995
92,989,995
93,992,999
94,993,999
95,989,997
96,994,998
97,992,998
98,996,1002
99,1000,1003
100,1002,1001
101,1000,1001
102,996,1002
103,996,1004
104,999,1013
105,1002,1017
106,1000,1020
107,996,1019
108,994,1023
109,993,1026
110,995,1032
111,996,1038
112,996,1040
113,987,1040
114,987,1040
115,984,1043
116,987,1043
117,990,1046
118,989,1044
119,982,1040
120,980,1037
121,978,1039
122,981,1041
123,984,1044
124,982,1041
125,979,1038
126,975,1037
127,979,1038
128,978,1042
129,980,1046
130,981,1043
131,979,1040
132,975,1037
133,975,1040
134,981,1039
135,982,1043
136,982,1041
137,982,1042
138,979,1041
139,980,1042
140,981,1045
141,982,1046
142,982,1041
143,981,1042
144,978,1039
145,979,1040
146,980,1042
147,983,1044
148,984,1044
149,982,1041
150,982,1039
151,981,1040
152,982,1042
153,989,1045
154,990,1040
155,989,1036
156,983,1039
157,981,1039
158,982,1039
159,988,1038
160,989,1035
161,988,1034
162,985,1033
163,986,1035
164,983,1035
165,986,1034
166,983,1030
167,985,1027
168,985,1025
169,984,1025
170,985,1026
171,987,1030
172,987,1029
173,986,1030
174,983,1027
175,983,1030
176,983,1032
177,986,1034
178,984,1033
179,981,1031
180,979,1028
181,977,1033
182,979,1037
183,981,1040
184,983,1038
185,984,1033
186,982,1031
187,982,1033
188,983,1038
189,982,1042
190,984,1041
191,981,1040
192,980,1036
193,979,1037
194,981,1038
195,979,1042
196,983,1041
197,980,1038
198,980,1038
199,978,1040
200,980,1046
201,982,1048
202,984,1048
203,981,1046
204,981,1045
205,982,1048
206,986,1049
207,987,1051
208,990,1047
209,994,1042
210,1002,1035
211,1015,1030
212,1031,1028
213,1054,1030
214,1083,1029
215,1113,1023
216,1152,1013
217,1195,1007
218,1240,1003
219,1280,1005
220,1307,1014
221,1313,1029
222,1295,1041
223,1250,1042
224,1187,1046
225,1120,1054
226,1050,1066
227,986,1076
228,945,1076
229,941,1073
230,952,1067
231,967,1059
232,973,1047
233,971,1039
234,967,1033
235,966,1036
236,971,1038
237,974,1042
238,966,1043
239,967,1041
240,962,1041
241,961,1044
242,963,1047
243,965,1046
244,959,1040
245,960,1041
246,957,1039
247,957,1041
248,959,1043
249,961,1045
250,959,1042
251,957,1043
252,952,1042
253,949,1046
254,950,1046
255,959,1050
256,961,1048
257,960,1043
258,960,1039
259,957,1039
260,955,1041
261,962,1044
262,961,1043
263,960,1040
264,960,1037
265,955,1039
266,958,1044
267,960,1045
268,962,1044
269,960,1038
270,957,1038
271,959,1037
272,961,1037
273,965,1041
274,964,1039
275,964,1038
276,963,1033
277,968,1032
278,970,1036
279,971,1039
280,970,1036
281,970,1034
282,968,1028
283,969,1029
284,974,1030
285,976,1031
286,979,1028
287,976,1025
288,976,1024
289,975,1023
290,976,1026
291,980,1026
292,981,1023
293,978,1022
294,977,1015
295,976,1018
296,981,1016
297,982,1018
298,986,1017
299,986,1012
300,984,1007
301,987,1009
302,987,1010
303,992,1012
304,992,1011
305,994,1006
306,989,1005
307,993,1005
308,996,1006
309,1001,1009
310,1002,1009
311,1000,1005
312,1001,1004
313,1003,1003
314,1006,1007
315,1009,1008
316,1009,1009
317,1005,1004
318,1000,1006
319,1000,1007
320,1003,1015
321,1003,1014
322,1001,1015
323,1000,1012
324,995,1012
325,995,1019
326,995,1024
327,995,1029
328,990,1030
329,987,1027
330,981,1030
331,981,1032
332,981,1039
333,985,1041
334,986,1043
335,978,1044
336,976,1043
337,980,1046
338,979,1050
339,978,1050
340,981,1049
341,978,1046
342,975,1046
343,973,1048
344,972,1052
345,975,1054
346,979,1053
347,976,1051
348,974,1048
349,972,1049
350,975,1051
351,981,1051
352,981,1049
353,982,1046
354,979,1044
355,979,1048
356,981,1052
357,983,1054
358,984,1048
359,980,1046
360,979,1043
361,980,1046
362,979,1049
363,980,1051
364,984,1047
365,983,1044
366,981,1044
367,979,1045
368,981,1045
369,984,1048
370,981,1046
371,978,1040
372,972,1037
373,972,1039
374,979,1041
375,979,1043
376,980,1041
377,978,1039
378,978,1036
379,978,1039
380,980,1042
381,982,1044
382,982,1044
383,978,1040
384,978,1037
385,977,1039
386,980,1041
387,985,1045
388,987,1043
389,984,1043
390,979,1044
391,982,1042
392,981,1042
393,987,1042
394,992,1043
395,989,1040
396,984,1042
397,985,1046
398,987,1046
399,991,1047
400,988,1045
401,989,1041
402,989,1040
403,987,1045
404,989,1047
405,989,1047
406,989,1045
407,987,1042
408,983,1039
409,984,1041
410,984,1045
411,984,1048
412,987,1045
413,986,1042
414,982,1039
415,982,1042
416,985,1044
417,987,1047
418,989,1043
419,985,1040
420,980,1041
421,984,1040
422,981,1044
423,988,1043
424,988,1041
425,983,1042
426,983,1041
427,982,1040
428,987,1043
429,991,1046
430,995,1042
431,999,1036
432,1004,1033
433,1016,1034
434,1034,1034
435,1057,1036
436,1082,1033
437,1112,1028
438,1146,1020
439,1186,1010
440,1230,1004
441,1271,1008
442,1299,1010
443,1311,1025
444,1300,1038
445,1261,1046
446,1207,1050
447,1147,1057
448,1084,1065
449,1021,1069
450,977,1072
451,959,1072
452,963,1073
453,977,1065
454,984,1054
455,986,1046
456,987,1043
457,986,1044
458,986,1045
459,984,1045
460,983,1046
461,979,1046
462,968,1042
463,974,1041
464,973,1044
465,975,1045
466,972,1047
467,968,1042
468,965,1038
469,965,1040
470,967,1044
471,968,1044
472,972,1045
473,967,1039
474,964,1040
475,963,1043
476,966,1045
477,970,1043
478,970,1041
479,968,1040
480,964,1039
481,962,1039
482,964,1038
483,970,1040
484,970,1039
485,967,1038
486,965,1038
487,965,1038
488,968,1040
489,972,1040
490,972,1039
491,972,1037
492,970,1036
493,969,1039
494,971,1041
495,975,1043
496,977,1040
497,973,1040
498,973,1038
499,973,1042
500,979,1041
501,984,1045
502,984,1044
503,983,1041
504,980,1041
505,980,1040
506,982,1043
507,981,1042
508,982,1043
509,988,1039
510,984,1035
511,983,1033
512,985,1035
513,989,1038
514,991,1034
515,988,1031
516,991,1029
517,992,1028
518,995,1030
519,993,1029
520,995,1026
521,995,1020
522,992,1018
523,994,1017
524,994,1016
525,996,1016
526,998,1016
527,993,1013
528,993,1010
529,998,1009
530,1000,1010
531,1005,1012
532,1004,1012
533,1003,1004
534,1002,1002
535,1000,1003
536,1004,1002
537,1012,1006
538,1013,1003
539,1013,1004
540,1012,1003
541,1013,1005
542,1016,1011
543,1020,1014
544,1021,1013
545,1019,1014
546,1016,1016
547,1013,1017
548,1016,1024
549,1020,1025
550,1016,1026
551,1016,1024
552,1014,1026
553,1010,1033
554,1012,1038
555,1011,1039
556,1010,1039
557,1007,1037
558,1003,1037
559,1000,1041
560,999,1048
561,1001,1052
562,997,1053
563,991,1051
564,986,1050
565,986,1051
566,990,1052
567,991,1052
568,988,1052
569,984,1046
570,982,1047
571,979,1046
572,982,1048
573,989,1053
574,988,1051
575,984,1047
576,983,1047
577,988,1051
578,998,1052
579,1003,1052
580,1008,1053
581,1011,1052
582,1012,1052
583,1018,1058
584,1025,1061
585,1033,1062
586,1041,1062
587,1052,1057
588,1065,1051
589,1078,1039
590,1092,1023
591,1107,1012
592,1124,999
593,1139,982
594,1152,967
595,1166,949
596,1182,934
597,1201,914
598,1219,889
599,1236,866
600,1250,849
601,1260,836
602,1268,828
603,1267,825
604,1263,821
605,1254,816
606,1245,810
607,1230,807
608,1218,809
609,1200,811
610,1175,812
611,1146,814
612,1118,825
613,1098,838
614,1079,854
615,1068,872
616,1058,884
617,1051,900
618,1048,911
619,1045,928
620,1042,941
621,1047,954
622,1053,967
623,1062,977
624,1074,985
625,1092,995
626,1098,1003
627,1091,1011
628,1061,1017
629,1020,1027
630,980,1034
631,960,1053
632,950,1069
633,946,1081
634,939,1089
635,935,1091
636,924,1091
637,921,1095
638,923,1099
639,923,1104
640,917,1104
641,909,1104
642,903,1104
643,903,1111
644,906,1114
645,907,1118
646,901,1113
647,898,1110
648,893,1114
649,891,1115
650,894,1120
651,898,1121
652,895,1120
653,891,1118
654,890,1118
655,884,1123
656,890,1129
657,889,1132
658,888,1134
659,887,1132
660,884,1132
661,886,1137
662,882,1141
663,883,1149
664,883,1149
665,881,1150
666,881,1149
667,880,1154
668,881,1156
669,883,1161
670,886,1162
671,882,1163
672,879,1164
673,879,1171
674,881,1178
675,884,1183
676,885,1182
677,878,1183
678,876,1183
679,881,1186
680,887,1190
681,892,1192
682,894,1190
683,894,1187
684,890,1186
685,895,1191
686,898,1193
687,903,1193
688,905,1191
689,904,1187
690,898,1180
691,903,1182
692,910,1182
693,917,1181
694,920,1174
695,921,1166
696,919,1160
697,923,1160
698,929,1157
699,936,1154
700,938,1148
701,940,1141
702,938,1135
703,942,1131
704,947,1131
705,953,1126
706,956,1117
707,956,1109
708,953,1107
709,956,1102
710,960,1101
711,962,1098
712,965,1092
713,967,1086
714,961,1083
715,963,1082
716,963,1083
717,969,1082
718,967,1079
719,968,1071
720,966,1065
721,967,1058
722,969,1058
723,977,1056
724,975,1055
725,973,1055
726,968,1052
727,968,1051
728,967,1055
729,972,1055
730,972,1050
731,972,1049
732,973,1050
733,974,1049
734,977,1051
735,979,1053
736,980,1051
737,979,1050
738,977,1048
739,977,1049
740,982,1051
741,984,1053
742,981,1052
743,981,1050
744,974,1050
745,976,1049
746,978,1050
747,979,1052
748,979,1051
749,977,1050
750,971,1049
751,972,1051
752,978,1054
753,979,1057
754,980,1052
755,980,1052
756,976,1050
757,979,1052
758,979,1057
759,985,1056
760,984,1053
761,981,1049
762,977,1048
763,976,1050
764,977,1050
765,983,1056
766,985,1053
767,984,1048
768,982,1046
769,982,1048
770,981,1051
771,980,1055
772,983,1054
773,983,1048
774,981,1048
775,981,1051
776,982,1050
777,982,1053
778,981,1051
779,982,1050
780,981,1049
781,982,1051
782,983,1053
783,987,1053
784,987,1050
785,984,1048
786,979,1048
787,978,1050
788,983,1050
789,987,1051
790,988,1050
791,987,1049
792,983,1048
793,983,1048
794,982,1051
795,985,1052
796,983,1051
797,985,1048
798,980,1048
799,978,1050
800,979,1053
801,981,1052
802,982,1051
803,982,1050
804,981,1052
805,979,1053
806,982,1054
807,984,1053
808,985,1052
809,982,1046
810,978,1041
811,980,1045
812,983,1046
813,986,1053
814,985,1051
815,984,1049
816,979,1047
817,981,1048
818,982,1048
819,987,1051
820,986,1049
821,984,1048
822,983,1049
823,983,1048
824,983,1052
825,985,1053
826,984,1053
827,981,1050
828,983,1051
829,981,1051
830,984,1053
831,987,1055
832,989,1053
833,985,1051
834,982,1050
835,978,1052
836,984,1052
837,985,1053
838,987,1050
839,986,1048
840,981,1048
841,981,1049
842,983,1053
843,985,1053
844,983,1053
845,977,1050
846,977,1048
847,976,1050
848,980,1052
849,984,1053
850,982,1053
851,978,1052
852,976,1049
853,977,1049
854,978,1048
855,984,1050
856,985,1047
857,981,1047
858,980,1043
859,978,1046
860,982,1048
861,986,1051
862,985,1049
863,981,1047
864,979,1047
865,979,1048
866,987,1051
867,986,1052
868,988,1051
869,987,1048
870,982,1047
871,984,1049
872,986,1051
873,991,1055
874,988,1051
875,986,1048
876,983,1046
877,982,1050
878,988,1050
879,990,1053
880,988,1052
881,987,1051
882,985,1050
883,983,1051
884,982,1054
885,987,1055
886,988,1052
887,984,1051
888,981,1050
889,981,1051
890,987,1055
891,992,1055
892,991,1052
893,990,1051
894,991,1051
895,988,1051
896,992,1055
897,995,1055
898,997,1056
899,995,1048
900,993,1050
901,992,1051
902,995,1051
903,1000,1054
904,999,1054
905,998,1050
906,998,1045
907,997,1049
908,998,1051
909,1001,1051
910,1005,1051
911,1006,1045
912,1010,1041
913,1020,1042
914,1033,1043
915,1051,1042
916,1068,1038
917,1091,1034
918,1116,1027
919,1147,1024
920,1180,1017
921,1218,1011
922,1253,1006
923,1279,1008
924,1299,1019
925,1303,1039
926,1284,1055
927,1250,1057
928,1195,1056
929,1137,1055
930,1076,1064
931,1023,1076
932,985,1085
933,968,1092
934,968,1088
935,976,1079
936,981,1069
937,982,1065
938,990,1061
939,990,1059
940,989,1057
941,983,1053
942,981,1053
943,983,1054
944,981,1056
945,983,1054
946,979,1048
947,976,1043
948,973,1041
949,970,1040
950,970,1044
951,975,1046
952,974,1043
953,972,1039
954,968,1042
955,968,1045
956,970,1046
957,970,1047
958,971,1046
959,966,1041
960,963,1041
961,965,1042
962,968,1041
963,973,1042
964,971,1041
965,969,1040
966,965,1041
967,966,1045
968,967,1046
969,970,1046
970,971,1045
971,970,1043
972,968,1039
973,968,1043
974,970,1045
975,973,1051
976,973,1048
977,971,1045
978,967,1047
979,970,1047
980,974,1049
981,977,1049
982,977,1049
983,977,1047
984,974,1044
985,975,1049
986,980,1051
987,983,1054
988,983,1046
989,983,1047
990,984,1045
991,981,1048
992,983,1053
993,986,1053
994,987,1052
995,984,1048
996,984,1046
997,980,1047
998,988,1049
999,991,1044
1000,989,1039
1001,989,1035
1002,988,1036
1003,990,1035
1004,995,1035
1005,992,1030
1006,994,1025
1007,989,1022
1008,992,1023
1009,995,1026
1010,998,1024
1011,997,1022
1012,994,1018
1013,992,1017
1014,991,1018
1015,994,1018
1016,996,1020
1017,999,1019
1018,998,1014
1019,996,1015
1020,1001,1020
1021,1005,1020
1022,1008,1020
1023,1013,1018
1024,1014,1013
1025,1012,1011
1026,1018,1014
1027,1023,1016
1028,1026,1015
1029,1028,1012
1030,1029,1007
1031,1027,1008
1032,1029,1011
1033,1031,1017
1034,1036,1024
1035,1038,1021
1036,1035,1020
1037,1031,1020
1038,1029,1020
1039,1032,1023
1040,1035,1026
1041,1029,1028
1042,1025,1027
1043,1023,1026
1044,1023,1031
1045,1024,1034
1046,1025,1037
1047,1024,1038
1048,1020,1035
1049,1014,1035
1050,1011,1038
1051,1013,1040
1052,1011,1045
1053,1008,1043
1054,1005,1042
1055,1002,1042
1056,1002,1045
1057,1003,1046
1058,1005,1049
1059,1003,1048
1060,1000,1045
1061,999,1044
1062,997,1044
1063,999,1049
1064,1001,1049
1065,999,1049
1066,995,1046
1067,995,1048
1068,994,1051
1069,994,1053
1070,998,1055
1071,997,1052
1072,995,1051
1073,995,1050
1074,995,1052
1075,999,1056
1076,1003,1057
1077,1001,1054
1078,1000,1053
1079,999,1051
1080,997,1054
1081,1002,1056
1082,1006,1057
1083,1006,1054
1084,1003,1049
1085,998,1049
1086,998,1051
1087,1005,1054
1088,1007,1053
1089,1005,1050
1090,1001,1048
1091,1002,1049
1092,1002,1048
1093,1004,1050
1094,1005,1051
1095,1001,1049
1096,1003,1044
1097,1000,1043
1098,999,1046
1099,1002,1052
1100,1003,1049
1101,1001,1047
1102,1000,1040
1103,998,1038
1104,1000,1040
1105,997,1043
1106,1004,1042
1107,999,1041
1108,996,1039
1109,996,1040
1110,995,1043
1111,1001,1044
1112,1001,1045
1113,1000,1040
1114,996,1037
1115,989,1036
1116,988,1042
1117,989,1043
1118,994,1045
1119,994,1045
1120,995,1044
1121,995,1047
1122,994,1048
1123,995,1047
1124,996,1046
1125,996,1044
1126,992,1042
1127,987,1043
1128,989,1045
1129,994,1049
1130,997,1050
1131,996,1046
1132,990,1045
1133,990,1045
1134,991,1049
1135,993,1051
1136,995,1052
1137,995,1048
1138,992,1050
1139,991,1048
1140,992,1049
1141,994,1053
1142,999,1054
1143,998,1049
1144,992,1049
1145,994,1048
1146,993,1051
1147,993,1053
1148,993,1053
1149,992,1051
1150,994,1050
1151,993,1049
1152,994,1054
1153,994,1057
1154,997,1058
1155,995,1054
1156,991,1050
1157,988,1047
1158,986,1051
1159,987,1053
1160,993,1052
1161,991,1051
1162,991,1047
1163,984,1047
1164,983,1048
1165,989,1049
1166,991,1049
1167,993,1044
1168,990,1043
1169,989,1043
1170,985,1045
1171,991,1046
1172,991,1048
1173,993,1047
1174,991,1045
1175,982,1042
1176,985,1043
1177,992,1045
1178,994,1050
1179,991,1048
1180,991,1047
1181,989,1044
1182,991,1049
1183,995,1048
1184,999,1050
1185,999,1048
1186,994,1046
1187,992,1044
1188,989,1049
1189,995,1051
1190,997,1052
1191,998,1052
1192,996,1049
1193,991,1046
1194,990,1047
1195,990,1049
1196,993,1054
1197,995,1053
1198,994,1048
1199,992,1045
1200,993,1051
1201,999,1051
1202,1001,1055
1203,999,1054
1204,997,1052
1205,993,1052
1206,993,1056
1207,997,1058
1208,998,1058
1209,997,1054
1210,993,1051
1211,993,1051
1212,992,1053
1213,996,1055
1214,997,1056
1215,998,1055
1216,997,1051
1217,998,1048
1218,997,1050
1219,995,1052
1220,1002,1053
1221,999,1050
1222,998,1048
1223,995,1045
1224,998,1050
1225,1006,1051
1226,1014,1048
1227,1011,1045
1228,1011,1039
1229,1014,1036
1230,1023,1039
1231,1038,1040
1232,1057,1038
1233,1075,1034
1234,1096,1028
1235,1121,1024
1236,1150,1019
1237,1182,1015
1238,1217,1013
1239,1251,1012
1240,1279,1016
1241,1301,1026
1242,1309,1044
1243,1301,1058
1244,1276,1065
1245,1229,1064
1246,1173,1060
1247,1123,1067
1248,1073,1079
1249,1025,1087
1250,990,1094
1251,971,1095
1252,969,1091
1253,974,1082
1254,984,1074
1255,990,1073
1256,994,1068
1257,994,1063
1258,993,1054
1259,991,1048
1260,992,1047
1261,988,1047
1262,990,1043
1263,986,1040
1264,981,1038
1265,979,1036
1266,979,1043
1267,981,1045
1268,985,1046
1269,984,1044
1270,981,1041
1271,983,1043
1272,983,1043
1273,984,1047
1274,987,1045
1275,987,1047
1276,983,1044
1277,982,1046
1278,980,1050
1279,982,1052
1280,982,1051
1281,982,1046
1282,977,1042
1283,975,1044
1284,977,1047
1285,980,1049
1286,986,1050
1287,986,1048
1288,985,1048
1289,981,1046
1290,978,1048
1291,981,1050
1292,982,1052
1293,982,1051
1294,980,1043
1295,978,1045
1296,978,1045
1297,981,1049
1298,985,1052
1299,984,1050
1300,984,1050
1301,981,1049
1302,984,1049
1303,987,1048
1304,986,1047
1305,984,1047
1306,983,1045
1307,979,1045
1308,980,1047
1309,983,1047
1310,984,1049
1311,984,1046
1312,980,1043
1313,980,1036
1314,984,1036
1315,990,1037
1316,994,1038
1317,995,1036
1318,993,1032
1319,990,1033
1320,992,1033
1321,997,1037
1322,999,1036
1323,1001,1032
1324,999,1032
1325,995,1031
1326,998,1030
1327,998,1032
1328,1001,1033
1329,1003,1029
1330,1004,1027
1331,1001,1026
1332,1002,1028
1333,1004,1027
1334,1006,1025
1335,1008,1021
1336,1006,1021
1337,1008,1022
1338,1008,1025
1339,1011,1026
1340,1012,1026
1341,1011,1022
1342,1009,1021
1343,1008,1015
1344,1011,1019
1345,1011,1023
1346,1015,1024
1347,1016,1020
1348,1015,1017
1349,1013,1013
1350,1013,1016
1351,1016,1019
1352,1017,1017
1353,1016,1016
1354,1014,1017
1355,1016,1016
1356,1017,1017
1357,1021,1017
1358,1024,1021
1359,1023,1017
1360,1017,1015
1361,1014,1016
1362,1015,1016
1363,1018,1020
1364,1019,1021
1365,1017,1018
1366,1017,1017
1367,1011,1019
1368,1011,1026
1369,1011,1029
1370,1013,1031
1371,1008,1035
1372,1005,1031
1373,1001,1033
1374,1004,1035
1375,1006,1043
1376,1007,1046
1377,1007,1046
1378,1002,1049
1379,998,1049
1380,996,1052
1381,999,1057
1382,1002,1061
1383,1001,1056
1384,999,1051
1385,995,1053
1386,994,1059
1387,996,1063
1388,999,1063
1389,1000,1064
1390,996,1062
1391,994,1064
1392,991,1067
1393,996,1067
1394,999,1068
1395,998,1066
1396,998,1066
1397,999,1064
1398,1003,1068
1399,1009,1066
1400,1012,1066
1401,1008,1065
1402,1008,1065
1403,1008,1063
1404,1013,1063
1405,1020,1067
1406,1027,1069
1407,1031,1064
1408,1035,1065
1409,1032,1066
1410,1032,1070
1411,1040,1070
1412,1051,1070
1413,1059,1066
1414,1069,1058
1415,1077,1046
1416,1091,1028
1417,1108,1015
1418,1123,1002
1419,1136,986
1420,1148,970
1421,1158,954
1422,1171,942
1423,1189,926
1424,1206,906
1425,1220,886
1426,1230,868
1427,1237,853
1428,1248,846
1429,1249,841
1430,1247,841
1431,1244,841
1432,1241,842
1433,1237,843
1434,1227,843
1435,1218,846
1436,1206,849
1437,1186,850
1438,1162,854
1439,1136,863
1440,1113,876
1441,1093,891
1442,1080,901
1443,1069,913
1444,1059,923
1445,1051,933
1446,1051,943
1447,1050,953
1448,1053,966
1449,1054,976
1450,1053,982
1451,1060,990
1452,1071,1001
1453,1085,1007
1454,1097,1011
1455,1087,1012
1456,1064,1012
1457,1032,1018
1458,1000,1029
1459,974,1042
1460,963,1053
1461,952,1064
1462,947,1072
1463,941,1081
1464,935,1084
1465,930,1088
1466,931,1093
1467,927,1095
1468,922,1096
1469,916,1098
1470,910,1100
1471,912,1106
1472,912,1108
1473,909,1106
1474,907,1105
1475,905,1103
1476,901,1108
1477,903,1116
1478,904,1120
1479,903,1120
1480,901,1118
1481,900,1118
1482,900,1123
1483,896,1128
1484,896,1133
1485,897,1135
1486,895,1130
1487,889,1132
1488,892,1134
1489,895,1138
1490,899,1139
1491,897,1139
1492,893,1140
1493,892,1141
1494,887,1149
1495,889,1151
1496,891,1151
1497,889,1151
1498,885,1151
1499,883,1153
1500,880,1159
1501,880,1162
1502,882,1166
1503,883,1163
1504,876,1165
1505,874,1164
1506,875,1168
1507,875,1173
1508,879,1173
1509,879,1175
1510,878,1175
1511,878,1177
1512,877,1182
1513,881,1184
1514,883,1182
1515,878,1184
1516,877,1183
1517,879,1183
1518,878,1186
1519,881,1186
1520,890,1187
1521,889,1187
1522,890,1184
1523,891,1182
1524,894,1184
1525,899,1178
1526,901,1180
1527,902,1176
1528,902,1170
1529,905,1166
1530,910,1164
1531,916,1162
1532,920,1156
1533,922,1153
1534,925,1143
1535,928,1140
1536,928,1136
1537,935,1135
1538,943,1130
1539,944,1122
1540,941,1110
1541,943,1110
1542,951,1107
1543,954,1103
1544,959,1101
1545,962,1096
1546,961,1091
1547,957,1085
1548,958,1084
1549,962,1085
1550,970,1083
1551,973,1076
1552,971,1072
1553,966,1069
1554,967,1070
1555,973,1070
1556,976,1069
1557,974,1068
1558,974,1063
1559,973,1058
1560,973,1060
1561,973,1062
1562,974,1064
1563,977,1061
1564,974,1055
1565,973,1055
1566,974,1057
1567,976,1060
1568,979,1061
1569,978,1059
1570,972,1057
1571,974,1057
1572,975,1059
1573,975,1062
1574,980,1062
1575,980,1058
1576,976,1057
1577,973,1055
1578,978,1056
1579,981,1060
1580,985,1057
1581,982,1052
1582,983,1049
1583,983,1046
1584,982,1049
1585,983,1055
1586,985,1056
1587,984,1055
1588,981,1050
1589,977,1049
1590,977,1050
1591,979,1052
1592,982,1056
1593,983,1054
1594,984,1052
1595,979,1050
1596,976,1055
1597,980,1057
1598,983,1059
1599,984,1056
1600,982,1051
1601,978,1052
1602,981,1053
1603,982,1056
1604,988,1059
1605,985,1058
1606,978,1054
1607,976,1056
1608,979,1058
1609,982,1060
1610,984,1062
1611,980,1060
1612,976,1057
1613,977,1057
1614,978,1063
1615,979,1061
1616,981,1060
1617,978,1060
1618,977,1058
1619,976,1056
1620,976,1055
1621,977,1054
1622,977,1053
1623,974,1048
1624,973,1047
1625,972,1043
1626,975,1046
1627,979,1051
1628,984,1050
1629,981,1047
1630,979,1043
1631,977,1041
1632,979,1046
1633,982,1048
1634,983,1046
1635,981,1046
1636,979,1045
1637,977,1044
1638,978,1046
1639,976,1048
1640,981,1049
1641,980,1044
1642,979,1038
1643,978,1043
1644,980,1045
1645,981,1049
1646,986,1050
1647,985,1050
1648,979,1046
1649,975,1047
1650,972,1051
1651,975,1055
1652,981,1052
1653,981,1051
1654,976,1048
1655,968,1051
1656,972,1052
1657,974,1056
1658,976,1055
1659,976,1053
1660,977,1053
1661,976,1053
1662,977,1054
1663,978,1055
1664,981,1055
1665,981,1056
1666,979,1053
1667,977,1052
1668,978,1052
1669,980,1054
1670,977,1054
1671,976,1052
1672,974,1051
1673,975,1051
1674,978,1052
1675,979,1056
1676,982,1056
1677,980,1057
1678,977,1052
1679,975,1051
1680,975,1054
1681,978,1054
1682,980,1051
1683,978,1051
1684,974,1048
1685,976,1048
1686,975,1049
1687,979,1049
1688,986,1052
1689,985,1051
1690,983,1047
1691,978,1047
1692,979,1049
1693,979,1051
1694,986,1050
1695,984,1052
1696,979,1046
1697,977,1048
1698,977,1048
1699,980,1049
1700,976,1050
1701,974,1050
1702,971,1047
1703,971,1052
1704,975,1053
1705,978,1055
1706,981,1054
1707,979,1049
1708,976,1044
1709,976,1046
1710,974,1046
1711,978,1049
1712,981,1048
1713,981,1049
1714,978,1045
1715,976,1048
1716,975,1049
1717,978,1049
1718,978,1046
1719,982,1048
1720,980,1047
1721,977,1048
1722,977,1051
1723,980,1057
1724,983,1052
1725,979,1051
1726,977,1046
1727,974,1047
1728,972,1047
1729,979,1051
1730,981,1051
1731,977,1048
1732,976,1046
1733,973,1045
1734,975,1046
1735,979,1047
1736,983,1047
1737,982,1045
1738,979,1043
1739,976,1045
1740,979,1047
1741,983,1049
1742,977,1049
1743,973,1049
1744,968,1047
1745,969,1046
1746,977,1049
1747,982,1052
1748,982,1054
1749,981,1051
1750,982,1049
1751,982,1049
1752,982,1052
1753,984,1053
1754,988,1053
1755,986,1047
1756,984,1043
1757,980,1042
1758,978,1047
1759,983,1049
1760,986,1047
1761,982,1047
1762,984,1043
1763,979,1046
1764,980,1049
1765,984,1053
1766,985,1054
1767,985,1053
1768,981,1048
1769,981,1049
1770,981,1053
1771,984,1055
1772,982,1052
1773,983,1050
1774,986,1046
1775,982,1049
1776,983,1051
1777,983,1055
1778,988,1054
1779,986,1051
1780,983,1047
1781,984,1050
1782,984,1049
1783,987,1053
1784,992,1053
1785,991,1049
1786,990,1045
1787,986,1043
1788,986,1044
1789,990,1045
1790,993,1043
1791,994,1041
1792,999,1036
1793,1005,1033
1794,1019,1035
1795,1033,1034
1796,1051,1034
1797,1073,1032
1798,1092,1029
1799,1120,1027
1800,1158,1018
1801,1195,1014
1802,1230,1011
1803,1262,1008
1804,1281,1011
1805,1291,1023
1806,1279,1040
1807,1250,1048
1808,1205,1045
1809,1151,1046
1810,1098,1052
1811,1042,1059
1812,997,1067
1813,970,1069
1814,966,1071
1815,972,1064
1816,978,1055
1817,979,1048
1818,985,1046
1819,984,1046
1820,982,1047
1821,984,1046
1822,979,1043
1823,978,1041
1824,980,1043
1825,980,1048
1826,978,1050
1827,974,1049
1828,967,1048
1829,969,1047
1830,969,1047
1831,972,1051
1832,972,1050
1833,969,1048
1834,966,1043
1835,965,1046
1836,966,1048
1837,969,1052
1838,971,1052
1839,971,1050
1840,967,1047
1841,964,1048
1842,966,1055
1843,968,1056
1844,970,1055
1845,971,1050
1846,969,1047
1847,961,1048
1848,958,1051
1849,963,1057
1850,966,1057
1851,964,1054
1852,962,1054
1853,958,1053
1854,957,1055
1855,965,1056
1856,968,1055
1857,965,1052
1858,964,1047
1859,962,1047
1860,964,1048
1861,967,1047
1862,972,1045
1863,972,1041
1864,967,1042
1865,969,1043
1866,970,1048
1867,973,1048
1868,975,1049
1869,975,1044
1870,972,1043
1871,969,1041
1872,970,1040
1873,972,1045
1874,975,1046
1875,978,1043
1876,977,1038
1877,975,1039
1878,978,1042
1879,976,1043
1880,985,1042
1881,983,1039
1882,983,1038
1883,982,1039
1884,985,1038
1885,991,1039
1886,996,1040
1887,995,1037
1888,994,1035
1889,992,1030
1890,991,1032
1891,995,1031
1892,998,1033
1893,998,1028
1894,995,1025
1895,997,1025
1896,1000,1026
1897,1002,1026
1898,1006,1024
1899,1005,1020
1900,1002,1016
1901,1004,1016
1902,1007,1016
1903,1009,1016
1904,1009,1016
1905,1011,1014
1906,1010,1012
1907,1010,1013
1908,1011,1012
1909,1017,1013
1910,1021,1014
1911,1020,1008
1912,1019,1007
1913,1019,1006
1914,1018,1012
1915,1021,1016
1916,1027,1017
1917,1028,1014
1918,1023,1014
1919,1022,1020
1920,1019,1025
1921,1019,1030
1922,1018,1031
1923,1016,1030
1924,1014,1028
1925,1010,1034
1926,1008,1040
1927,1009,1043
1928,1012,1042
1929,1009,1042
1930,1004,1039
1931,1000,1044
1932,998,1049
1933,999,1053
1934,1001,1052
1935,997,1051
1936,993,1048
1937,989,1049
1938,989,1052
1939,993,1056
1940,994,1055
1941,993,1054
1942,992,1051
1943,990,1050
1944,989,1054
1945,990,1058
1946,993,1060
1947,989,1057
1948,988,1055
1949,986,1050
1950,985,1048
1951,987,1048
1952,991,1049
1953,991,1046
1954,985,1043
1955,985,1044
1956,986,1045
1957,990,1047
1958,993,1044
1959,989,1043
1960,987,1041
1961,989,1039
1962,990,1042
1963,993,1043
1964,996,1042
1965,997,1041
1966,993,1039
1967,992,1041
1968,996,1041
1969,996,1042
1970,995,1044
1971,995,1043
1972,991,1040
1973,991,1042
1974,989,1045
1975,992,1046
1976,997,1045
1977,1000,1042
1978,995,1041
1979,994,1043
1980,998,1042
1981,998,1047
1982,1004,1047
1983,1002,1047
1984,999,1042
1985,996,1043
1986,994,1043
1987,998,1047
1988,994,1044
1989,992,1044
1990,988,1041
1991,988,1042
1992,988,1044
1993,992,1046
1994,994,1045
1995,992,1043
1996,993,1041
1997,991,1043
1998,992,1043
1999,991,1046
2000,994,1047
2001,992,1048
2002,991,1043
2003,987,1041
2004,990,1041
2005,992,1047
2006,994,1045
2007,992,1046
2008,987,1041
2009,986,1043
2010,982,1043
2011,986,1045
2012,988,1047
2013,990,1045
2014,987,1043
2015,984,1044
2016,987,1044
2017,990,1047
2018,990,1046
2019,989,1042
2020,988,1043
2021,984,1044
2022,989,1045
2023,991,1049
2024,994,1046
2025,993,1042
2026,992,1040
2027,987,1043
2028,987,1046
2029,991,1050
2030,992,1048
2031,993,1045
2032,992,1040
2033,988,1042
2034,991,1046
2035,990,1047
2036,993,1045
2037,990,1045
2038,986,1045
2039,985,1047
2040,986,1051
2041,990,1049
2042,994,1050
2043,996,1046
2044,992,1043
2045,986,1044
2046,984,1045
2047,987,1048
2048,993,1050
2049,994,1046
2050,993,1042
2051,989,1041
2052,993,1042
2053,1003,1043
2054,1018,1041
2055,1030,1036
2056,1045,1034
2057,1064,1031
2058,1084,1033
2059,1116,1031
2060,1153,1023
2061,1191,1013
2062,1224,1004
2063,1257,1007
2064,1283,1014
2065,1291,1033
2066,1274,1052
2067,1226,1059
2068,1164,1053
2069,1095,1058
2070,1035,1073
2071,984,1088
2072,956,1097
2073,949,1095
2074,959,1088
2075,966,1076
2076,974,1065
2077,984,1057
2078,990,1052
2079,988,1041
2080,983,1040
2081,979,1041
2082,980,1040
2083,982,1044
2084,980,1044
2085,977,1044
2086,974,1042
2087,971,1044
2088,971,1048
2089,972,1050
2090,975,1050
2091,976,1046
2092,974,1044
2093,971,1044
2094,971,1046
2095,970,1050
2096,972,1047
2097,967,1049
2098,966,1047
2099,967,1045
2100,968,1046
2101,971,1047
2102,972,1044
2103,973,1042
2104,967,1040
2105,966,1042
2106,963,1046
2107,964,1051
2108,968,1048
2109,968,1046
2110,965,1044
2111,967,1043
2112,970,1048
2113,972,1049
2114,974,1046
2115,973,1043
2116,972,1042
2117,974,1041
2118,975,1037
2119,976,1043
2120,981,1041
2121,980,1038
2122,974,1035
2123,978,1037
2124,978,1038
2125,981,1038
2126,983,1039
2127,981,1036
2128,980,1034
2129,977,1031
2130,977,1030
2131,981,1032
2132,986,1029
2133,990,1028
2134,990,1025
2135,987,1025
2136,983,1027
2137,983,1030
2138,989,1032
2139,991,1028
2140,992,1023
2141,992,1016
2142,992,1018
2143,997,1023
2144,999,1022
2145,999,1020
2146,1000,1014
2147,1002,1012
2148,1001,1013
2149,1005,1015
2150,1009,1012
2151,1009,1011
2152,1002,1006
2153,1000,1006
2154,1003,1008
2155,1011,1009
2156,1012,1006
2157,1010,1006
2158,1011,1005
2159,1006,1004
2160,1007,1005
2161,1012,1004
2162,1016,1006
2163,1016,1005
2164,1011,1003
2165,1010,1003
2166,1013,1006
2167,1011,1009
2168,1014,1011
2169,1015,1014
2170,1012,1014
2171,1006,1016
2172,1005,1021
2173,1005,1028
2174,1004,1027
2175,1001,1031
2176,998,1029
2177,993,1030
2178,993,1035
2179,996,1040
2180,995,1041
2181,996,1039
2182,992,1041
2183,988,1044
2184,986,1045
2185,987,1049
2186,987,1053
2187,986,1052
2188,982,1050
2189,981,1052
2190,984,1056
2191,984,1063
2192,984,1064
2193,983,1065
2194,978,1063
2195,978,1062
2196,981,1061
2197,982,1062
2198,985,1064
2199,987,1063
2200,984,1061
2201,983,1061
2202,978,1065
2203,981,1067
2204,984,1065
2205,986,1062
2206,987,1057
2207,986,1058
2208,990,1061
2209,990,1061
2210,992,1059
2211,989,1057
2212,987,1054
2213,987,1056
2214,989,1058
2215,989,1059
2216,995,1060
2217,989,1052
2218,987,1050
2219,984,1050
2220,981,1050
2221,989,1056
2222,990,1052
2223,989,1049
2224,988,1044
2225,986,1041
2226,985,1046
2227,986,1047
2228,986,1048
2229,984,1046
2230,985,1045
2231,983,1047
2232,985,1048
2233,989,1048
2234,992,1045
2235,990,1044
2236,983,1041
2237,985,1044
2238,982,1048
2239,987,1052
2240,990,1050
2241,987,1049
2242,983,1044
2243,981,1045
2244,986,1049
2245,989,1054
2246,991,1054
2247,989,1055
2248,987,1050
2249,987,1054
2250,987,1056
2251,986,1059
2252,991,1053
2253,988,1048
2254,984,1048
2255,979,1049
2256,983,1052
2257,986,1057
2258,988,1053
2259,988,1055
2260,987,1051
2261,986,1052
2262,983,1054
2263,988,1053
2264,986,1053
2265,986,1049
2266,981,1048
2267,977,1051
2268,981,1051
2269,985,1053
2270,990,1052
2271,988,1050
2272,986,1047
2273,983,1048
2274,982,1050
2275,986,1054
2276,987,1053
2277,982,1050
2278,980,1049
2279,978,1050
2280,977,1053
2281,981,1056
2282,986,1058
2283,981,1054
2284,977,1049
2285,980,1048
2286,982,1051
2287,983,1055
2288,984,1054
2289,987,1048
2290,984,1042
2291,982,1045
2292,980,1051
2293,982,1055
2294,984,1056
2295,984,1055
2296,987,1050
2297,982,1052
2298,982,1053
2299,983,1055
2300,987,1055
2301,985,1055
2302,986,1054
2303,984,1054
2304,983,1055
2305,983,1054
2306,984,1055
2307,986,1052
2308,984,1048
2309,985,1048
2310,984,1048
2311,985,1053
2312,985,1052
2313,984,1054
2314,980,1053
2315,984,1051
2316,988,1052
2317,989,1056
2318,992,1056
2319,988,1055
2320,985,1051
2321,983,1053
2322,984,1055
2323,989,1057
2324,995,1053
2325,992,1052
2326,990,1050
2327,986,1050
2328,987,1052
2329,992,1052
2330,991,1052
2331,990,1048
2332,988,1050
2333,987,1051
2334,991,1052
2335,995,1056
2336,997,1053
2337,995,1047
2338,991,1047
2339,994,1047
2340,990,1051
2341,993,1052
2342,991,1051
2343,995,1045
2344,995,1040
2345,1001,1039
2346,1015,1039
2347,1032,1042
2348,1050,1038
2349,1067,1036
2350,1088,1028
2351,1115,1026
2352,1149,1022
2353,1188,1017
2354,1231,1013
2355,1267,1012
2356,1292,1017
2357,1304,1034
2358,1294,1054
2359,1263,1063
2360,1211,1061
2361,1152,1058
2362,1089,1063
2363,1026,1076
2364,975,1089
2365,953,1097
2366,954,1095
2367,969,1086
2368,971,1070
2369,975,1063
2370,979,1058
2371,984,1057
2372,987,1053
2373,980,1050
2374,978,1050
2375,976,1050
2376,974,1052
2377,978,1053
2378,978,1053
2379,972,1047
2380,971,1047
2381,965,1050
2382,970,1050
2383,972,1054
2384,974,1053
2385,971,1049
2386,968,1044
2387,968,1045
2388,966,1044
2389,972,1045
2390,975,1046
2391,970,1046
2392,969,1045
2393,966,1044
2394,970,1042
2395,972,1046
2396,975,1044
2397,974,1044
2398,972,1044
2399,971,1046
2400,970,1049
2401,973,1051
2402,972,1050
2403,971,1050
2404,969,1049
2405,967,1046
2406,965,1047
2407,968,1050
2408,974,1049
2409,976,1046
2410,976,1042
2411,971,1040
2412,972,1044
2413,975,1049
2414,978,1047
2415,977,1047
2416,976,1045
2417,977,1045
2418,978,1047
2419,977,1048
2420,980,1044
2421,984,1043
2422,981,1039
2423,977,1043
2424,980,1044
2425,981,1045
2426,985,1040
2427,984,1036
2428,981,1033
2429,979,1034
2430,986,1034
2431,994,1033
2432,1000,1031
2433,999,1024
2434,996,1019
2435,996,1019
2436,997,1021
2437,1002,1022
2438,1008,1020
2439,1005,1016
2440,1004,1010
2441,1004,1010
2442,1005,1010
2443,1010,1012
2444,1015,1010
2445,1014,1007
2446,1006,1004
2447,1011,1007
2448,1012,1008
2449,1014,1009
2450,1016,1005
2451,1018,1005
2452,1016,1007
2453,1013,1004
2454,1017,1009
2455,1016,1012
2456,1021,1009
2457,1018,1009
2458,1015,1006
2459,1014,1010
2460,1016,1015
2461,1016,1019
2462,1015,1019
2463,1015,1020
2464,1013,1019
2465,1010,1020
2466,1008,1024
2467,1008,1028
2468,1006,1032
2469,1004,1031
2470,999,1029
2471,997,1031
2472,998,1037
2473,1003,1042
2474,1006,1043
2475,998,1040
2476,991,1039
2477,987,1043
2478,988,1048
2479,990,1054
2480,990,1052
2481,990,1050
2482,988,1048
2483,986,1050
2484,987,1053
2485,985,1053
2486,988,1051
2487,987,1049
2488,985,1047
2489,986,1051
2490,987,1052
2491,991,1057
2492,997,1055
2493,995,1055
2494,995,1050
2495,995,1050
2496,1003,1052
2497,1013,1055
2498,1023,1058
2499,1025,1057
2500,1025,1058
2501,1030,1063
2502,1037,1065
2503,1052,1065
2504,1067,1058
2505,1079,1043
2506,1093,1023
2507,1103,1008
2508,1118,997
2509,1138,983
2510,1153,971
2511,1165,953
2512,1174,938
2513,1188,917
2514,1207,899
2515,1231,882
2516,1248,861
2517,1256,843
2518,1258,831
2519,1253,831
2520,1249,836
2521,1248,840
2522,1245,834
2523,1235,827
2524,1220,822
2525,1202,822
2526,1181,826
2527,1158,836
2528,1135,840
2529,1109,846
2530,1082,853
2531,1058,866
2532,1039,880
2533,1027,900
2534,1022,912
2535,1019,923
2536,1013,937
2537,1009,948
2538,1007,962
2539,1015,974
2540,1029,984
2541,1044,994
2542,1057,1000
2543,1067,1005
2544,1068,1011
2545,1054,1018
2546,1029,1026
2547,996,1033
2548,967,1041
2549,954,1054
2550,943,1069
2551,942,1081
2552,939,1087
2553,938,1093
2554,930,1093
2555,923,1098
2556,921,1103
2557,922,1107
2558,924,1107
2559,920,1104
2560,912,1103
2561,908,1104
2562,909,1108
2563,912,1112
2564,912,1113
2565,907,1112
2566,903,1109
2567,901,1112
2568,902,1116
2569,902,1122
2570,903,1119
2571,899,1120
2572,898,1120
2573,892,1120
2574,895,1126
2575,894,1128
2576,896,1129
2577,890,1125
2578,890,1125
2579,885,1129
2580,885,1133
2581,888,1136
2582,891,1139
2583,890,1135
2584,886,1133
2585,882,1139
2586,886,1143
2587,885,1150
2588,886,1151
2589,884,1151
2590,880,1152
2591,879,1154
2592,880,1161
2593,884,1166
2594,886,1164
2595,887,1165
2596,883,1167
2597,883,1169
2598,885,1171
2599,889,1178
2600,890,1180
2601,892,1179
2602,889,1179
2603,894,1181
2604,897,1185
2605,903,1189
2606,904,1189
2607,902,1184
2608,904,1182
2609,904,1181
2610,910,1182
2611,913,1184
2612,919,1181
2613,921,1175
2614,920,1172
2615,921,1170
2616,924,1169
2617,930,1167
2618,937,1165
2619,938,1155
2620,942,1152
2621,944,1148
2622,949,1144
2623,952,1142
2624,954,1136
2625,959,1131
2626,958,1122
2627,957,1120
2628,963,1116
2629,966,1114
2630,968,1105
2631,963,1101
2632,961,1095
2633,961,1093
2634,963,1092
2635,963,1091
2636,966,1085
2637,966,1082
2638,963,1076
2639,961,1075
2640,962,1073
2641,963,1075
2642,965,1073
2643,965,1070
2644,963,1066
2645,957,1064
2646,957,1067
2647,962,1066
2648,960,1066
2649,958,1060
2650,959,1061
2651,960,1061
2652,964,1063
2653,968,1065
2654,968,1060
2655,970,1057
2656,965,1054
2657,966,1057
2658,966,1060
2659,971,1066
2660,973,1063
2661,975,1058
2662,971,1052
2663,970,1052
2664,968,1055
2665,969,1057
2666,973,1056
2667,972,1054
2668,974,1050
2669,972,1052
2670,971,1056
2671,976,1057
2672,977,1054
2673,977,1052
2674,969,1051
2675,967,1051
2676,967,1050
2677,973,1055
2678,978,1055
2679,978,1055
2680,974,1051
2681,971,1053
2682,972,1054
2683,972,1055
2684,973,1054
2685,972,1055
2686,971,1052
2687,971,1055
2688,972,1057
2689,973,1062
2690,977,1062
2691,976,1059
2692,973,1057
2693,972,1058
2694,969,1061
2695,974,1062
2696,975,1058
2697,975,1050
2698,972,1048
2699,971,1047
2700,974,1047
2701,976,1049
2702,975,1050
2703,975,1049
2704,974,1047
2705,969,1048
2706,971,1050
2707,972,1055
2708,973,1054
2709,973,1052
2710,971,1053
2711,969,1051
2712,972,1052
2713,973,1055
2714,976,1054
2715,973,1053
2716,973,1053
2717,973,1055
2718,972,1056
2719,975,1058
2720,976,1057
2721,973,1053
2722,970,1053
2723,968,1050
2724,971,1055
2725,974,1058
2726,976,1055
2727,975,1053
2728,970,1052
2729,971,1052
2730,973,1055
2731,975,1055
2732,977,1051
2733,975,1048
2734,974,1051
2735,970,1054
2736,971,1055
2737,976,1060
2738,977,1062
2739,975,1059
2740,968,1056
2741,971,1056
2742,970,1061
2743,972,1064
2744,975,1059
2745,976,1055
2746,972,1051
2747,971,1052
2748,969,1051
2749,974,1051
2750,974,1053
2751,975,1053
2752,973,1051
2753,973,1048
2754,972,1050
2755,973,1054
2756,974,1053
2757,971,1049
2758,967,1045
2759,964,1049
2760,972,1053
2761,974,1057
2762,976,1056
2763,977,1053
2764,976,1053
2765,974,1052
2766,974,1057
2767,973,1059
2768,975,1059
2769,975,1056
2770,974,1055
2771,973,1057
2772,974,1059
2773,976,1061
2774,978,1062
2775,976,1059
2776,974,1058
2777,973,1059
2778,970,1060
2779,972,1062
2780,975,1061
2781,974,1059
2782,971,1058
2783,969,1055
2784,972,1058
2785,976,1062
2786,978,1062
2787,976,1056
2788,975,1051
2789,971,1048
2790,971,1051
2791,976,1053
2792,978,1052
2793,981,1050
2794,976,1047
2795,975,1046
2796,975,1047
2797,977,1052
2798,981,1051
2799,979,1049
2800,976,1044
2801,973,1046
2802,976,1049
2803,976,1053
2804,981,1051
2805,982,1050
2806,978,1045
2807,977,1050
2808,983,1053
2809,988,1052
2810,988,1049
2811,986,1047
2812,984,1044
2813,986,1043
2814,994,1043
2815,1002,1045
2816,1018,1041
2817,1031,1037
2818,1044,1034
2819,1069,1035
2820,1102,1034
2821,1138,1028
2822,1179,1019
2823,1218,1009
2824,1245,1004
2825,1271,1012
2826,1288,1036
2827,1283,1055
2828,1253,1065
2829,1196,1065
2830,1129,1066
2831,1061,1073
2832,1003,1082
2833,963,1090
2834,947,1088
2835,950,1083
2836,958,1074
2837,966,1064
2838,972,1055
2839,977,1053
2840,978,1048
2841,969,1047
2842,966,1047
2843,961,1046
2844,967,1050
2845,963,1052
2846,969,1051
2847,964,1048
2848,963,1047
2849,962,1050
2850,961,1050
2851,964,1054
2852,963,1053
2853,962,1050
2854,960,1048
2855,959,1049
2856,963,1051
2857,960,1051
2858,963,1053
2859,959,1052
2860,960,1053
2861,962,1054
2862,964,1056
2863,964,1057
2864,965,1056
2865,961,1053
2866,961,1048
2867,960,1045
2868,960,1046
2869,960,1051
2870,964,1050
2871,962,1048
2872,959,1047
2873,959,1046
2874,960,1050
2875,960,1054
2876,960,1052
2877,961,1050
2878,958,1048
2879,956,1049
2880,960,1051
2881,962,1052
2882,964,1054
2883,964,1051
2884,959,1048
2885,960,1046
2886,964,1048
2887,968,1052
2888,971,1050
2889,969,1049
2890,968,1046
2891,968,1048
2892,969,1048
2893,974,1050
2894,977,1045
2895,976,1038
2896,973,1038
2897,973,1039
2898,972,1039
2899,975,1040
2900,979,1037
2901,982,1032
2902,982,1030
2903,984,1031
2904,989,1031
2905,995,1032
2906,994,1028
2907,995,1022
2908,994,1017
2909,990,1019
2910,989,1021
2911,993,1023
2912,994,1021
2913,990,1017
2914,994,1012
2915,992,1015
2916,993,1015
2917,996,1015
2918,999,1014
2919,1002,1012
2920,1002,1008
2921,1002,1009
2922,1005,1009
2923,1006,1010
2924,1009,1008
2925,1006,1009
2926,1007,1007
2927,1003,1011
2928,1003,1012
2929,1010,1013
2930,1013,1008
2931,1012,1010
2932,1009,1008
2933,1007,1013
2934,1007,1017
2935,1009,1023
2936,1014,1024
2937,1013,1023
2938,1008,1025
2939,1005,1027
2940,1003,1031
2941,1002,1036
2942,1006,1037
2943,1001,1039
2944,999,1042
2945,994,1043
2946,995,1049
2947,995,1052
2948,993,1052
2949,988,1054
2950,984,1054
2951,980,1051
2952,981,1054
2953,985,1057
2954,985,1057
2955,982,1052
2956,975,1049
2957,974,1052
2958,975,1053
2959,976,1053
2960,976,1051
2961,974,1048
2962,974,1049
2963,972,1051
2964,974,1052
2965,978,1055
2966,977,1056
2967,978,1052
2968,973,1049
2969,974,1049
2970,974,1055
2971,979,1058
2972,978,1058
2973,980,1054
2974,975,1049
2975,973,1051
2976,974,1051
2977,979,1058
2978,983,1055
2979,982,1052
2980,979,1048
2981,977,1049
2982,980,1053
2983,980,1055
2984,984,1054
2985,981,1051
2986,984,1049
2987,981,1051
2988,984,1053
2989,988,1057
2990,990,1059
2991,990,1058
2992,985,1055
2993,982,1054
2994,981,1056
2995,986,1055
2996,985,1050
2997,983,1050
2998,981,1049
2999,982,1050
3000,985,1055
3001,989,1057
3002,993,1054
3003,991,1048
3004,983,1045
3005,984,1045
3006,985,1045
3007,985,1051
3008,984,1048
3009,984,1045
3010,982,1042
3011,982,1042
3012,982,1045
3013,984,1051
3014,984,1049
3015,980,1046
3016,979,1043
3017,980,1047
3018,981,1047
3019,986,1048
3020,983,1048
3021,981,1048
3022,975,1047
3023,975,1046
3024,978,1050
3025,981,1051
3026,986,1050
3027,986,1051
3028,982,1047
3029,980,1049
3030,978,1050
3031,978,1054
3032,984,1055
3033,985,1051
3034,982,1049
3035,981,1047
3036,983,1050
3037,983,1053
3038,983,1052
3039,983,1052
3040,979,1047
3041,978,1050
3042,979,1048
3043,983,1051
3044,987,1051
3045,985,1049
3046,985,1047
3047,985,1045
3048,987,1048
3049,985,1051
3050,988,1045
3051,988,1040
3052,993,1036
3053,1000,1035
3054,1016,1040
3055,1031,1040
3056,1050,1036
3057,1071,1030
3058,1102,1028
3059,1133,1026
3060,1176,1019
3061,1222,1017
3062,1257,1016
3063,1288,1018
3064,1302,1026
3065,1297,1047
3066,1275,1060
3067,1237,1066
3068,1185,1062
3069,1124,1059
3070,1063,1065
3071,1002,1079
3072,956,1090
3073,932,1097
3074,931,1101
3075,941,1095
3076,951,1086
3077,957,1076
3078,963,1069
3079,971,1068
3080,971,1058
3081,972,1052
3082,966,1048
3083,967,1042
3084,966,1045
3085,968,1048
3086,968,1049
3087,967,1047
3088,963,1047
3089,962,1047
3090,962,1050
3091,963,1052
3092,965,1049
3093,963,1046
3094,958,1048
3095,955,1047
3096,961,1050
3097,963,1050
3098,962,1051
3099,961,1046
3100,958,1043
3101,956,1044
3102,959,1048
3103,959,1049
3104,964,1048
3105,960,1047
3106,958,1044
3107,956,1045
3108,959,1051
3109,962,1053
3110,961,1052
3111,960,1046
3112,961,1042
3113,957,1042
3114,957,1046
3115,959,1046
3116,962,1046
3117,959,1042
3118,957,1040
3119,959,1040
3120,964,1045
3121,967,1048
3122,965,1046
3123,962,1045
3124,958,1041
3125,961,1039
3126,959,1039
3127,962,1041
3128,967,1041
3129,964,1038
3130,959,1036
3131,959,1037
3132,960,1039
3133,962,1038
3134,965,1040
3135,963,1034
3136,961,1032
3137,965,1031
3138,968,1032
3139,970,1034
3140,975,1033
3141,976,1029
3142,975,1023
3143,975,1026
3144,979,1019
3145,979,1018
3146,980,1015
3147,978,1013
3148,979,1011
3149,981,1010
3150,983,1011
3151,988,1016
3152,989,1012
3153,986,1008
3154,985,1004
3155,987,1005
3156,990,1008
3157,994,1006
3158,996,1004
3159,996,1000
3160,994,1001
3161,994,1002
3162,994,999
3163,998,1003
3164,999,1001
3165,1000,1000
3166,993,999
3167,997,1003
3168,1001,1005
3169,1003,1013
3170,1002,1011
3171,999,1011
3172,996,1009
3173,994,1013
3174,994,1019
3175,991,1024
3176,992,1025
3177,990,1026
3178,986,1026
3179,982,1031
3180,984,1036
3181,984,1041
3182,982,1042
3183,977,1040
3184,971,1038
3185,969,1042
3186,975,1048
3187,976,1050
3188,972,1051
3189,971,1049
3190,967,1052
3191,962,1056
3192,963,1063
3193,969,1063
3194,972,1063
3195,970,1059
3196,967,1057
3197,963,1059
3198,962,1061
3199,964,1062
3200,966,1062
3201,964,1061
3202,964,1057
3203,963,1059
3204,965,1059
3205,968,1061
3206,971,1060
3207,966,1061
3208,966,1055
3209,967,1057
3210,968,1057
3211,969,1059
3212,972,1058
3213,970,1058
3214,965,1053
3215,967,1055
3216,969,1059
3217,973,1058
3218,974,1059
3219,972,1058
3220,969,1055
3221,976,1055
3222,975,1057
3223,977,1058
3224,977,1056
3225,976,1051
3226,973,1050
3227,970,1052
3228,973,1054
3229,975,1055
3230,977,1054
3231,976,1052
3232,971,1047
3233,971,1049
3234,973,1051
3235,975,1054
3236,978,1053
3237,975,1049
3238,971,1048
3239,973,1048
3240,975,1051
3241,975,1055
3242,977,1055
3243,973,1050
3244,969,1046
3245,971,1050
3246,971,1052
3247,975,1054
3248,976,1051
3249,974,1051
3250,971,1050
3251,972,1053
3252,971,1054
3253,973,1056
3254,976,1054
3255,972,1053
3256,967,1052
3257,966,1053
3258,967,1055
3259,969,1059
3260,968,1057
3261,970,1055
3262,967,1053
3263,966,1054
3264,971,1058
3265,973,1063
3266,973,1060
3267,971,1056
3268,968,1052
3269,966,1055
3270,965,1057
3271,969,1059
3272,969,1059
3273,965,1055
3274,964,1054
3275,963,1053
3276,966,1054
3277,972,1057
3278,972,1052
3279,967,1050
3280,963,1047
3281,961,1049
3282,965,1052
3283,971,1054
3284,973,1052
3285,970,1049
3286,967,1048
3287,966,1049
3288,965,1050
3289,967,1050
3290,968,1049
3291,966,1047
3292,964,1048
3293,966,1051
3294,967,1054
3295,972,1054
3296,973,1052
3297,969,1049
3298,968,1048
3299,963,1051
3300,968,1054
3301,968,1056
3302,974,1056
3303,972,1053
3304,968,1054
3305,969,1055
3306,966,1054
3307,971,1059
3308,972,1058
3309,970,1055
3310,966,1050
3311,965,1054
3312,969,1058
3313,972,1059
3314,973,1060
3315,972,1056
3316,968,1054
3317,966,1053
3318,968,1057
3319,970,1059
3320,973,1060
3321,969,1058
3322,963,1056
3323,966,1055
3324,968,1058
3325,969,1060
3326,972,1058
3327,966,1055
3328,963,1052
3329,963,1053
3330,967,1058
3331,971,1056
3332,972,1057
3333,969,1051
3334,966,1050
3335,967,1052
3336,966,1055
3337,967,1057
3338,968,1054
3339,967,1049
3340,964,1048
3341,961,1049
3342,966,1052
3343,969,1055
3344,971,1052
3345,970,1050
3346,969,1049
3347,970,1051
3348,970,1053
3349,970,1053
3350,970,1053
3351,971,1052
3352,971,1050
3353,972,1052
3354,971,1055
3355,973,1054
3356,973,1057
3357,973,1053
3358,970,1055
3359,970,1056
3360,972,1058
3361,972,1059
3362,973,1056
3363,971,1052
3364,970,1051
3365,970,1054
3366,973,1061
3367,974,1062
3368,974,1057
3369,975,1056
3370,972,1052
3371,971,1053
3372,971,1054
3373,974,1057
3374,974,1057
3375,974,1053
3376,972,1053
3377,972,1053
3378,974,1055
3379,973,1060
3380,975,1058
3381,974,1057
3382,972,1053
3383,975,1049
3384,976,1052
3385,975,1053
3386,974,1054
3387,974,1053
3388,972,1052
3389,972,1052
3390,975,1055
3391,979,1056
3392,980,1055
3393,979,1053
3394,975,1050
3395,974,1054
3396,976,1056
3397,978,1057
3398,978,1057
3399,975,1054
3400,974,1053
3401,976,1054
3402,979,1056
3403,982,1058
3404,984,1054
3405,980,1053
3406,977,1050
3407,978,1055
3408,977,1059
3409,980,1062
3410,978,1059
3411,979,1056
3412,978,1055
3413,978,1056
3414,977,1058
3415,979,1058
3416,980,1056
3417,980,1053
3418,977,1049
3419,978,1052
3420,985,1055
3421,988,1056
3422,985,1054
3423,980,1051
3424,977,1050
3425,978,1049
3426,981,1051
3427,984,1051
3428,985,1051
3429,987,1049
3430,986,1046
3431,985,1047
3432,984,1052
3433,986,1053
3434,985,1049
3435,984,1044
3436,982,1044
3437,982,1049
3438,983,1052
3439,987,1051
3440,986,1050
3441,987,1048
3442,985,1047
3443,984,1045
3444,985,1048
3445,985,1048
3446,988,1049
3447,984,1048
3448,984,1044
3449,982,1046
3450,984,1048
3451,987,1051
3452,989,1051
3453,989,1047
3454,986,1046
3455,986,1046
3456,988,1049
3457,990,1052
3458,988,1052
3459,982,1049
3460,982,1047
3461,983,1047
3462,985,1050
3463,992,1052
3464,994,1051
3465,990,1048
3466,989,1045
3467,987,1047
3468,987,1049
3469,988,1053
3470,988,1052
3471,986,1052
3472,986,1049
3473,985,1051
3474,988,1053
3475,989,1057
3476,989,1053
3477,990,1050
3478,987,1048
3479,988,1050
3480,988,1054
3481,993,1053
3482,991,1051
3483,990,1049
3484,987,1044
3485,984,1046
3486,989,1051
3487,993,1056
3488,994,1057
3489,997,1053
3490,991,1048
3491,994,1049
3492,993,1049
3493,995,1052
3494,997,1051
3495,994,1049
3496,992,1049
3497,992,1052
3498,993,1055
3499,997,1056
3500,996,1054
3501,996,1050
3502,993,1048
3503,992,1048
3504,997,1046
3505,1001,1047
3506,1003,1048
3507,998,1044
3508,998,1043
3509,1001,1044
3510,1002,1045
3511,1003,1043
3512,1003,1041
3513,1006,1035
3514,1010,1032
3515,1021,1031
3516,1041,1029
3517,1061,1030
3518,1086,1027
3519,1110,1023
3520,1135,1017
3521,1165,1010
3522,1201,1007
3523,1233,1004
3524,1261,1001
3525,1288,1001
3526,1298,1010
3527,1292,1025
3528,1262,1038
3529,1214,1045
3530,1155,1044
3531,1096,1049
3532,1040,1055
3533,997,1064
3534,972,1070
3535,972,1066
3536,977,1060
3537,988,1053
3538,990,1046
3539,992,1046
3540,989,1048
3541,986,1049
3542,990,1047
3543,989,1044
3544,985,1041
3545,983,1042
3546,984,1046
3547,985,1049
3548,983,1049
3549,980,1046
3550,976,1045
3551,976,1049
3552,979,1052
3553,982,1053
3554,982,1050
3555,976,1044
3556,974,1043
3557,975,1047
3558,977,1052
3559,982,1055
3560,983,1050
3561,977,1047
3562,974,1046
3563,973,1046
3564,977,1049
3565,979,1049
3566,978,1049
3567,976,1047
3568,972,1044
3569,974,1046
3570,973,1047
3571,977,1052
3572,979,1050
3573,976,1042
3574,972,1042
3575,972,1047
3576,974,1048
3577,974,1055
3578,977,1052
3579,971,1048
3580,971,1045
3581,975,1049
3582,974,1051
3583,981,1052
3584,979,1048
3585,975,1045
3586,975,1048
3587,977,1051
3588,983,1054
3589,987,1053
3590,990,1048
3591,984,1043
3592,985,1040
3593,984,1038
3594,988,1039
3595,991,1042
3596,992,1041
3597,993,1036
3598,995,1035
3599,995,1035
3600,996,1036
3601,999,1036
3602,999,1033
3603,1000,1033
3604,999,1029
3605,1001,1029
3606,1004,1030
3607,1007,1034
3608,1011,1031
3609,1008,1024
3610,1009,1023
3611,1012,1024
3612,1016,1025
3613,1020,1026
3614,1020,1024
3615,1022,1023
3616,1018,1019
3617,1017,1021
3618,1023,1022
3619,1026,1021
3620,1025,1019
3621,1023,1016
3622,1022,1016
3623,1024,1017
3624,1025,1019
3625,1030,1018
3626,1029,1016
3627,1028,1015
3628,1026,1014
3629,1024,1019
3630,1025,1018
3631,1029,1020
3632,1032,1017
3633,1029,1016
3634,1025,1015
3635,1024,1018
3636,1026,1021
3637,1027,1024
3638,1029,1022
3639,1024,1020
3640,1020,1020
3641,1020,1019
3642,1019,1024
3643,1023,1027
3644,1017,1027
3645,1014,1026
3646,1010,1025
3647,1010,1032
3648,1012,1034
3649,1011,1037
3650,1007,1038
3651,1006,1033
3652,1001,1033
3653,999,1035
3654,1000,1039
3655,1002,1042
3656,999,1041
3657,997,1040
3658,992,1039
3659,993,1041
3660,997,1045
3661,997,1048
3662,996,1049
3663,994,1047
3664,989,1050
3665,988,1050
3666,991,1054
3667,992,1054
3668,993,1055
3669,992,1051
3670,986,1051
3671,990,1053
3672,992,1055
3673,994,1058
3674,995,1056
3675,991,1052
3676,987,1051
3677,985,1053
3678,986,1055
3679,993,1057
3680,992,1052
3681,986,1048
3682,982,1048
3683,983,1052
3684,985,1055
3685,988,1055
3686,987,1053
3687,988,1050
3688,987,1048
3689,986,1047
3690,989,1050
3691,990,1051
3692,992,1049
3693,992,1046
3694,991,1045
3695,991,1046
3696,992,1049
3697,996,1050
3698,997,1048
3699,996,1044
3700,992,1041
3701,991,1046
3702,992,1047
3703,995,1048
3704,997,1048
3705,996,1046
3706,994,1043
3707,995,1044
3708,999,1043
3709,1001,1046
3710,1000,1045
3711,997,1040
3712,991,1041
3713,994,1044
3714,994,1046
3715,996,1048
3716,996,1047
3717,994,1044
3718,993,1047
3719,992,1048
3720,995,1048
3721,993,1051
3722,994,1048
3723,992,1049
3724,994,1045
3725,993,1045
3726,994,1048
3727,994,1048
3728,994,1045
3729,993,1041
3730,990,1039
3731,989,1040
3732,992,1046
3733,994,1047
3734,995,1048
3735,993,1045
3736,992,1043
3737,990,1042
3738,991,1044
3739,996,1045
3740,991,1044
3741,989,1039
3742,982,1038
3743,987,1038
3744,986,1042
3745,988,1045
3746,989,1044
3747,988,1044
3748,982,1042
3749,983,1042
3750,983,1046
3751,986,1045
3752,983,1044
3753,981,1042
3754,978,1040
3755,981,1043
3756,983,1044
3757,986,1046
3758,984,1044
3759,983,1042
3760,977,1041
3761,977,1040
3762,979,1042
3763,984,1043
3764,983,1044
3765,984,1040
3766,982,1043
3767,983,1043
3768,981,1049
3769,985,1051
3770,984,1049
3771,987,1046
3772,986,1046
3773,982,1046
3774,985,1050
3775,987,1054
3776,989,1054
3777,988,1050
3778,987,1050
3779,991,1051
3780,994,1049
3781,998,1055
3782,995,1054
3783,995,1050
3784,995,1048
3785,997,1047
3786,1009,1046
3787,1016,1043
3788,1027,1039
3789,1040,1036
3790,1052,1036
3791,1076,1037
3792,1109,1036
3793,1142,1028
3794,1175,1018
3795,1208,1008
3796,1237,1001
3797,1269,1005
3798,1293,1017
3799,1301,1031
3800,1285,1045
3801,1248,1047
3802,1197,1048
3803,1137,1052
3804,1077,1063
3805,1018,1075
3806,969,1082
3807,939,1082
3808,931,1081
3809,945,1078
3810,959,1070
3811,969,1064
3812,971,1056
3813,972,1047
3814,970,1041
3815,966,1041
3816,969,1042
3817,972,1047
3818,972,1046
3819,969,1043
3820,966,1041
3821,967,1044
3822,968,1049
3823,969,1049
3824,966,1050
3825,966,1050
3826,963,1045
3827,963,1049
3828,967,1051
3829,970,1054
3830,972,1052
3831,970,1049
3832,967,1047
3833,968,1047
3834,967,1048
3835,969,1049
3836,964,1050
3837,961,1046
3838,961,1044
3839,961,1048
3840,965,1053
3841,970,1053
3842,970,1051
3843,968,1048
3844,967,1049
3845,967,1051
3846,971,1051
3847,975,1051
3848,973,1045
3849,969,1040
3850,966,1039
3851,967,1042
3852,970,1043
3853,974,1046
3854,973,1040
3855,968,1037
3856,965,1035
3857,965,1039
3858,969,1039
3859,971,1041
3860,971,1038
3861,967,1034
3862,963,1031
3863,965,1037
3864,968,1038
3865,971,1038
3866,973,1035
3867,973,1033
3868,970,1028
3869,972,1032
3870,974,1034
3871,978,1036
3872,979,1034
3873,977,1030
3874,977,1031
3875,980,1030
3876,985,1032
3877,988,1031
3878,986,1027
3879,984,1024
3880,984,1022
3881,990,1023
3882,993,1026
3883,998,1026
3884,998,1023
3885,998,1019
3886,995,1018
3887,996,1017
3888,1001,1017
3889,1003,1017
3890,1007,1012
3891,1009,1009
3892,1009,1002
3893,1009,1004
3894,1009,1006
3895,1015,1007
3896,1018,1005
3897,1019,1002
3898,1017,999
3899,1015,998
3900,1016,999
3901,1016,998
3902,1018,995
3903,1013,995
3904,1008,995
3905,1010,999
3906,1011,1002
3907,1013,1007
3908,1011,1006
3909,1005,1007
3910,1003,1009
3911,1000,1013
3912,1002,1017
3913,1001,1020
3914,999,1018
3915,996,1020
3916,992,1023
3917,991,1027
3918,994,1032
3919,990,1038
3920,991,1037
3921,983,1041
3922,978,1040
3923,975,1042
3924,976,1046
3925,979,1049
3926,979,1048
3927,972,1048
3928,968,1047
3929,967,1048
3930,968,1050
3931,969,1054
3932,972,1056
3933,968,1053
3934,963,1053
3935,961,1054
3936,963,1057
3937,967,1060
3938,966,1059
3939,964,1057
3940,961,1057
3941,962,1057
3942,966,1058
3943,967,1060
3944,963,1060
3945,965,1057
3946,965,1054
3947,965,1057
3948,966,1061
3949,968,1061
3950,968,1061
3951,967,1056
3952,965,1057
3953,967,1059
3954,971,1059
3955,971,1061
3956,970,1057
3957,967,1053
3958,966,1050
3959,967,1056
3960,971,1055
3961,975,1058
3962,975,1056
3963,972,1053
3964,971,1051
3965,969,1052
3966,975,1055
3967,978,1057
3968,975,1054
3969,973,1050
3970,970,1046
3971,970,1046
3972,973,1048
3973,975,1051
3974,976,1049
3975,975,1046
3976,974,1043
3977,976,1049
3978,977,1048
3979,979,1048
3980,975,1046
3981,973,1045
3982,970,1043
3983,971,1045
3984,976,1048
3985,975,1047
3986,973,1046
3987,969,1044
3988,968,1045
3989,969,1045
3990,975,1051
3991,974,1055
3992,976,1051
3993,973,1050
3994,970,1050
3995,969,1051
3996,971,1056
3997,974,1058
3998,976,1059
3999,971,1054
4000,970,1054
4001,969,1054
4002,969,1058
4003,973,1058
4004,973,1057
4005,971,1052
4006,969,1051
4007,967,1053
4008,966,1057
4009,970,1061
4010,969,1054
4011,967,1050
4012,965,1046
4013,965,1050
4014,965,1049
4015,968,1049
4016,968,1047
4017,967,1041
4018,963,1041
4019,969,1041
4020,969,1043
4021,971,1046
4022,968,1045
4023,966,1043
4024,967,1041
4025,969,1043
4026,971,1047
4027,973,1047
4028,971,1046
4029,970,1042
4030,966,1042
4031,965,1046
4032,968,1047
4033,969,1046
4034,965,1044
4035,964,1044
4036,964,1044
4037,965,1049
4038,965,1051
4039,968,1053
4040,969,1049
4041,966,1047
4042,967,1048
4043,966,1049
4044,966,1054
4045,971,1055
4046,970,1056
4047,968,1051
4048,970,1050
4049,969,1051
4050,970,1056
4051,972,1059
4052,973,1056
4053,971,1052
4054,967,1049
4055,968,1053
4056,970,1055
4057,971,1054
4058,971,1052
4059,970,1051
4060,967,1048
4061,969,1053
4062,971,1054
4063,972,1054
4064,969,1051
4065,967,1049
4066,966,1047
4067,965,1048
4068,967,1054
4069,974,1052
4070,973,1048
4071,970,1048
4072,968,1046
4073,967,1047
4074,969,1049
4075,970,1049
4076,969,1046
4077,970,1048
4078,970,1047
4079,973,1046
4080,974,1050
4081,976,1052
4082,974,1051
4083,973,1047
4084,968,1052
4085,968,1051
4086,969,1054
4087,973,1054
4088,976,1050
4089,972,1050
4090,972,1049
4091,972,1049
4092,973,1053
4093,977,1056
4094,977,1049
4095,974,1047
4096,970,1046
4097,971,1052
4098,974,1055
4099,978,1055
4100,979,1055
4101,976,1049
4102,975,1048
4103,977,1051
4104,981,1054
4105,983,1056
4106,986,1054
4107,982,1048
4108,979,1044
4109,978,1046
4110,980,1049
4111,986,1046
4112,988,1044
4113,985,1040
4114,982,1039
4115,983,1039
4116,990,1037
4117,1001,1035
4118,1018,1032
4119,1026,1030
4120,1045,1027
4121,1069,1029
4122,1096,1028
4123,1130,1021
4124,1167,1016
4125,1201,1003
4126,1230,997
4127,1266,1003
4128,1295,1011
4129,1309,1030
4130,1296,1039
4131,1261,1046
4132,1205,1047
4133,1147,1050
4134,1094,1058
4135,1042,1068
4136,993,1072
4137,961,1071
4138,947,1070
4139,954,1069
4140,967,1063
4141,981,1055
4142,979,1047
4143,976,1044
4144,969,1044
4145,970,1044
4146,968,1044
4147,972,1047
4148,969,1047
4149,965,1044
4150,963,1047
4151,963,1050
4152,963,1052
4153,963,1052
4154,963,1049
4155,961,1047
4156,959,1046
4157,956,1049
4158,960,1051
4159,959,1051
4160,961,1045
4161,958,1044
4162,957,1042
4163,956,1048
4164,955,1051
4165,960,1052
4166,962,1048
4167,959,1045
4168,957,1046
4169,954,1045
4170,956,1049
4171,959,1049
4172,961,1049
4173,961,1046
4174,956,1046
4175,955,1050
4176,960,1052
4177,962,1052
4178,959,1050
4179,956,1045
4180,949,1045
4181,954,1050
4182,958,1049
4183,965,1051
4184,961,1048
4185,957,1044
4186,955,1043
4187,955,1045
4188,957,1047
4189,963,1047
4190,962,1045
4191,962,1042
4192,959,1043
4193,961,1048
4194,962,1049
4195,967,1050
4196,967,1047
4197,969,1042
4198,967,1040
4199,967,1041
4200,973,1042
4201,977,1043
4202,979,1042
4203,981,1038
4204,982,1037
4205,982,1037
4206,986,1038
4207,991,1035
4208,992,1033
4209,987,1027
4210,989,1027
4211,988,1028
4212,994,1029
4213,1000,1028
4214,1002,1026
4215,1000,1019
4216,997,1016
4217,997,1019
4218,1001,1021
4219,1005,1019
4220,1003,1015
4221,1001,1011
4222,1002,1010
4223,997,1009
4224,1005,1014
4225,1006,1013
4226,1007,1011
4227,1003,1007
4228,1004,1006
4229,1001,1008
4230,1003,1008
4231,1006,1007
4232,1006,1004
4233,1004,1004
4234,1002,1002
4235,1002,1002
4236,1004,1005
4237,1003,1008
4238,1000,1008
4239,998,1007
4240,993,1008
4241,992,1016
4242,993,1023
4243,998,1025
4244,996,1027
4245,992,1028
4246,988,1031
4247,984,1034
4248,988,1039
4249,991,1043
4250,985,1039
4251,984,1040
4252,977,1040
4253,976,1044
4254,976,1049
4255,979,1049
4256,977,1048
4257,973,1043
4258,969,1044
4259,969,1050
4260,971,1053
4261,972,1051
4262,969,1049
4263,967,1045
4264,964,1045
4265,963,1049
4266,960,1054
4267,965,1054
4268,962,1053
4269,959,1050
4270,957,1050
4271,953,1050
4272,956,1050
4273,958,1055
4274,962,1055
4275,962,1053
4276,957,1051
4277,952,1050
4278,953,1055
4279,958,1055
4280,960,1052
4281,960,1051
4282,952,1053
4283,952,1052
4284,959,1058
4285,963,1058
4286,962,1055
4287,960,1052
4288,956,1050
4289,959,1054
4290,960,1057
4291,962,1059
4292,962,1058
4293,959,1055
4294,959,1053
4295,962,1056
4296,962,1059
4297,969,1061
4298,970,1057
4299,970,1054
4300,969,1053
4301,971,1056
4302,972,1059
4303,974,1061
4304,975,1058
4305,971,1053
4306,967,1050
4307,971,1054
4308,974,1056
4309,975,1057
4310,970,1054
4311,963,1051
4312,965,1051
4313,968,1053
4314,971,1054
4315,974,1052
4316,966,1049
4317,963,1048
4318,964,1048
4319,967,1051
4320,969,1054
4321,971,1053
4322,971,1050
4323,968,1046
4324,965,1047
4325,965,1048
4326,967,1053
4327,964,1051
4328,962,1049
4329,960,1050
4330,961,1048
4331,962,1050
4332,964,1054
4333,969,1055
4334,968,1055
4335,966,1050
4336,959,1050
4337,958,1051
4338,961,1056
4339,964,1056
4340,960,1054
4341,958,1052
4342,956,1053
4343,958,1054
4344,965,1059
4345,968,1058
4346,967,1057
4347,967,1051
4348,965,1052
4349,964,1054
4350,968,1059
4351,969,1057
4352,967,1058
4353,965,1054
4354,964,1053
4355,964,1058
4356,965,1058
4357,966,1054
4358,966,1052
4359,961,1049
4360,961,1051
4361,962,1054
4362,963,1052
4363,965,1051
4364,963,1050
4365,960,1048
4366,958,1050
4367,960,1052
4368,963,1052
4369,965,1051
4370,967,1048
4371,962,1051
4372,957,1051
4373,956,1051
4374,959,1052
4375,960,1054
4376,963,1052
4377,962,1054
4378,959,1055
4379,956,1055
4380,956,1055
4381,960,1053
4382,962,1050
4383,960,1050
4384,960,1052
4385,960,1052
4386,963,1059
4387,966,1058
4388,967,1055
4389,965,1056
4390,960,1054
4391,959,1056
4392,961,1059
4393,964,1060
4394,965,1055
4395,965,1055
4396,962,1055
4397,962,1055
4398,965,1060
4399,970,1061
4400,964,1057
4401,964,1053
4402,964,1054
4403,964,1053
4404,966,1055
4405,972,1057
4406,971,1055
4407,967,1055
4408,963,1054
4409,963,1057
4410,966,1057
4411,967,1056
4412,966,1055
4413,962,1053
4414,961,1055
4415,963,1056
4416,965,1056
4417,969,1058
4418,968,1059
4419,964,1056
4420,961,1055
4421,960,1056
4422,960,1057
4423,963,1058
4424,964,1057
4425,959,1052
4426,955,1051
4427,958,1055
4428,964,1057
4429,968,1056
4430,966,1056
4431,962,1053
4432,962,1053
4433,959,1055
4434,966,1057
4435,968,1057
4436,968,1055
4437,964,1054
4438,958,1053
4439,956,1056
4440,961,1059
4441,968,1060
4442,966,1056
4443,963,1052
4444,960,1053
4445,963,1058
4446,963,1062
4447,969,1059
4448,965,1058
4449,964,1053
4450,964,1053
4451,965,1054
4452,968,1059
4453,970,1055
4454,971,1054
4455,969,1051
4456,966,1052
4457,970,1053
4458,973,1056
4459,978,1053
4460,976,1055
4461,973,1051
4462,968,1052
4463,967,1053
4464,969,1056
4465,975,1055
4466,973,1053
4467,968,1050
4468,971,1053
4469,974,1053
4470,976,1054
4471,979,1055
4472,978,1055
4473,979,1051
4474,974,1050
4475,975,1051
4476,978,1055
4477,984,1051
4478,985,1048
4479,993,1041
4480,1009,1039
4481,1023,1040
4482,1054,1043
4483,1084,1041
4484,1121,1030
4485,1160,1018
4486,1199,1006
4487,1237,1008
4488,1272,1013
4489,1295,1025
4490,1294,1038
4491,1266,1053
4492,1212,1056
4493,1148,1058
4494,1090,1068
4495,1029,1079
4496,973,1086
4497,936,1085
4498,928,1088
4499,943,1089
4500,953,1082
4501,968,1077
4502,969,1070
4503,964,1065
4504,960,1064
4505,960,1069
4506,963,1075
4507,969,1078
4508,968,1071
4509,966,1060
4510,957,1053
4511,960,1045
4512,963,1044
4513,965,1044
4514,966,1045
4515,958,1043
4516,955,1042
4517,955,1047
4518,957,1047
4519,960,1046
4520,955,1043
4521,952,1042
4522,947,1044
4523,951,1045
4524,955,1048
4525,956,1048
4526,950,1046
4527,948,1044
4528,943,1041
4529,948,1045
4530,947,1048
4531,954,1050
4532,952,1049
4533,951,1045
4534,948,1044
4535,948,1047
4536,949,1049
4537,952,1050
4538,956,1045
4539,951,1046
4540,950,1048
4541,953,1051
4542,956,1057
4543,962,1057
4544,960,1055
4545,958,1052
4546,958,1054
4547,961,1056
4548,964,1056
4549,966,1058
4550,963,1056
4551,957,1051
4552,954,1051
4553,962,1051
4554,965,1054
4555,973,1054
4556,973,1052
4557,973,1048
4558,970,1043
4559,972,1043
4560,973,1045
4561,981,1043
4562,981,1041
4563,979,1037
4564,979,1034
4565,982,1037
4566,985,1034
4567,984,1031
4568,983,1026
4569,983,1024
4570,985,1018
4571,987,1020
4572,989,1022
4573,990,1018
4574,993,1015
4575,991,1011
4576,992,1008
4577,989,1006
4578,993,1006
4579,997,1005
4580,998,1003
4581,997,997
4582,996,998
4583,999,1000
4584,1002,1004
4585,1002,1002
4586,1004,1003
4587,1002,1000
4588,999,1001
4589,999,1004
4590,1001,1005
4591,1001,1008
4592,1002,1009
4593,1002,1007
4594,1000,1009
4595,999,1013
4596,1003,1018
4597,1005,1022
4598,1005,1022
4599,998,1022
4600,994,1024
4601,990,1028
4602,995,1032
4603,996,1033
4604,993,1036
4605,986,1036
4606,979,1038
4607,980,1043
4608,981,1048
4609,982,1046
4610,981,1045
4611,975,1044
4612,970,1044
4613,969,1050
4614,967,1055
4615,969,1056
4616,966,1052
4617,962,1049
4618,959,1048
4619,963,1050
4620,963,1053
4621,967,1054
4622,964,1049
4623,960,1046
4624,955,1052
4625,957,1051
4626,962,1053
4627,965,1053
4628,966,1051
4629,963,1051
4630,962,1051
4631,963,1056
4632,964,1057
4633,965,1056
4634,965,1053
4635,966,1052
4636,960,1051
4637,960,1056
4638,963,1059
4639,969,1061
4640,966,1059
4641,963,1058
4642,966,1059
4643,966,1060
4644,972,1061
4645,972,1062
4646,972,1063
4647,970,1059
4648,967,1061
4649,971,1062
4650,975,1064
4651,978,1064
4652,977,1058
4653,972,1055
4654,972,1053
4655,971,1056
4656,970,1059
4657,976,1060
4658,972,1055
4659,972,1054
4660,969,1053
4661,970,1052
4662,978,1054
4663,980,1049
4664,979,1050
4665,977,1045
4666,973,1046
4667,973,1049
4668,974,1053
4669,978,1055
4670,977,1053
4671,975,1052
4672,971,1048
4673,971,1053
4674,976,1052
4675,980,1056
4676,981,1053
4677,978,1048
4678,974,1051
4679,973,1054
4680,977,1057
4681,980,1056
4682,980,1048
4683,975,1046
4684,969,1047
4685,971,1048
4686,973,1052
4687,976,1054
4688,977,1049
4689,975,1046
4690,971,1043
4691,973,1047
4692,976,1051
4693,978,1051
4694,975,1047
4695,970,1043
4696,971,1047
4697,970,1051
4698,974,1055
4699,977,1054
4700,977,1049
4701,972,1046
4702,968,1047
4703,970,1050
4704,971,1053
4705,971,1053
4706,972,1050
4707,971,1049
4708,971,1050
4709,972,1053
4710,973,1057
4711,978,1057
4712,977,1055
4713,974,1053
4714,970,1049
4715,971,1055
4716,978,1056
4717,976,1055
4718,974,1056
4719,972,1054
4720,970,1056
4721,972,1057
4722,975,1056
4723,981,1056
4724,978,1056
4725,975,1051
4726,973,1050
4727,974,1056
4728,977,1058
4729,979,1057
4730,978,1056
4731,977,1054
4732,975,1052
4733,977,1053
4734,976,1055
4735,973,1053
4736,973,1051
4737,971,1045
4738,972,1045
4739,974,1047
4740,976,1049
4741,978,1051
4742,973,1048
4743,974,1046
4744,971,1044
4745,975,1046
4746,975,1048
4747,975,1046
4748,977,1044
4749,972,1040
4750,971,1040
4751,971,1044
4752,971,1047
4753,972,1048
4754,974,1050
4755,972,1048
4756,975,1048
4757,973,1052
4758,976,1051
4759,978,1051
4760,974,1047
4761,971,1045
4762,970,1046
4763,969,1052
4764,973,1058
4765,979,1059
4766,978,1055
4767,972,1051
4768,970,1051
4769,972,1054
4770,976,1057
4771,980,1055
4772,978,1053
4773,977,1050
4774,974,1056
4775,977,1058
4776,979,1063
4777,982,1061
4778,982,1061
4779,977,1054
4780,973,1051
4781,974,1049
4782,980,1049
4783,987,1047
4784,987,1045
4785,984,1045
4786,980,1044
4787,981,1047
4788,980,1051
4789,984,1050
4790,984,1049
4791,978,1043
4792,974,1043
4793,976,1045
4794,982,1047
4795,985,1045
4796,985,1049
4797,982,1048
4798,979,1048
4799,978,1051
4800,977,1053
4801,979,1055
4802,980,1053
4803,979,1048
4804,977,1049
4805,978,1051
4806,983,1055
4807,985,1057
4808,982,1055
4809,980,1049
4810,978,1052
4811,978,1053
4812,984,1058
4813,986,1055
4814,982,1050
4815,979,1047
4816,973,1049
4817,978,1050
4818,987,1053
4819,990,1055
4820,984,1055
4821,983,1053
4822,981,1050
4823,982,1051
4824,984,1049
4825,988,1047
4826,990,1038
4827,992,1029
4828,996,1027
4829,1012,1024
4830,1032,1026
4831,1050,1022
4832,1071,1019
4833,1103,1014
4834,1139,1011
4835,1181,1002
4836,1222,1002
4837,1257,1001
4838,1281,1006
4839,1290,1018
4840,1279,1033
4841,1243,1049
4842,1191,1052
4843,1131,1052
4844,1063,1059
4845,994,1067
4846,951,1078
4847,942,1086
4848,960,1085
4849,975,1073
4850,982,1059
4851,983,1052
4852,980,1052
4853,976,1052
4854,973,1054
4855,974,1054
4856,971,1052
4857,971,1048
4858,966,1047
4859,968,1049
4860,968,1053
4861,966,1050
4862,965,1049
4863,962,1044
4864,964,1045
4865,964,1051
4866,966,1055
4867,968,1052
4868,964,1050
4869,964,1047
4870,964,1045
4871,962,1045
4872,966,1047
4873,970,1045
4874,971,1047
4875,968,1046
4876,964,1046
4877,967,1046
4878,965,1050
4879,967,1052
4880,964,1050
4881,962,1045
4882,961,1043
4883,962,1044
4884,964,1047
4885,970,1051
4886,970,1048
4887,970,1046
4888,966,1044
4889,966,1048
4890,969,1052
4891,971,1054
4892,967,1054
4893,963,1050
4894,963,1044
4895,963,1043
4896,969,1045
4897,972,1043
4898,972,1039
4899,970,1036
4900,971,1035
4901,971,1035
4902,973,1039
4903,976,1038
4904,977,1035
4905,976,1031
4906,979,1034
4907,981,1034
4908,989,1036
4909,987,1031
4910,987,1027
4911,989,1024
4912,988,1026
4913,988,1029
4914,993,1028
4915,999,1026
4916,1001,1021
4917,1001,1017
4918,999,1017
4919,1007,1017
4920,1012,1021
4921,1015,1017
4922,1016,1014
4923,1018,1010
4924,1019,1010
4925,1019,1010
4926,1023,1008
4927,1028,1006
4928,1026,1003
4929,1023,1000
4930,1023,1002
4931,1022,1005
4932,1026,1006
4933,1027,1006
4934,1025,1005
4935,1026,1004
4936,1023,1004
4937,1019,1010
4938,1020,1015
4939,1019,1016
4940,1016,1017
4941,1012,1013
4942,1006,1013
4943,1007,1019
4944,1006,1022
4945,1008,1023
4946,1002,1030
4947,1000,1030
4948,1001,1035
4949,997,1033
4950,997,1037
4951,994,1038
4952,990,1041
4953,983,1044
4954,980,1044
4955,977,1049
4956,984,1054
4957,984,1053
4958,987,1048
4959,984,1046
4960,978,1049
4961,978,1053
4962,980,1060
4963,982,1057
4964,977,1052
4965,976,1048
4966,974,1050
4967,975,1051
4968,980,1055
4969,979,1057
4970,977,1055
4971,973,1052
4972,969,1053
4973,968,1057
4974,972,1061
4975,976,1059
4976,973,1056
4977,972,1052
4978,970,1053
4979,969,1054
4980,968,1060
4981,969,1061
4982,972,1062
4983,972,1061
4984,975,1061
4985,976,1061
4986,975,1060
4987,975,1059
4988,973,1054
4989,973,1051
4990,969,1047
4991,967,1054
4992,974,1060
4993,982,1062
4994,980,1058
4995,976,1054
4996,970,1056
4997,970,1057
4998,974,1061
4999,976,1058
5000,978,1057
5001,973,1054
5002,976,1053
5003,978,1057
5004,982,1059
5005,984,1058
5006,982,1059
5007,981,1059
5008,979,1054
5009,979,1052
5010,981,1053
5011,985,1055
5012,984,1052
5013,982,1050
5014,980,1055
5015,984,1055
5016,984,1060
5017,988,1058
5018,987,1057
5019,984,1055
5020,979,1052
5021,982,1054
5022,982,1052
5023,985,1055
5024,983,1055
5025,980,1051
5026,977,1052
5027,975,1052
5028,977,1054
5029,983,1050
5030,979,1050
5031,980,1045
5032,975,1051
5033,978,1053
5034,979,1056
5035,982,1057
5036,977,1052
5037,976,1048
5038,976,1043
5039,974,1041
5040,973,1047
5041,972,1049
5042,974,1051
5043,973,1047
5044,974,1045
5045,973,1047
5046,975,1052
5047,975,1051
5048,976,1049
5049,977,1046
5050,974,1046
5051,975,1049
5052,977,1051
5053,979,1053
5054,981,1052
5055,979,1051
5056,977,1051
5057,978,1057
5058,980,1059
5059,982,1055
5060,981,1055
5061,980,1053
5062,977,1051
5063,979,1057
5064,982,1059
5065,985,1057
5066,987,1053
5067,980,1049
5068,980,1049
5069,983,1055
5070,986,1059
5071,987,1057
5072,987,1056
5073,981,1054
5074,982,1053
5075,982,1055
5076,983,1059
5077,982,1054
5078,981,1046
5079,979,1043
5080,984,1042
5081,998,1044
5082,1012,1044
5083,1033,1041
5084,1053,1041
5085,1074,1036
5086,1097,1029
5087,1128,1027
5088,1166,1023
5089,1206,1015
5090,1245,1012
5091,1271,1015
5092,1295,1028
5093,1297,1048
5094,1279,1063
5095,1236,1064
5096,1177,1059
5097,1116,1058
5098,1053,1067
5099,988,1088
5100,945,1101
5101,925,1105
5102,932,1101
5103,944,1091
5104,954,1078
5105,961,1064
5106,968,1064
5107,977,1054
5108,974,1048
5109,968,1045
5110,965,1044
5111,967,1044
5112,968,1046
5113,968,1046
5114,964,1045
5115,959,1047
5116,958,1047
5117,959,1050
5118,961,1050
5119,963,1051
5120,964,1050
5121,959,1046
5122,959,1048
5123,961,1049
5124,960,1050
5125,964,1053
5126,964,1051
5127,961,1053
5128,958,1050
5129,959,1049
5130,962,1052
5131,965,1049
5132,961,1049
5133,958,1049
5134,957,1050
5135,960,1051
5136,962,1053
5137,962,1050
5138,960,1048
5139,955,1046
5140,954,1045
5141,956,1049
5142,962,1048
5143,964,1042
5144,964,1038
5145,960,1032
5146,960,1031
5147,959,1033
5148,967,1035
5149,970,1038
5150,971,1038
5151,966,1035
5152,966,1034
5153,965,1037
5154,972,1039
5155,974,1039
5156,973,1037
5157,973,1034
5158,968,1034
5159,968,1037
5160,975,1039
5161,978,1036
5162,981,1033
5163,981,1030
5164,981,1029
5165,983,1031
5166,986,1032
5167,989,1030
5168,986,1030
5169,983,1027
5170,984,1021
5171,992,1020
5172,996,1022
5173,1002,1021
5174,1002,1015
5175,1003,1011
5176,1004,1008
5177,1008,1009
5178,1014,1009
5179,1016,1006
5180,1015,1002
5181,1012,1000
5182,1012,1000
5183,1016,1001
5184,1015,1001
5185,1017,994
5186,1018,992
5187,1013,986
5188,1010,989
5189,1010,989
5190,1020,994
5191,1017,996
5192,1016,997
5193,1018,995
5194,1015,995
5195,1013,999
5196,1015,1002
5197,1015,1003
5198,1007,1006
5199,1004,1005
5200,1002,1011
5201,1000,1015
5202,999,1022
5203,998,1027
5204,991,1028
5205,986,1027
5206,983,1030
5207,984,1032
5208,982,1037
5209,981,1038
5210,975,1040
5211,970,1041
5212,971,1045
5213,973,1047
5214,974,1050
5215,969,1051
5216,965,1051
5217,960,1052
5218,963,1051
5219,966,1054
5220,968,1055
5221,969,1056
5222,970,1055
5223,970,1054
5224,969,1057
5225,969,1062
5226,970,1066
5227,971,1064
5228,970,1058
5229,967,1056
5230,962,1053
5231,963,1055
5232,965,1060
5233,971,1058
5234,970,1052
5235,967,1047
5236,967,1046
5237,969,1051
5238,970,1053
5239,969,1053
5240,969,1048
5241,969,1046
5242,969,1046
5243,971,1047
5244,974,1053
5245,976,1052
5246,973,1048
5247,972,1045
5248,969,1048
5249,970,1053
5250,972,1056
5251,976,1056
5252,976,1051
5253,975,1048
5254,972,1051
5255,972,1054
5256,972,1058
5257,979,1054
5258,977,1052
5259,978,1049
5260,976,1047
5261,975,1051
5262,975,1052
5263,980,1054
5264,976,1052
5265,974,1051
5266,973,1054
5267,973,1056
5268,977,1055
5269,978,1053
5270,978,1047
5271,974,1044
5272,971,1044
5273,976,1049
5274,976,1054
5275,979,1051
5276,979,1048
5277,974,1047
5278,972,1047
5279,973,1052
5280,972,1053
5281,973,1051
5282,973,1052
5283,973,1050
5284,968,1055
5285,970,1056
5286,975,1052
5287,980,1049
5288,980,1038
5289,973,1034
5290,970,1036
5291,971,1042
5292,975,1049
5293,982,1050
5294,978,1045
5295,976,1044
5296,974,1045
5297,975,1047
5298,978,1051
5299,981,1052
5300,980,1050
5301,974,1047
5302,971,1049
5303,974,1050
5304,975,1054
5305,978,1053
5306,979,1054
5307,974,1052
5308,975,1054
5309,974,1058
5310,976,1061
5311,977,1062
5312,975,1062
5313,974,1061
5314,973,1060
5315,975,1061
5316,975,1057
5317,976,1048
5318,977,1041
5319,974,1035
5320,969,1037
5321,968,1039
5322,971,1044
5323,974,1044
5324,973,1044
5325,970,1040
5326,966,1040
5327,969,1043
5328,971,1046
5329,976,1045
5330,978,1044
5331,978,1043
5332,974,1043
5333,975,1047
5334,977,1050
5335,981,1051
5336,979,1047
5337,975,1043
5338,971,1039
5339,972,1043
5340,977,1047
5341,984,1047
5342,987,1041
5343,991,1036
5344,999,1033
5345,1009,1034
5346,1028,1036
5347,1044,1034
5348,1066,1032
5349,1093,1029
5350,1124,1025
5351,1163,1019
5352,1207,1015
5353,1247,1014
5354,1282,1016
5355,1304,1027
5356,1301,1043
5357,1278,1056
5358,1233,1063
5359,1170,1057
5360,1111,1061
5361,1045,1067
5362,988,1075
5363,950,1082
5364,943,1085
5365,953,1082
5366,963,1069
5367,967,1058
5368,969,1053
5369,969,1052
5370,969,1052
5371,968,1049
5372,964,1051
5373,962,1046
5374,960,1043
5375,964,1040
5376,965,1044
5377,966,1047
5378,958,1043
5379,956,1041
5380,958,1041
5381,958,1046
5382,963,1049
5383,960,1048
5384,961,1048
5385,959,1045
5386,958,1047
5387,958,1051
5388,959,1052
5389,961,1053
5390,959,1052
5391,959,1050
5392,956,1049
5393,961,1049
5394,959,1051
5395,962,1049
5396,955,1048
5397,953,1043
5398,951,1045
5399,953,1047
5400,958,1051
5401,961,1051
5402,960,1046
5403,956,1045
5404,957,1045
5405,957,1045
5406,958,1044
5407,960,1046
5408,960,1045
5409,955,1038
5410,959,1036
5411,962,1033
5412,963,1039
5413,966,1039
5414,962,1040
5415,962,1039
5416,959,1040
5417,957,1043
5418,960,1047
5419,965,1044
5420,962,1037
5421,961,1036
5422,962,1034
5423,963,1036
5424,973,1036
5425,973,1037
5426,972,1034
5427,969,1034
5428,972,1036
5429,975,1036
5430,979,1039
5431,980,1034
5432,983,1034
5433,980,1029
5434,979,1029
5435,983,1030
5436,988,1033
5437,990,1029
5438,993,1026
5439,991,1023
5440,992,1022
5441,992,1025
5442,998,1026
5443,1001,1028
5444,1003,1022
5445,1005,1015
5446,1000,1014
5447,1002,1015
5448,1005,1015
5449,1009,1015
5450,1006,1012
5451,1008,1008
5452,1008,1010
5453,1013,1010
5454,1014,1013
5455,1018,1014
5456,1017,1010
5457,1017,1004
5458,1015,1001
5459,1014,999
5460,1017,1000
5461,1014,1003
5462,1011,1004
5463,1008,1004
5464,1003,1006
5465,1005,1008
5466,1007,1013
5467,1008,1011
5468,1006,1013
5469,1001,1012
5470,993,1018
5471,990,1022
5472,991,1028
5473,989,1028
5474,987,1027
5475,982,1026
5476,979,1031
5477,977,1035
5478,982,1039
5479,984,1041
5480,983,1038
5481,979,1037
5482,973,1041
5483,974,1045
5484,977,1048
5485,979,1046
5486,975,1047
5487,972,1046
5488,970,1047
5489,974,1049
5490,974,1053
5491,979,1051
5492,973,1048
5493,971,1047
5494,967,1053
5495,968,1059
5496,975,1062
5497,978,1063
5498,977,1057
5499,973,1054
5500,970,1054
5501,971,1054
5502,974,1057
5503,977,1057
5504,974,1055
5505,974,1052
5506,975,1051
5507,979,1051
5508,983,1051
5509,990,1050
5510,990,1050
5511,990,1048
5512,989,1051
5513,999,1057
5514,1000,1060
5515,1005,1059
5516,1005,1058
5517,1008,1056
5518,1013,1055
5519,1025,1055
5520,1042,1052
5521,1055,1039
5522,1066,1028
5523,1074,1010
5524,1083,1000
5525,1094,991
5526,1109,982
5527,1122,972
5528,1134,959
5529,1144,943
5530,1156,928
5531,1175,908
5532,1194,893
5533,1212,881
5534,1226,868
5535,1233,855
5536,1235,845
5537,1229,845
5538,1231,847
5539,1228,850
5540,1227,849
5541,1221,845
5542,1210,849
5543,1195,857
5544,1180,864
5545,1159,868
5546,1131,876
5547,1107,884
5548,1088,895
5549,1071,907
5550,1057,918
5551,1047,930
5552,1037,941
5553,1025,949
5554,1023,951
5555,1023,954
5556,1020,962
5557,1021,972
5558,1024,979
5559,1031,988
5560,1043,995
5561,1059,1005
5562,1072,1010
5563,1070,1012
5564,1056,1012
5565,1026,1011
5566,992,1017
5567,965,1028
5568,951,1037
5569,941,1044
5570,934,1054
5571,925,1062
5572,924,1068
5573,919,1072
5574,917,1077
5575,917,1077
5576,912,1077
5577,905,1078
5578,905,1078
5579,903,1083
5580,901,1090
5581,897,1092
5582,896,1091
5583,891,1092
5584,889,1090
5585,891,1099
5586,891,1103
5587,891,1105
5588,883,1103
5589,880,1101
5590,879,1103
5591,881,1105
5592,885,1109
5593,889,1108
5594,886,1106
5595,882,1106
5596,877,1106
5597,877,1112
5598,879,1115
5599,877,1115
5600,875,1113
5601,870,1110
5602,870,1116
5603,871,1118
5604,869,1121
5605,869,1121
5606,864,1122
5607,863,1120
5608,861,1122
5609,868,1126
5610,870,1128
5611,870,1128
5612,866,1127
5613,866,1128
5614,866,1132
5615,868,1136
5616,871,1138
5617,868,1139
5618,864,1139
5619,865,1138
5620,864,1137
5621,869,1142
5622,871,1147
5623,873,1145
5624,868,1144
5625,864,1144
5626,865,1149
5627,865,1154
5628,870,1155
5629,871,1151
5630,874,1149
5631,869,1146
5632,867,1152
5633,873,1156
5634,880,1158
5635,879,1155
5636,881,1150
5637,876,1145
5638,880,1143
5639,890,1145
5640,896,1145
5641,902,1141
5642,906,1136
5643,905,1132
5644,906,1130
5645,909,1133
5646,918,1132
5647,923,1129
5648,925,1121
5649,924,1118
5650,929,1113
5651,934,1113
5652,943,1113
5653,946,1108
5654,947,1103
5655,945,1096
5656,947,1096
5657,954,1096
5658,955,1092
5659,958,1085
5660,960,1081
5661,955,1074
5662,957,1071
5663,958,1070
5664,961,1070
5665,957,1068
5666,960,1064
5667,961,1058
5668,961,1059
5669,962,1061
5670,965,1064
5671,966,1060
5672,967,1059
5673,964,1055
5674,964,1055
5675,963,1056
5676,966,1054
5677,964,1048
5678,962,1046
5679,964,1043
5680,962,1046
5681,962,1050
5682,964,1055
5683,964,1056
5684,964,1055
5685,963,1050
5686,963,1048
5687,964,1049
5688,967,1052
5689,968,1049
5690,962,1045
5691,959,1043
5692,958,1045
5693,964,1050
5694,967,1051
5695,970,1049
5696,968,1046
5697,965,1042
5698,966,1041
5699,967,1043
5700,969,1045
5701,969,1044
5702,967,1040
5703,967,1041
5704,968,1040
5705,972,1041
5706,972,1043
5707,977,1042
5708,974,1039
5709,973,1038
5710,974,1039
5711,974,1041
5712,979,1046
5713,979,1044
5714,976,1039
5715,969,1039
5716,969,1039
5717,973,1039
5718,976,1042
5719,977,1044
5720,973,1041
5721,966,1044
5722,969,1041
5723,976,1046
5724,978,1045
5725,979,1040
5726,976,1034
5727,968,1031
5728,968,1036
5729,976,1039
5730,978,1042
5731,978,1042
5732,977,1041
5733,972,1042
5734,972,1041
5735,976,1039
5736,976,1036
5737,976,1033
5738,974,1033
5739,973,1030
5740,971,1032
5741,974,1037
5742,977,1041
5743,976,1041
5744,975,1040
5745,972,1041
5746,969,1044
5747,969,1045
5748,970,1048
5749,971,1045
5750,971,1041
5751,968,1034
5752,968,1034
5753,967,1038
5754,970,1041
5755,973,1042
5756,970,1039
5757,967,1038
5758,966,1041
5759,968,1047
5760,968,1050
5761,970,1043
5762,967,1038
5763,964,1033
5764,964,1035
5765,967,1039
5766,971,1045
5767,973,1045
5768,976,1043
5769,974,1042
5770,967,1040
5771,969,1040
5772,971,1045
5773,975,1048
5774,971,1050
5775,968,1050
5776,968,1048
5777,972,1048
5778,973,1048
5779,974,1045
5780,968,1042
5781,965,1040
5782,962,1041
5783,967,1044
5784,970,1042
5785,972,1041
5786,970,1037
5787,969,1035
5788,968,1036
5789,973,1038
5790,973,1042
5791,969,1038
5792,971,1037
5793,967,1035
5794,966,1037
5795,965,1039
5796,971,1042
5797,974,1039
5798,975,1038
5799,972,1036
5800,971,1038
5801,972,1039
5802,970,1041
5803,971,1041
5804,975,1037
5805,970,1036
5806,969,1037
5807,971,1041
5808,974,1047
5809,975,1046
5810,977,1046
5811,974,1043
5812,975,1043
5813,973,1047
5814,977,1048
5815,979,1046
5816,975,1040
5817,974,1038
5818,972,1039
5819,973,1042
5820,977,1045
5821,979,1043
5822,978,1042
5823,974,1040
5824,974,1044
5825,979,1046
5826,982,1048
5827,985,1049
5828,979,1048
5829,977,1051
5830,976,1048
5831,979,1048
5832,979,1049
5833,986,1045
5834,988,1039
5835,990,1035
5836,993,1033
5837,1001,1029
5838,1015,1031
5839,1031,1027
5840,1051,1021
5841,1072,1020
5842,1096,1014
5843,1127,1013
5844,1161,1009
5845,1197,1003
5846,1229,1000
5847,1257,1002
5848,1279,1014
5849,1295,1026
5850,1292,1038
5851,1266,1044
5852,1222,1041
5853,1167,1035
5854,1115,1038
5855,1059,1047
5856,1011,1052
5857,968,1056
5858,946,1060
5859,936,1061
5860,949,1059
5861,960,1058
5862,970,1051
5863,973,1044
5864,971,1038
5865,966,1034
5866,965,1034
5867,963,1038
5868,966,1039
5869,966,1034
5870,966,1032
5871,961,1031
5872,958,1036
5873,961,1039
5874,961,1040
5875,962,1041
5876,959,1038
5877,961,1034
5878,959,1038
5879,963,1040
5880,965,1047
5881,966,1049
5882,962,1048
5883,963,1041
5884,959,1040
5885,964,1039
5886,967,1039
5887,967,1042
5888,960,1039
5889,958,1038
5890,961,1040
5891,963,1045
5892,962,1046
5893,965,1044
5894,966,1038
5895,958,1034
5896,955,1039
5897,958,1043
5898,962,1045
5899,966,1041
5900,964,1036
5901,960,1033
5902,959,1035
5903,959,1038
5904,961,1042
5905,962,1042
5906,962,1041
5907,962,1036
5908,961,1036
5909,960,1040
5910,964,1041
5911,965,1039
5912,962,1038
5913,960,1035
5914,961,1037
5915,963,1040
5916,966,1039
5917,968,1034
5918,968,1032
5919,964,1029
5920,963,1028
5921,968,1031
5922,971,1035
5923,971,1037
5924,970,1034
5925,968,1034
5926,971,1036
5927,972,1037
5928,979,1038
5929,980,1032
5930,979,1029
5931,979,1026
5932,977,1023
5933,981,1024
5934,986,1023
5935,989,1021
5936,988,1016
5937,989,1013
5938,989,1012
5939,994,1014
5940,999,1013
5941,1004,1012
5942,999,1008
5943,995,1004
5944,998,1001
5945,999,1000
5946,1003,1001
5947,1009,995
5948,1007,995
5949,1006,992
5950,1004,993
5951,1006,998
5952,1009,997
5953,1011,998
5954,1011,997
5955,1011,994
5956,1012,992
5957,1013,991
5958,1014,995
5959,1013,994
5960,1011,995
5961,1011,994
5962,1012,995
5963,1011,997
5964,1014,1002
5965,1014,1005
5966,1009,1007
5967,1003,1011
5968,1001,1017
5969,998,1021
5970,1001,1027
5971,999,1027
5972,994,1021
5973,992,1022
5974,989,1026
5975,991,1033
5976,988,1040
5977,990,1042
5978,983,1039
5979,978,1037
5980,973,1037
5981,977,1042
5982,978,1044
5983,981,1042
5984,973,1042
5985,965,1043
5986,968,1047
5987,971,1050
5988,973,1052
5989,974,1050
5990,973,1047
5991,970,1047
5992,967,1048
5993,970,1053
5994,975,1054
5995,976,1053
5996,974,1049
5997,973,1048
5998,971,1049
5999,975,1051
6000,978,1056
6001,977,1054
6002,978,1053
6003,971,1048
6004,974,1045
6005,972,1047
6006,976,1048
6007,972,1046
6008,974,1051
6009,973,1049
6010,973,1050
6011,976,1051
6012,975,1050
6013,978,1049
6014,977,1044
6015,977,1044
6016,977,1050
6017,979,1054
6018,981,1053
6019,983,1051
6020,983,1048
6021,978,1046
6022,978,1045
6023,979,1049
6024,983,1051
6025,983,1049
6026,979,1048
6027,976,1042
6028,975,1041
6029,977,1041
6030,981,1042
6031,982,1040
6032,980,1035
6033,978,1035
6034,978,1034
6035,979,1037
6036,982,1041
6037,983,1043
6038,980,1040
6039,974,1037
6040,974,1035
6041,973,1036
6042,979,1038
6043,984,1037
6044,982,1037
6045,980,1036
6046,977,1037
6047,978,1040
6048,981,1044
6049,981,1039
6050,982,1038
6051,980,1035
6052,977,1037
6053,979,1042
6054,980,1047
6055,979,1046
6056,977,1046
6057,974,1039
6058,975,1039
6059,980,1039
6060,982,1041
6061,983,1041
6062,981,1041
6063,978,1042
6064,977,1050
6065,979,1052
6066,979,1052
6067,979,1049
6068,981,1045
6069,977,1040
6070,977,1039
6071,977,1038
6072,979,1039
6073,976,1038
6074,974,1037
6075,976,1034
6076,975,1037
6077,978,1040
6078,977,1040
6079,980,1043
6080,982,1041
6081,979,1040
6082,976,1043
6083,976,1042
6084,976,1042
6085,979,1037
6086,980,1033
6087,982,1029
6088,991,1028
6089,1002,1026
6090,1022,1030
6091,1040,1024
6092,1058,1027
6093,1085,1025
6094,1121,1024
6095,1166,1019
6096,1211,1017
6097,1258,1012
6098,1293,1015
6099,1308,1022
6100,1302,1036
6101,1271,1047
6102,1222,1049
6103,1161,1048
6104,1093,1049
6105,1029,1060
6106,973,1072
6107,939,1084
6108,935,1084
6109,944,1077
6110,953,1063
6111,960,1053
6112,964,1043
6113,967,1042
6114,970,1042
6115,971,1039
6116,971,1034
6117,967,1034
6118,967,1034
6119,962,1036
6120,963,1042
6121,963,1042
6122,961,1040
6123,958,1036
6124,956,1032
6125,951,1035
6126,956,1039
6127,957,1038
6128,956,1036
6129,956,1032
6130,957,1033
6131,957,1037
6132,959,1041
6133,958,1042
6134,955,1041
6135,952,1040
6136,950,1038
6137,955,1036
6138,954,1035
6139,956,1031
6140,953,1031
6141,950,1029
6142,951,1033
6143,952,1037
6144,955,1039
6145,956,1040
6146,952,1036
6147,952,1038
6148,948,1040
6149,949,1043
6150,951,1044
6151,951,1042
6152,950,1036
6153,949,1032
6154,948,1035
6155,952,1040
6156,952,1045
6157,953,1045
6158,951,1040
6159,953,1038
6160,950,1036
6161,952,1035
6162,958,1039
6163,961,1035
6164,959,1033
6165,957,1033
6166,959,1032
6167,962,1032
6168,969,1031
6169,968,1029
6170,966,1028
6171,962,1024
6172,967,1024
6173,973,1022
6174,977,1022
6175,978,1019
6176,977,1016
6177,976,1016
6178,981,1015
6179,985,1018
6180,990,1020
6181,988,1013
6182,987,1008
6183,982,1003
6184,981,1001
6185,982,1000
6186,988,1002
6187,991,1004
6188,990,1000
6189,989,1000
6190,989,1001
6191,991,1002
6192,994,1001
6193,993,1000
6194,989,998
6195,986,999
6196,988,1000
6197,992,1003
6198,996,1007
6199,995,1002
6200,992,1001
6201,987,1005
6202,989,1005
6203,990,1010
6204,992,1010
6205,993,1008
6206,990,1008
6207,986,1010
6208,986,1016
6209,985,1020
6210,987,1027
6211,984,1028
6212,977,1024
6213,974,1022
6214,975,1020
6215,973,1025
6216,977,1033
6217,978,1034
6218,976,1031
6219,968,1028
6220,965,1033
6221,964,1040
6222,966,1044
6223,964,1041
6224,965,1039
6225,961,1039
6226,960,1038
6227,961,1042
6228,963,1041
6229,964,1040
6230,962,1043
6231,960,1041
6232,957,1045
6233,961,1046
6234,959,1049
6235,958,1044
6236,958,1040
6237,948,1043
6238,951,1045
6239,954,1048
6240,956,1047
6241,954,1045
6242,955,1047
6243,954,1045
6244,953,1044
6245,957,1046
6246,960,1046
6247,962,1045
6248,958,1043
6249,955,1048
6250,953,1047
6251,957,1051
6252,962,1055
6253,960,1049
6254,957,1043
6255,955,1038
6256,957,1043
6257,959,1046
6258,965,1050
6259,965,1052
6260,963,1050
6261,960,1050
6262,958,1048
6263,960,1041
6264,964,1043
6265,966,1040
6266,963,1041
6267,961,1043
6268,962,1041
6269,963,1041
6270,969,1045
6271,970,1042
6272,967,1038
6273,965,1039
6274,966,1039
6275,967,1041
6276,969,1042
6277,968,1037
6278,963,1038
6279,958,1035
6280,957,1037
6281,961,1036
6282,963,1037
6283,962,1034
6284,957,1032
6285,953,1033
6286,953,1035
6287,960,1038
6288,962,1041
6289,961,1036
6290,960,1031
6291,954,1033
6292,956,1039
6293,955,1042
6294,959,1045
6295,959,1044
6296,957,1037
6297,954,1030
6298,956,1032
6299,959,1034
6300,965,1038
6301,966,1041
6302,959,1039
6303,958,1038
6304,958,1036
6305,959,1040
6306,963,1039
6307,963,1040
6308,963,1040
6309,958,1038
6310,959,1040
6311,963,1040
6312,967,1044
6313,967,1046
6314,966,1043
6315,963,1041
6316,960,1043
6317,963,1043
6318,962,1044
6319,965,1041
6320,960,1040
6321,958,1037
6322,957,1038
6323,964,1044
6324,967,1044
6325,967,1041
6326,967,1039
6327,963,1037
6328,966,1039
6329,970,1040
6330,976,1041
6331,975,1040
6332,973,1035
6333,974,1033
6334,971,1031
6335,972,1034
6336,973,1033
6337,973,1034
6338,976,1029
6339,981,1026
6340,988,1025
6341,1001,1025
6342,1020,1025
6343,1038,1026
6344,1059,1020
6345,1087,1018
6346,1122,1013
6347,1163,1009
6348,1204,1003
6349,1247,998
6350,1277,1000
6351,1300,1009
6352,1302,1028
6353,1284,1045
6354,1241,1053
6355,1182,1048
6356,1113,1046
6357,1051,1049
6358,990,1062
6359,948,1069
6360,933,1073
6361,933,1069
6362,945,1060
6363,951,1052
6364,957,1048
6365,962,1049
6366,962,1048
6367,963,1044
6368,960,1033
6369,955,1030
6370,953,1032
6371,956,1034
6372,957,1039
6373,958,1035
6374,954,1033
6375,950,1032
6376,952,1031
6377,954,1035
6378,955,1041
6379,953,1038
6380,950,1036
6381,947,1036
6382,949,1036
6383,950,1036
6384,955,1037
6385,955,1038
6386,954,1037
6387,951,1036
6388,952,1042
6389,953,1038
6390,955,1040
6391,953,1036
6392,952,1031
6393,948,1034
6394,947,1033
6395,949,1036
6396,954,1037
6397,953,1031
6398,949,1028
6399,946,1027
6400,947,1031
6401,951,1033
6402,956,1038
6403,957,1032
6404,954,1030
6405,952,1030
6406,952,1029
6407,955,1034
6408,960,1039
6409,959,1038
6410,956,1037
6411,952,1030
6412,955,1034
6413,960,1034
6414,962,1036
6415,964,1032
6416,963,1027
6417,961,1023
6418,963,1025
6419,967,1027
6420,972,1029
6421,973,1030
6422,971,1023
6423,969,1022
6424,969,1025
6425,973,1027
6426,978,1025
6427,980,1021
6428,979,1019
6429,980,1020
6430,983,1018
6431,986,1020
6432,990,1020
6433,994,1014
6434,989,1013
6435,992,1014
6436,993,1017
6437,997,1015
6438,1001,1012
6439,1002,1007
6440,1002,1002
6441,1000,1001
6442,1002,1002
6443,1004,1004
6444,1007,1004
6445,1009,1001
6446,1010,996
6447,1006,994
6448,1005,995
6449,1006,998
6450,1012,997
6451,1010,996
6452,1007,995
6453,1003,994
6454,1005,996
6455,1006,1001
6456,1006,1005
6457,1005,1006
6458,1002,1007
6459,997,1008
6460,994,1012
6461,992,1016
6462,993,1019
6463,992,1017
6464,987,1014
6465,985,1018
6466,981,1024
6467,981,1028
6468,982,1030
6469,976,1031
6470,974,1031
6471,972,1033
6472,974,1035
6473,977,1038
6474,979,1041
6475,974,1045
6476,973,1041
6477,968,1039
6478,970,1039
6479,973,1042
6480,972,1045
6481,974,1044
6482,975,1042
6483,973,1043
6484,972,1046
6485,974,1048
6486,980,1048
6487,981,1048
6488,983,1046
6489,986,1044
6490,992,1049
6491,996,1054
6492,1001,1056
6493,1009,1058
6494,1013,1055
6495,1019,1054
6496,1036,1051
6497,1054,1041
6498,1068,1027
6499,1077,1009
6500,1089,994
6501,1102,983
6502,1121,972
6503,1142,958
6504,1160,942
6505,1179,922
6506,1199,901
6507,1219,877
6508,1238,859
6509,1258,843
6510,1266,832
6511,1267,824
6512,1260,822
6513,1253,825
6514,1250,825
6515,1245,826
6516,1240,825
6517,1223,826
6518,1195,824
6519,1168,828
6520,1140,835
6521,1118,847
6522,1097,861
6523,1072,871
6524,1050,881
6525,1033,893
6526,1029,907
6527,1031,925
6528,1033,938
6529,1027,948
6530,1025,957
6531,1028,968
6532,1047,981
6533,1071,994
6534,1093,1002
6535,1089,1005
6536,1064,1009
6537,1027,1014
6538,984,1025
6539,952,1039
6540,937,1049
6541,927,1059
6542,922,1066
6543,916,1069
6544,913,1072
6545,911,1075
6546,908,1077
6547,903,1080
6548,897,1081
6549,887,1085
6550,886,1085
6551,884,1090
6552,886,1086
6553,881,1086
6554,879,1086
6555,874,1088
6556,871,1090
6557,873,1093
6558,874,1093
6559,873,1092
6560,869,1092
6561,867,1093
6562,866,1093
6563,869,1097
6564,871,1099
6565,870,1098
6566,868,1101
6567,866,1101
6568,867,1105
6569,867,1107
6570,870,1111
6571,871,1114
6572,865,1114
6573,865,1115
6574,865,1120
6575,865,1121
6576,866,1124
6577,869,1127
6578,865,1126
6579,865,1129
6580,866,1134
6581,869,1141
6582,870,1144
6583,872,1149
6584,870,1143
6585,868,1143
6586,871,1146
6587,874,1149
6588,876,1146
6589,875,1143
6590,874,1138
6591,873,1139
6592,873,1141
6593,879,1146
6594,883,1151
6595,887,1151
6596,882,1145
6597,883,1141
6598,883,1142
6599,891,1141
6600,895,1141
6601,899,1138
6602,900,1136
6603,903,1132
6604,907,1131
6605,915,1129
6606,922,1128
6607,926,1122
6608,928,1115
6609,928,1109
6610,930,1107
6611,937,1103
6612,941,1097
6613,944,1090
6614,945,1086
6615,943,1082
6616,943,1082
6617,947,1082
6618,955,1078
6619,956,1072
6620,956,1064
6621,954,1059
6622,954,1060
6623,958,1060
6624,958,1059
6625,957,1056
6626,955,1053
6627,953,1053
6628,953,1055
6629,955,1058
6630,959,1058
6631,957,1056
6632,953,1047
6633,951,1044
6634,949,1045
6635,953,1047
6636,955,1048
6637,958,1046
6638,956,1043
6639,952,1039
6640,955,1039
6641,959,1039
6642,958,1039
6643,958,1038
6644,954,1035
6645,949,1035
6646,950,1038
6647,953,1042
6648,957,1039
6649,956,1034
6650,955,1030
6651,956,1029
6652,955,1030
6653,958,1032
6654,961,1031
6655,960,1030
6656,959,1027
6657,960,1026
6658,961,1028
6659,963,1031
6660,966,1034
6661,961,1033
6662,960,1031
6663,959,1031
6664,961,1031
6665,965,1035
6666,969,1035
6667,967,1032
6668,965,1029
6669,963,1030
6670,963,1032
6671,964,1035
6672,970,1036
6673,970,1034
6674,967,1033
6675,964,1033
6676,962,1035
6677,964,1035
6678,967,1037
6679,965,1034
6680,965,1029
6681,962,1029
6682,963,1035
6683,965,1036
6684,967,1039
6685,967,1038
6686,967,1037
6687,965,1038
6688,965,1035
6689,968,1035
6690,968,1034
6691,966,1028
6692,967,1023
6693,961,1022
6694,961,1024
6695,959,1029
6696,962,1030
6697,962,1028
6698,963,1025
6699,960,1023
6700,962,1024
6701,962,1028
6702,968,1026
6703,967,1026
6704,961,1025
6705,962,1024
6706,963,1025
6707,966,1028
6708,967,1028
6709,965,1027
6710,960,1025
6711,959,1024
6712,961,1025
6713,963,1030
6714,965,1031
6715,963,1031
6716,961,1031
6717,958,1029
6718,959,1032
6719,960,1033
6720,964,1038
6721,964,1039
6722,961,1034
6723,959,1027
6724,958,1023
6725,960,1022
6726,964,1022
6727,963,1022
6728,961,1019
6729,958,1020
6730,956,1022
6731,959,1026
6732,960,1030
6733,960,1029
6734,958,1027
6735,958,1029
6736,958,1030
6737,958,1036
6738,961,1035
6739,961,1035
6740,957,1030
6741,956,1031
6742,957,1031
6743,963,1032
6744,966,1029
6745,964,1028
6746,960,1026
6747,959,1026
6748,957,1026
6749,959,1028
6750,963,1029
6751,960,1027
6752,959,1025
6753,960,1028
6754,960,1027
6755,964,1029
6756,964,1030
6757,966,1025
6758,963,1022
6759,958,1022
6760,957,1027
6761,961,1031
6762,966,1030
6763,966,1031
6764,966,1028
6765,961,1026
6766,957,1027
6767,956,1029
6768,964,1029
6769,959,1029
6770,960,1025
6771,959,1025
6772,959,1027
6773,961,1029
6774,963,1031
6775,961,1027
6776,958,1024
6777,957,1025
6778,957,1025
6779,959,1028
6780,961,1031
6781,961,1029
6782,962,1026
6783,960,1026
6784,958,1023
6785,960,1028
6786,958,1028
6787,958,1029
6788,955,1029
6789,958,1029
6790,957,1028
6791,959,1033
6792,961,1033
6793,964,1033
6794,962,1027
6795,961,1024
6796,962,1025
6797,964,1026
6798,966,1029
6799,965,1027
6800,963,1022
6801,958,1022
6802,959,1022
6803,961,1025
6804,966,1030
6805,967,1027
6806,966,1025
6807,963,1023
6808,961,1024
6809,967,1024
6810,969,1029
6811,968,1028
6812,967,1025
6813,967,1021
6814,968,1022
6815,968,1025
6816,971,1023
6817,962,1021
6818,964,1020
6819,965,1020
6820,962,1024
6821,965,1026
6822,969,1027
6823,968,1025
6824,967,1021
6825,963,1022
6826,965,1024
6827,966,1027
6828,970,1026
6829,965,1025
6830,965,1022
6831,963,1023
6832,964,1023
6833,966,1026
6834,969,1026
6835,966,1024
6836,962,1024
6837,960,1022
6838,957,1027
6839,960,1030
6840,965,1030
6841,965,1029
6842,961,1027
6843,960,1029
6844,963,1026
6845,967,1030
6846,970,1029
6847,971,1025
6848,967,1024
6849,963,1022
6850,963,1020
6851,962,1021
6852,967,1020
6853,971,1017
6854,970,1013
6855,965,1014
6856,964,1014
6857,969,1024
6858,972,1027
6859,972,1025
6860,969,1022
6861,968,1021
6862,969,1022
6863,970,1023
6864,973,1023
6865,975,1023
6866,975,1020
6867,970,1020
6868,974,1020
6869,983,1017
6870,997,1018
6871,1014,1016
6872,1034,1013
6873,1056,1010
6874,1088,1009
6875,1125,1000
6876,1161,989
6877,1203,980
6878,1240,977
6879,1275,981
6880,1299,996
6881,1298,1016
6882,1270,1026
6883,1213,1028
6884,1146,1024
6885,1083,1026
6886,1024,1034
6887,975,1038
6888,949,1044
6889,944,1039
6890,955,1034
6891,966,1029
6892,971,1027
6893,970,1028
6894,966,1027
6895,968,1023
6896,963,1020
6897,959,1017
6898,960,1018
6899,959,1022
6900,960,1022
6901,961,1021
6902,957,1015
6903,954,1015
6904,953,1020
6905,954,1023
6906,956,1025
6907,953,1023
6908,949,1024
6909,948,1023
6910,946,1028
6911,950,1027
6912,949,1028
6913,950,1027
6914,949,1025
6915,945,1025
6916,947,1024
6917,947,1025
6918,951,1023
6919,950,1025
6920,949,1025
6921,949,1024
6922,943,1026
6923,950,1029
6924,955,1027
6925,953,1025
6926,950,1023
6927,948,1021
6928,950,1026
6929,953,1027
6930,956,1027
6931,956,1024
6932,954,1021
6933,953,1023
6934,953,1023
6935,955,1026
6936,960,1027
6937,961,1026
6938,959,1024
6939,956,1027
6940,953,1030
6941,956,1032
6942,962,1034
6943,962,1029
6944,957,1025
6945,960,1023
6946,962,1025
6947,966,1023
6948,967,1023
6949,967,1018
6950,964,1012
6951,965,1013
6952,965,1016
6953,967,1016
6954,973,1019
6955,970,1014
6956,972,1014
6957,971,1011
6958,973,1012
6959,975,1015
6960,978,1014
6961,977,1013
6962,976,1011
6963,975,1008
6964,980,1009
6965,982,1008
6966,984,1006
6967,987,1006
6968,987,1004
6969,988,1005
6970,992,1005
6971,993,1008
6972,997,1007
6973,1000,1004
6974,999,1000
6975,999,1001
6976,1001,1000
6977,1005,1005
6978,1009,1006
6979,1011,1002
6980,1007,997
6981,1006,996
6982,1008,999
6983,1009,1004
6984,1012,1006
6985,1012,1004
6986,1006,1002
6987,1005,1003
6988,1004,1004
6989,1006,1010
6990,1005,1014
6991,1007,1015
6992,1001,1014
6993,999,1013
6994,995,1017
6995,994,1022
6996,995,1024
6997,991,1024
6998,985,1019
6999,983,1020
7000,978,1023
7001,980,1026
7002,980,1027
7003,980,1025
7004,975,1024
7005,970,1027
7006,968,1032
7007,971,1036
7008,973,1038
7009,970,1039
7010,968,1035
7011,963,1033
7012,961,1035
7013,961,1039
7014,965,1039
7015,962,1035
7016,962,1035
7017,958,1031
7018,957,1038
7019,964,1039
7020,967,1039
7021,968,1038
7022,963,1036
7023,960,1032
7024,962,1030
7025,968,1033
7026,971,1033
7027,967,1026
7028,965,1026
7029,963,1027
7030,965,1027
7031,969,1032
7032,970,1034
7033,970,1032
7034,968,1028
7035,968,1028
7036,968,1029
7037,969,1032
7038,973,1035
7039,974,1034
7040,969,1032
7041,970,1034
7042,962,1034
7043,970,1035
7044,975,1032
7045,973,1032
7046,970,1025
7047,965,1024
7048,965,1024
7049,971,1028
7050,973,1033
7051,975,1030
7052,972,1029
7053,969,1028
7054,967,1032
7055,971,1032
7056,975,1033
7057,971,1030
7058,969,1027
7059,965,1028
7060,965,1031
7061,967,1032
7062,971,1032
7063,970,1033
7064,968,1033
7065,963,1029
7066,964,1032
7067,964,1033
7068,968,1032
7069,968,1031
7070,968,1027
7071,963,1025
7072,961,1025
7073,961,1027
7074,966,1030
7075,967,1029
7076,963,1025
7077,959,1023
7078,961,1026
7079,963,1030
7080,967,1031
7081,966,1029
7082,964,1026
7083,961,1028
7084,963,1033
7085,961,1035
7086,968,1036
7087,965,1032
7088,960,1030
7089,957,1032
7090,960,1035
7091,962,1039
7092,967,1037
7093,965,1036
7094,965,1035
7095,963,1033
7096,961,1035
7097,965,1035
7098,966,1038
7099,966,1035
7100,962,1033
7101,959,1030
7102,959,1034
7103,958,1035
7104,961,1037
7105,965,1034
7106,960,1031
7107,959,1033
7108,958,1036
7109,961,1037
7110,966,1038
7111,963,1036
7112,960,1032
7113,956,1031
7114,954,1034
7115,958,1036
7116,960,1037
7117,959,1036
7118,957,1033
7119,957,1031
7120,958,1037
7121,960,1041
7122,963,1037
7123,966,1036
7124,963,1032
7125,959,1032
7126,959,1035
7127,960,1039
7128,965,1038
7129,964,1033
7130,958,1032
7131,955,1032
7132,956,1033
7133,957,1038
7134,962,1035
7135,962,1035
7136,957,1032
7137,956,1031
7138,958,1035
7139,956,1037
7140,960,1037
7141,962,1037
7142,959,1035
7143,955,1035
7144,958,1033
7145,961,1035
7146,963,1037
7147,961,1036
7148,958,1033
7149,955,1035
7150,958,1034
7151,960,1035
7152,962,1036
7153,962,1033
7154,958,1029
7155,954,1026
7156,954,1029
7157,955,1035
7158,958,1039
7159,958,1037
7160,958,1033
7161,954,1036
7162,956,1038
7163,959,1038
7164,964,1037
7165,962,1037
7166,958,1031
7167,954,1034
7168,957,1037
7169,959,1038
7170,959,1036
7171,960,1035
7172,956,1032
7173,956,1032
7174,957,1038
7175,958,1043
7176,959,1043
7177,959,1039
7178,957,1036
7179,959,1038
7180,959,1041
7181,963,1042
7182,969,1039
7183,967,1039
7184,966,1037
7185,965,1036
7186,967,1041
7187,968,1045
7188,973,1042
7189,972,1040
7190,974,1036
7191,968,1038
7192,963,1039
7193,964,1040
7194,973,1041
7195,972,1040
7196,969,1035
7197,968,1035
7198,967,1035
7199,971,1038
7200,974,1036
7201,973,1034
7202,973,1029
7203,972,1028
7204,977,1026
7205,991,1027
7206,1008,1027
7207,1027,1023
7208,1046,1020
7209,1069,1015
7210,1110,1012
7211,1154,1005
7212,1192,995
7213,1234,991
7214,1268,987
7215,1293,996
7216,1302,1012
7217,1283,1031
7218,1233,1035
7219,1161,1031
7220,1091,1035
7221,1027,1043
7222,972,1055
7223,937,1058
7224,930,1057
7225,942,1051
7226,959,1040
7227,968,1032
7228,970,1032
7229,970,1032
7230,967,1032
7231,965,1031
7232,962,1029
7233,959,1030
7234,957,1035
7235,955,1038
7236,961,1036
7237,960,1033
7238,956,1031
7239,955,1034
7240,952,1031
7241,950,1034
7242,949,1037
7243,952,1034
7244,949,1034
7245,950,1034
7246,950,1038
7247,952,1039
7248,955,1039
7249,956,1035
7250,950,1031
7251,948,1032
7252,948,1032
7253,951,1037
7254,955,1039
7255,950,1039
7256,949,1037
7257,946,1037
7258,947,1037
7259,947,1044
7260,952,1040
7261,950,1039
7262,951,1034
7263,949,1032
7264,951,1034
7265,953,1036
7266,956,1036
7267,954,1037
7268,952,1035
7269,952,1039
7270,955,1037
7271,955,1040
7272,957,1039
7273,958,1036
7274,957,1033
7275,958,1033
7276,963,1036
7277,963,1039
7278,966,1037
7279,963,1034
7280,962,1031
7281,965,1034
7282,970,1036
7283,973,1038
7284,977,1036
7285,977,1033
7286,975,1026
7287,976,1022
7288,977,1022
7289,983,1023
7290,987,1021
7291,987,1017
7292,987,1015
7293,986,1012
7294,988,1011
7295,991,1011
7296,993,1013
7297,994,1007
7298,994,1001
7299,993,1002
7300,995,1001
7301,996,1003
7302,1000,1005
7303,998,1002
7304,998,999
7305,995,1000
7306,996,1003
7307,998,1004
7308,996,1003
7309,999,1001
7310,995,997
7311,993,998
7312,993,1003
7313,997,1006
7314,1001,1008
7315,995,1008
7316,994,1006
7317,993,1009
7318,994,1011
7319,992,1015
7320,996,1018
7321,996,1017
7322,993,1019
7323,991,1021
7324,989,1026
7325,988,1030
7326,991,1035
7327,986,1037
7328,983,1036
7329,980,1038
7330,980,1040
7331,978,1043
7332,983,1046
7333,980,1044
7334,974,1044
7335,970,1045
7336,971,1046
7337,973,1047
7338,975,1046
7339,975,1045
7340,973,1039
7341,972,1042
7342,973,1043
7343,974,1045
7344,969,1042
7345,970,1036
7346,966,1032
7347,963,1033
7348,965,1036
7349,966,1039
7350,966,1039
7351,967,1040
7352,965,1038
7353,964,1041
7354,963,1042
7355,964,1045
7356,967,1046
7357,965,1044
7358,964,1043
7359,961,1042
7360,960,1044
7361,966,1047
7362,970,1049
7363,971,1049
7364,966,1048
7365,965,1047
7366,963,1050
7367,967,1053
7368,969,1053
7369,969,1051
7370,970,1048
7371,965,1046
7372,965,1050
7373,970,1052
7374,974,1052
7375,973,1049
7376,974,1047
7377,971,1047
7378,972,1048
7379,975,1051
7380,979,1050
7381,980,1047
7382,974,1044
7383,974,1046
7384,976,1046
7385,980,1048
7386,982,1047
7387,983,1046
7388,979,1043
7389,976,1038
7390,974,1040
7391,975,1038
7392,977,1039
7393,976,1036
7394,972,1032
7395,966,1030
7396,968,1035
7397,971,1039
7398,974,1036
7399,972,1033
7400,964,1031
7401,963,1033
7402,966,1039
7403,969,1042
7404,972,1041
7405,968,1040
7406,966,1041
7407,968,1038
7408,970,1042
7409,969,1042
7410,973,1046
7411,972,1047
7412,970,1041
7413,967,1043
7414,968,1043
7415,967,1049
7416,969,1051
7417,969,1047
7418,970,1046
7419,964,1048
7420,967,1048
7421,968,1050
7422,974,1051
7423,973,1050
7424,971,1047
7425,967,1047
7426,972,1046
7427,975,1049
7428,978,1051
7429,978,1048
7430,976,1044
7431,972,1043
7432,974,1044
7433,976,1046
7434,981,1048
7435,982,1043
7436,976,1042
7437,969,1042
7438,973,1047
7439,976,1048
7440,978,1044
7441,973,1038
7442,970,1037
7443,968,1039
7444,971,1044
7445,974,1048
7446,974,1046
7447,975,1042
7448,974,1036
7449,971,1037
7450,968,1038
7451,971,1041
7452,975,1041
7453,976,1041
7454,973,1038
7455,972,1035
7456,972,1041
7457,973,1044
7458,978,1044
7459,978,1043
7460,975,1038
7461,974,1040
7462,975,1045
7463,976,1046
7464,975,1045
7465,974,1045
7466,973,1043
7467,971,1044
7468,972,1046
7469,976,1049
7470,980,1048
7471,980,1047
7472,975,1044
7473,973,1043
7474,975,1045
7475,981,1048
7476,987,1043
7477,983,1041
7478,977,1041
7479,976,1042
7480,980,1046
7481,983,1050
7482,984,1050
7483,983,1046
7484,982,1042
7485,979,1042
7486,983,1040
7487,984,1041
7488,983,1039
7489,981,1035
7490,979,1037
7491,978,1039
7492,982,1042
7493,985,1044
7494,988,1045
7495,986,1047
7496,981,1042
7497,983,1044
7498,987,1044
7499,992,1044
7500,999,1037
7501,1009,1035
7502,1019,1033
7503,1032,1033
7504,1047,1036
7505,1078,1038
7506,1115,1036
7507,1155,1022
7508,1187,1006
7509,1219,1003
7510,1259,1004
7511,1290,1011
7512,1318,1023
7513,1319,1037
7514,1295,1047
7515,1254,1049
7516,1200,1048
7517,1148,1045
7518,1093,1048
7519,1031,1053
7520,967,1062
7521,928,1072
7522,920,1076
7523,941,1082
7524,959,1071
7525,970,1058
7526,969,1049
7527,970,1043
7528,973,1045
7529,974,1046
7530,972,1043
7531,968,1039
7532,969,1036
7533,964,1035
7534,966,1037
7535,962,1041
7536,968,1041
7537,966,1043
7538,961,1040
7539,962,1037
7540,962,1037
7541,969,1038
7542,970,1038
7543,968,1035
7544,965,1035
7545,962,1034
7546,963,1038
7547,963,1041
7548,966,1040
7549,966,1042
7550,962,1039
7551,957,1039
7552,960,1041
7553,962,1045
7554,964,1044
7555,967,1045
7556,964,1044
7557,962,1041
7558,959,1044
7559,962,1047
7560,964,1048
7561,964,1048
7562,966,1046
7563,963,1043
7564,967,1044
7565,971,1044
7566,975,1045
7567,971,1046
7568,971,1048
7569,969,1051
7570,969,1049
7571,970,1049
7572,975,1042
7573,974,1037
7574,972,1031
7575,969,1033
7576,970,1039
7577,971,1040
7578,975,1039
7579,972,1035
7580,969,1029
7581,971,1029
7582,974,1032
7583,973,1035
7584,974,1034
7585,975,1030
7586,977,1027
7587,976,1027
7588,978,1029
7589,983,1029
7590,984,1028
7591,988,1028
7592,987,1024
7593,989,1023
7594,989,1026
7595,994,1024
7596,997,1023
7597,999,1021
7598,999,1019
7599,998,1020
7600,1001,1020
7601,1010,1019
7602,1011,1020
7603,1012,1017
7604,1012,1013
7605,1009,1015
7606,1012,1016
7607,1017,1014
7608,1026,1010
7609,1024,1005
7610,1021,1006
7611,1017,1002
7612,1017,1008
7613,1021,1008
7614,1027,1006
7615,1026,1000
7616,1023,998
7617,1020,998
7618,1020,999
7619,1023,1001
7620,1026,1001
7621,1026,996
7622,1024,996
7623,1020,996
7624,1019,1002
7625,1021,1008
7626,1024,1014
7627,1023,1012
7628,1015,1007
7629,1007,1006
7630,1009,1008
7631,1012,1014
7632,1013,1016
7633,1011,1018
7634,1007,1015
7635,1001,1016
7636,1000,1022
7637,1002,1026
7638,1001,1028
7639,998,1028
7640,995,1029
7641,992,1032
7642,990,1033
7643,987,1037
7644,987,1037
7645,986,1037
7646,986,1033
7647,985,1040
7648,982,1041
7649,985,1047
7650,987,1046
7651,988,1045
7652,981,1041
7653,980,1048
7654,982,1049
7655,985,1054
7656,986,1058
7657,985,1058
7658,981,1054
7659,977,1055
7660,979,1057
7661,980,1059
7662,987,1061
7663,985,1057
7664,987,1057
7665,995,1063
7666,1002,1064
7667,1007,1065
7668,1014,1065
7669,1013,1064
7670,1018,1065
7671,1027,1067
7672,1046,1064
7673,1061,1053
7674,1076,1034
7675,1089,1016
7676,1097,997
7677,1112,986
7678,1131,978
7679,1149,970
7680,1159,957
7681,1173,942
7682,1185,925
7683,1204,904
7684,1228,894
7685,1248,880
7686,1260,867
7687,1265,854
7688,1260,851
7689,1252,855
7690,1251,859
7691,1251,864
7692,1251,864
7693,1238,860
7694,1222,859
7695,1198,861
7696,1175,867
7697,1153,876
7698,1128,883
7699,1099,891
7700,1073,899
7701,1052,914
7702,1038,927
7703,1030,940
7704,1027,951
7705,1023,963
7706,1016,972
7707,1011,980
7708,1011,991
7709,1019,1001
7710,1032,1005
7711,1050,1009
7712,1065,1009
7713,1067,1014
7714,1053,1022
7715,1027,1031
7716,996,1032
7717,968,1038
7718,950,1039
7719,938,1051
7720,938,1064
7721,938,1074
7722,936,1080
7723,929,1081
7724,923,1081
7725,919,1083
7726,917,1087
7727,917,1090
7728,915,1089
7729,909,1087
7730,906,1086
7731,902,1091
7732,901,1098
7733,904,1099
7734,905,1098
7735,902,1094
7736,897,1088
7737,893,1091
7738,893,1093
7739,897,1095
7740,900,1099
7741,898,1096
7742,894,1096
7743,895,1097
7744,895,1099
7745,893,1103
7746,893,1102
7747,892,1100
7748,886,1100
7749,883,1102
7750,883,1106
7751,884,1112
7752,884,1111
7753,881,1107
7754,876,1105
7755,869,1106
7756,871,1113
7757,873,1118
7758,875,1119
7759,874,1117
7760,868,1117
7761,864,1119
7762,869,1124
7763,870,1128
7764,872,1128
7765,869,1126
7766,864,1124
7767,866,1128
7768,868,1135
7769,871,1141
7770,872,1142
7771,869,1140
7772,867,1141
7773,868,1145
7774,870,1147
7775,876,1151
7776,878,1154
7777,877,1152
7778,874,1149
7779,876,1151
7780,875,1154
7781,881,1155
7782,884,1157
7783,885,1154
7784,884,1148
7785,882,1150
7786,886,1149
7787,892,1147
7788,900,1143
7789,903,1140
7790,902,1135
7791,904,1138
7792,908,1135
7793,913,1135
7794,919,1129
7795,921,1123
7796,922,1118
7797,923,1117
7798,929,1118
7799,937,1117
7800,945,1116
7801,949,1108
7802,951,1098
7803,950,1093
7804,951,1087
7805,956,1088
7806,961,1085
7807,964,1079
7808,963,1075
7809,963,1072
7810,964,1070
7811,965,1073
7812,968,1070
7813,968,1067
7814,967,1064
7815,965,1065
7816,972,1064
7817,974,1066
7818,977,1061
7819,972,1055
7820,972,1053
7821,969,1051
7822,968,1054
7823,971,1055
7824,975,1055
7825,974,1049
7826,973,1049
7827,971,1049
7828,972,1054
7829,975,1055
7830,976,1055
7831,977,1051
7832,974,1050
7833,973,1050
7834,971,1052
7835,973,1052
7836,974,1052
7837,976,1048
7838,973,1047
7839,971,1049
7840,973,1049
7841,976,1051
7842,980,1051
7843,981,1046
7844,977,1041
7845,974,1043
7846,975,1046
7847,976,1048
7848,981,1044
7849,976,1045
7850,978,1041
7851,973,1043
7852,975,1044
7853,979,1045
7854,980,1043
7855,982,1042
7856,981,1040
7857,981,1041
7858,983,1039
7859,985,1041
7860,987,1040
7861,985,1041
7862,982,1039
7863,982,1039
7864,981,1042
7865,982,1043
7866,984,1042
7867,978,1039
7868,973,1037
7869,970,1038
7870,976,1043
7871,981,1047
7872,984,1046
7873,980,1042
7874,978,1044
7875,974,1041
7876,976,1045
7877,977,1046
7878,979,1045
7879,975,1042
7880,974,1041
7881,972,1043
7882,975,1046
7883,974,1049
7884,978,1048
7885,978,1047
7886,973,1043
7887,969,1041
7888,969,1044
7889,977,1046
7890,978,1047
7891,977,1047
7892,974,1041
7893,972,1043
7894,973,1045
7895,977,1048
7896,980,1047
7897,980,1043
7898,978,1038
7899,972,1039
7900,973,1041
7901,978,1043
7902,981,1045
7903,979,1041
7904,977,1039
7905,975,1041
7906,977,1043
7907,982,1048
7908,983,1048
7909,984,1045
7910,980,1042
7911,978,1040
7912,981,1042
7913,983,1043
7914,985,1043
7915,983,1043
7916,979,1042
7917,980,1042
7918,986,1046
7919,988,1049
7920,986,1048
7921,981,1044
7922,974,1043
7923,973,1046
7924,978,1047
7925,981,1049
7926,984,1046
7927,979,1046
7928,975,1045
7929,972,1048
7930,974,1051
7931,975,1053
7932,975,1051
7933,974,1048
7934,972,1050
7935,974,1051
7936,980,1050
7937,982,1051
7938,982,1048
7939,982,1047
7940,979,1047
7941,978,1045
7942,981,1048
7943,982,1050
7944,982,1047
7945,983,1040
7946,981,1039
7947,976,1039
7948,976,1043
7949,979,1046
7950,981,1041
7951,977,1039
7952,972,1035
7953,972,1038
7954,972,1042
7955,980,1046
7956,979,1043
7957,974,1042
7958,973,1037
7959,976,1037
7960,980,1037
7961,979,1040
7962,982,1036
7963,983,1036
7964,979,1034
7965,979,1039
7966,978,1042
7967,979,1045
7968,983,1044
7969,982,1045
7970,979,1044
7971,978,1044
7972,981,1051
7973,983,1052
7974,984,1050
7975,981,1048
7976,977,1047
7977,976,1046
7978,977,1048
7979,981,1047
7980,982,1045
7981,981,1042
7982,975,1040
7983,974,1039
7984,978,1043
7985,982,1047
7986,984,1046
7987,981,1044
7988,980,1041
7989,980,1043
7990,979,1044
7991,976,1047
7992,978,1044
7993,980,1043
7994,977,1042
7995,978,1045
7996,978,1048
7997,979,1052
7998,978,1048
7999,978,1048
8000,974,1048
8001,977,1047
8002,980,1050
8003,984,1053
8004,985,1051
8005,982,1051
8006,979,1049
8007,981,1049
8008,982,1054
8009,982,1050
8010,984,1046
8011,983,1043
8012,980,1039
8013,980,1042
8014,983,1043
8015,984,1044
8016,988,1044
8017,985,1043
8018,980,1040
8019,977,1039
8020,985,1041
8021,987,1043
8022,989,1041
8023,988,1043
8024,985,1044
8025,987,1047
8026,985,1047
8027,988,1048
8028,988,1047
8029,986,1043
8030,984,1041
8031,982,1044
8032,980,1048
8033,983,1051
8034,984,1048
8035,984,1045
8036,985,1043
8037,985,1046
8038,985,1047
8039,991,1048
8040,992,1048
8041,991,1044
8042,988,1042
8043,987,1043
8044,988,1048
8045,989,1048
8046,990,1050
8047,985,1047
8048,983,1044
8049,981,1048
8050,984,1048
8051,985,1052
8052,989,1052
8053,988,1051
8054,985,1050
8055,985,1050
8056,989,1050
8057,994,1054
8058,996,1049
8059,997,1046
8060,997,1043
8061,1007,1037
8062,1022,1036
8063,1042,1033
8064,1063,1032
8065,1088,1027
8066,1119,1022
8067,1157,1015
8068,1200,1012
8069,1240,1008
8070,1278,1000
8071,1312,999
8072,1331,1007
8073,1328,1021
8074,1304,1035
8075,1252,1042
8076,1190,1042
8077,1119,1046
8078,1050,1051
8079,988,1062
8080,951,1073
8081,948,1076
8082,960,1074
8083,976,1065
8084,983,1058
8085,988,1051
8086,989,1049
8087,988,1051
8088,985,1051
8089,982,1050
8090,977,1047
8091,976,1046
8092,976,1048
8093,978,1049
8094,979,1047
8095,977,1046
8096,975,1047
8097,970,1049
8098,970,1051
8099,970,1055
8100,972,1054
8101,974,1052
8102,970,1048
8103,967,1049
8104,970,1049
8105,973,1049
8106,974,1048
8107,973,1047
8108,969,1042
8109,966,1046
8110,972,1049
8111,974,1053
8112,977,1050
8113,976,1048
8114,973,1044
8115,971,1041
8116,971,1043
8117,973,1050
8118,973,1049
8119,972,1047
8120,970,1046
8121,971,1045
8122,971,1047
8123,977,1049
8124,979,1046
8125,975,1046
8126,971,1049
8127,969,1051
8128,973,1051
8129,977,1051
8130,977,1048
8131,976,1042
8132,972,1041
8133,975,1043
8134,977,1046
8135,981,1047
8136,984,1047
8137,982,1046
8138,981,1042
8139,982,1041
8140,983,1045
8141,988,1047
8142,990,1041
8143,988,1040
8144,986,1038
8145,988,1040
8146,993,1042
8147,996,1042
8148,996,1039
8149,993,1034
8150,991,1028
8151,995,1027
8152,1000,1030
8153,1006,1030
8154,1008,1029
8155,1009,1028
8156,1010,1024
8157,1010,1020
8158,1012,1021
8159,1018,1023
8160,1021,1021
8161,1021,1017
8162,1021,1012
8163,1022,1015
8164,1023,1017
8165,1029,1018
8166,1030,1019
8167,1028,1016
8168,1026,1013
8169,1028,1011
8170,1030,1012
8171,1034,1014
8172,1031,1012
8173,1032,1007
8174,1029,1005
8175,1033,1008
8176,1032,1014
8177,1029,1016
8178,1033,1015
8179,1028,1015
8180,1025,1012
8181,1024,1015
8182,1026,1019
8183,1030,1022
8184,1031,1023
8185,1029,1028
8186,1023,1026
8187,1020,1028
8188,1015,1032
8189,1016,1039
8190,1018,1038
8191,1013,1039
8192,1008,1037
8193,1006,1038
8194,1007,1043
8195,1007,1050
8196,1004,1049
8197,1001,1048
8198,997,1041
8199,997,1039
8200,996,1042
8201,998,1047
8202,999,1046
8203,997,1043
8204,995,1040
8205,993,1042
8206,993,1049
8207,997,1050
8208,997,1047
8209,994,1047
8210,991,1047
8211,988,1049
8212,992,1052
8213,993,1055
8214,992,1054
8215,993,1052
8216,992,1050
8217,989,1052
8218,991,1053
8219,995,1055
8220,994,1055
8221,992,1052
8222,992,1050
8223,992,1051
8224,991,1056
8225,997,1058
8226,998,1057
8227,994,1051
8228,993,1047
8229,987,1047
8230,990,1052
8231,994,1058
8232,999,1061
8233,998,1055
8234,995,1051
8235,994,1048
8236,995,1050
8237,997,1051
8238,1001,1052
8239,998,1047
8240,996,1042
8241,995,1045
8242,997,1045
8243,1002,1050
8244,1005,1046
8245,1003,1045
8246,999,1040
8247,1000,1040
8248,1001,1042
8249,1004,1043
8250,1002,1039
8251,1002,1039
8252,999,1037
8253,999,1039
8254,1002,1039
8255,1006,1040
8256,1007,1041
8257,1004,1038
8258,1002,1039
8259,1001,1042
8260,1002,1042
8261,1005,1043
8262,1007,1040
8263,1004,1038
8264,996,1037
8265,1000,1041
8266,1000,1042
8267,1001,1046
8268,1003,1046
8269,1001,1046
8270,999,1046
8271,997,1047
8272,997,1048
8273,1001,1051
8274,999,1046
8275,1000,1044
8276,995,1041
8277,994,1044
8278,994,1048
8279,999,1050
8280,998,1047
8281,997,1042
8282,992,1038
8283,990,1037
8284,990,1041
8285,995,1043
8286,996,1046
8287,997,1041
8288,996,1035
8289,998,1036
8290,1004,1037
8291,1022,1037
8292,1039,1037
8293,1053,1033
8294,1072,1031
8295,1102,1032
8296,1148,1030
8297,1196,1021
8298,1248,1014
8299,1293,1007
8300,1327,1007
8301,1346,1018
8302,1356,1034
8303,1348,1048
8304,1309,1052
8305,1248,1049
8306,1172,1048
8307,1097,1055
8308,1018,1069
8309,960,1080
8310,930,1084
8311,936,1083
8312,952,1077
8313,965,1068
8314,977,1061
8315,984,1057
8316,987,1051
8317,984,1048
8318,981,1048
8319,978,1047
8320,981,1050
8321,980,1049
8322,978,1047
8323,972,1044
8324,968,1045
8325,966,1043
8326,974,1050
8327,973,1052
8328,976,1048
8329,973,1042
8330,973,1040
8331,969,1040
8332,972,1043
8333,973,1044
8334,974,1041
8335,970,1039
8336,969,1036
8337,970,1038
8338,975,1037
8339,977,1041
8340,978,1040
8341,975,1037
8342,970,1034
8343,972,1035
8344,976,1039
8345,976,1043
8346,976,1040
8347,975,1036
8348,977,1034
8349,974,1036
8350,980,1039
8351,980,1041
8352,979,1040
8353,977,1036
8354,971,1036
8355,969,1037
8356,971,1037
8357,972,1040
8358,975,1039
8359,978,1037
8360,975,1038
8361,974,1039
8362,977,1043
8363,983,1043
8364,984,1042
8365,983,1041
8366,978,1035
8367,978,1034
8368,985,1039
8369,988,1044
8370,990,1044
8371,989,1041
8372,986,1039
8373,986,1039
8374,988,1041
8375,993,1043
8376,992,1042
8377,988,1037
8378,990,1033
8379,992,1034
8380,1000,1032
8381,1004,1031
8382,1005,1028
8383,1004,1019
8384,1004,1020
8385,1006,1014
8386,1010,1015
8387,1011,1016
8388,1013,1015
8389,1018,1011
8390,1018,1009
8391,1018,1010
8392,1024,1011
8393,1026,1011
8394,1027,1009
8395,1025,1007
8396,1021,1003
8397,1019,1005
8398,1027,1005
8399,1032,1007
8400,1034,1008
8401,1036,1003
8402,1027,1003
8403,1029,1006
8404,1031,1011
8405,1031,1010
8406,1030,1011
8407,1025,1010
8408,1023,1009
8409,1024,1012
8410,1025,1015
8411,1023,1022
8412,1020,1026
8413,1016,1028
8414,1009,1026
8415,1007,1027
8416,1009,1029
8417,1010,1032
8418,1009,1032
8419,1002,1034
8420,997,1034
8421,994,1039
8422,991,1044
8423,994,1051
8424,993,1051
8425,990,1049
8426,984,1050
8427,982,1052
8428,981,1056
8429,981,1057
8430,981,1056
8431,980,1055
8432,977,1053
8433,971,1057
8434,975,1055
8435,976,1054
8436,978,1054
8437,973,1054
8438,968,1051
8439,969,1053
8440,971,1054
8441,974,1054
8442,975,1053
8443,974,1053
8444,972,1050
8445,974,1052
8446,975,1051
8447,980,1054
8448,981,1053
8449,981,1050
8450,979,1047
8451,978,1048
8452,980,1050
8453,981,1052
8454,979,1047
8455,981,1046
8456,977,1045
8457,980,1043
8458,982,1048
8459,985,1051
8460,986,1048
8461,984,1048
8462,983,1046
8463,983,1049
8464,987,1051
8465,990,1052
8466,989,1049
8467,987,1049
8468,983,1046
8469,985,1048
8470,989,1046
8471,990,1049
8472,991,1048
8473,990,1046
8474,986,1047
8475,986,1047
8476,987,1053
8477,987,1055
8478,989,1051
8479,986,1049
8480,984,1049
8481,984,1052
8482,983,1055
8483,988,1054
8484,983,1054
8485,981,1047
8486,979,1044
8487,981,1044
8488,982,1046
8489,987,1047
8490,986,1047
8491,987,1043
8492,981,1043
8493,980,1044
8494,982,1046
8495,984,1047
8496,982,1047
8497,981,1042
8498,977,1042
8499,981,1044
8500,982,1044
8501,983,1047
8502,984,1047
8503,978,1043
8504,977,1041
8505,979,1041
8506,981,1042
8507,983,1046
8508,984,1045
8509,983,1044
8510,981,1043
8511,979,1041
8512,983,1044
8513,984,1046
8514,986,1045
8515,982,1044
8516,979,1043
8517,978,1046
8518,979,1047
8519,983,1052
8520,981,1051
8521,981,1047
8522,980,1043
8523,978,1044
8524,979,1048
8525,983,1052
8526,982,1053
8527,983,1051
8528,981,1051
8529,980,1055
8530,980,1055
8531,984,1053
8532,987,1051
8533,988,1047
8534,989,1044
8535,996,1040
8536,1010,1042
8537,1030,1042
8538,1049,1041
8539,1071,1037
8540,1104,1034
8541,1147,1025
8542,1195,1017
8543,1240,1012
8544,1283,1008
8545,1319,1005
8546,1335,1012
8547,1336,1025
8548,1313,1040
8549,1269,1045
8550,1203,1045
8551,1131,1049
8552,1055,1060
8553,982,1071
8554,935,1075
8555,930,1079
8556,940,1074
8557,959,1062
8558,967,1051
8559,968,1047
8560,974,1043
