'sample #','MLII','V1'
0,996,949
1,996,949
2,996,949
3,996,949
4,996,949
5,996,949
6,996,949
7,996,949
8,996,954
9,1001,953
10,996,950
11,996,947
12,993,947
13,995,951
14,998,952
15,1002,952
16,999,952
17,999,949
18,998,952
19,999,954
20,1004,957
21,1009,960
22,1009,960
23,1010,956
24,1009,959
25,1010,960
26,1012,965
27,1019,968
28,1020,967
29,1023,966
30,1025,964
31,1034,962
32,1047,958
33,1056,952
34,1058,948
35,1059,948
36,1057,946
37,1058,948
38,1054,948
39,1061,948
40,1051,947
41,1045,946
42,1040,946
43,1037,951
44,1036,953
45,1036,955
46,1027,948
47,1019,945
48,1010,943
49,1006,945
50,1000,949
51,998,947
52,1000,945
53,994,941
54,990,944
55,989,945
56,991,946
57,995,947
58,993,944
59,992,945
60,992,947
61,994,949
62,996,948
63,1000,947
64,996,945
65,993,946
66,993,949
67,997,957
68,998,967
69,1002,975
70,1003,973
71,998,958
72,996,936
73,996,907
74,996,866
75,1004,819
76,1028,782
77,1060,755
78,1100,748
79,1145,762
80,1182,785
81,1203,809
82,1192,838
83,1142,868
84,1069,897
85,1013,929
86,987,952
87,986,962
88,985,965
89,992,966
90,997,965
91,999,968
92,1004,969
93,1004,968
94,1000,966
95,997,963
96,993,966
97,994,967
98,999,967
99,1003,965
100,1004,964
101,1001,963
102,999,963
103,1000,965
104,1004,965
105,1005,966
106,1003,964
107,1001,958
108,1000,960
109,1002,963
110,1003,966
111,1005,965
112,1005,963
113,1002,961
114,1002,960
115,1003,963
116,1006,965
117,1007,962
118,1006,962
119,1001,960
120,1003,959
121,1006,963
122,1007,964
123,1007,967
124,1007,962
125,1006,961
126,1004,962
127,1005,965
128,1008,967
129,1012,967
130,1009,965
131,1008,961
132,1007,960
133,1009,964
134,1010,967
135,1013,966
136,1010,963
137,1007,964
138,1008,962
139,1007,965
140,1013,964
141,1016,966
142,1014,965
143,1011,963
144,1012,963
145,1011,965
146,1014,967
147,1017,966
148,1015,966
149,1015,966
150,1015,963
151,1015,966
152,1018,970
153,1017,971
154,1020,967
155,1016,965
156,1014,962
157,1013,966
158,1018,968
159,1019,970
160,1018,966
161,1013,964
162,1013,965
163,1014,968
164,1016,970
165,1016,966
166,1014,965
167,1011,964
168,1007,965
169,1008,965
170,1008,968
171,1010,967
172,1010,962
173,1008,961
174,1006,961
175,1006,962
176,1005,962
177,1006,964
178,1006,962
179,1001,960
180,997,958
181,1001,959
182,1003,960
183,1004,958
184,1002,957
185,999,956
186,996,957
187,996,958
188,1000,960
189,1001,958
190,998,955
191,997,952
192,994,952
193,995,956
194,998,959
195,998,957
196,995,956
197,994,949
198,992,952
199,994,954
200,998,957
201,999,957
202,999,954
203,993,950
204,993,952
205,993,954
206,996,956
207,999,954
208,998,953
209,997,950
210,994,952
211,993,955
212,997,956
213,998,956
214,997,954
215,996,951
216,991,952
217,994,952
218,997,956
219,999,958
220,995,954
221,994,952
222,992,951
223,993,953
224,997,955
225,996,954
226,994,953
227,995,949
228,992,951
229,993,952
230,994,957
231,998,954
232,999,951
233,995,947
234,994,949
235,995,951
236,997,952
237,1000,953
238,998,952
239,998,950
240,994,948
241,998,953
242,999,951
243,1002,954
244,1000,951
245,997,947
246,996,947
247,998,953
248,1001,954
249,1003,952
250,1002,951
251,1001,949
252,999,948
253,999,952
254,1003,953
255,1004,956
256,1003,953
257,1002,951
258,1000,949
259,1002,951
260,1004,954
261,1008,953
262,1007,952
263,1000,947
264,1002,948
265,1003,950
266,1003,953
267,1006,952
268,1007,949
269,1003,948
270,1000,951
271,1003,951
272,1003,953
273,1006,953
274,1006,951
275,1001,946
276,998,948
277,1002,950
278,1005,953
279,1007,953
280,1005,951
281,1005,947
282,1000,948
283,1004,950
284,1006,954
285,1004,952
286,1005,950
287,1003,948
288,1002,947
289,1004,950
290,1006,953
291,1010,952
292,1007,950
293,1005,951
294,1002,949
295,1006,951
296,1007,954
297,1009,956
298,1007,952
299,1005,949
300,999,952
301,1006,956
302,1010,959
303,1013,960
304,1012,959
305,1015,957
306,1013,960
307,1014,962
308,1020,966
309,1023,967
310,1024,965
311,1028,966
312,1028,967
313,1034,966
314,1047,962
315,1059,956
316,1064,948
317,1064,944
318,1060,942
319,1064,944
320,1065,947
321,1062,947
322,1053,945
323,1047,944
324,1043,947
325,1039,952
326,1038,954
327,1037,950
328,1028,947
329,1020,945
330,1009,945
331,1007,943
332,1003,945
333,1004,945
334,1000,942
335,992,942
336,992,943
337,993,945
338,995,945
339,998,945
340,995,944
341,993,942
342,994,942
343,995,942
344,997,946
345,1001,948
346,1000,949
347,1001,949
348,999,956
349,998,966
350,1001,970
351,1003,964
352,1004,945
353,1001,914
354,993,873
355,996,826
356,1016,788
357,1052,759
358,1097,756
359,1138,767
360,1171,792
361,1185,825
362,1169,858
363,1117,891
364,1054,916
365,1009,937
366,989,950
367,989,956
368,996,962
369,1002,962
370,1003,958
371,997,955
372,993,952
373,992,956
374,998,958
375,1000,958
376,1000,954
377,996,951
378,994,952
379,992,954
380,996,956
381,1000,955
382,999,955
383,997,949
384,992,953
385,993,954
386,999,956
387,1002,956
388,1000,953
389,998,950
390,1000,949
391,1003,949
392,1004,953
393,1009,952
394,1009,950
395,1008,946
396,1005,946
397,1007,950
398,1009,952
399,1013,951
400,1013,952
401,1009,949
402,1010,949
403,1009,952
404,1008,955
405,1010,956
406,1007,952
407,1004,951
408,1002,956
409,1004,957
410,1001,959
411,1007,957
412,1007,958
413,1003,951
414,1002,954
415,1000,957
416,1000,959
417,1003,961
418,1001,959
419,1000,958
420,997,959
421,1003,960
422,1004,964
423,1007,963
424,1005,963
425,1001,961
426,1001,961
427,1000,964
428,1002,965
429,1005,962
430,1005,960
431,1003,959
432,1000,960
433,1002,964
434,1004,967
435,1007,968
436,1003,964
437,1000,962
438,999,962
439,1000,961
440,998,965
441,1001,962
442,999,962
443,994,959
444,989,958
445,990,960
446,996,963
447,995,961
448,993,958
449,989,954
450,987,956
451,983,957
452,982,957
453,986,956
454,984,955
455,982,951
456,980,951
457,978,952
458,982,957
459,986,953
460,985,953
461,982,948
462,976,952
463,977,951
464,977,954
465,982,951
466,980,951
467,979,951
468,975,951
469,977,953
470,979,953
471,980,954
472,977,954
473,975,951
474,972,949
475,973,954
476,975,954
477,978,952
478,978,950
479,974,947
480,970,949
481,974,952
482,974,954
483,972,952
484,972,951
485,969,949
486,966,952
487,967,951
488,971,954
489,972,953
490,973,950
491,971,948
492,969,948
493,971,950
494,970,951
495,971,951
496,973,947
497,971,945
498,968,948
499,971,951
500,971,952
501,974,949
502,972,947
503,970,944
504,970,944
505,973,949
506,975,954
507,979,951
508,979,949
509,972,945
510,971,946
511,972,946
512,973,948
513,975,945
514,977,945
515,970,943
516,974,943
517,974,945
518,979,949
519,979,946
520,979,944
521,977,941
522,975,942
523,976,944
524,978,947
525,979,946
526,977,941
527,976,939
528,974,941
529,975,944
530,975,946
531,986,946
532,981,944
533,981,941
534,977,942
535,979,945
536,979,943
537,980,946
538,984,943
539,980,938
540,978,938
541,977,942
542,980,945
543,983,943
544,983,943
545,985,941
546,978,940
547,983,944
548,984,946
549,986,947
550,985,943
551,981,940
552,981,941
553,984,944
554,986,948
555,990,946
556,989,944
557,987,940
558,982,939
559,986,943
560,987,947
561,987,946
562,986,944
563,987,941
564,984,940
565,984,946
566,988,946
567,988,945
568,989,943
569,984,942
570,985,942
571,984,947
572,986,947
573,986,947
574,989,944
575,988,943
576,984,942
577,985,944
578,991,948
579,993,948
580,989,943
581,985,943
582,985,945
583,987,946
584,991,949
585,994,947
586,995,949
587,994,947
588,990,951
589,994,955
590,997,958
591,1003,958
592,1002,957
593,1002,953
594,1004,953
595,1008,955
596,1013,957
597,1021,954
598,1024,948
599,1028,941
600,1030,938
601,1035,936
602,1037,941
603,1042,939
604,1042,936
605,1037,934
606,1033,937
607,1034,940
608,1030,943
609,1030,945
610,1022,945
611,1019,942
612,1014,945
613,1010,946
614,1006,947
615,1006,945
616,995,946
617,989,941
618,987,941
619,983,940
620,983,947
621,984,945
622,984,940
623,984,940
624,982,939
625,981,945
626,984,946
627,986,948
628,986,945
629,985,943
630,983,944
631,987,951
632,988,958
633,990,962
634,991,958
635,988,954
636,986,938
637,985,923
638,982,902
639,978,869
640,981,835
641,995,803
642,1023,784
643,1062,780
644,1107,790
645,1147,809
646,1163,832
647,1140,857
648,1079,886
649,1020,917
650,985,941
651,972,954
652,974,959
653,975,957
654,983,959
655,991,963
656,993,966
657,996,965
658,993,963
659,988,959
660,985,959
661,986,963
662,987,963
663,991,964
664,986,961
665,988,959
666,984,959
667,987,964
668,989,965
669,990,966
670,989,963
671,989,960
672,988,963
673,992,965
674,992,964
675,994,968
676,994,965
677,993,964
678,992,961
679,993,966
680,995,966
681,999,966
682,997,963
683,994,961
684,993,963
685,994,965
686,997,966
687,1000,967
688,1000,966
689,998,963
690,995,963
691,998,966
692,999,968
693,1000,966
694,1001,966
695,999,961
696,995,963
697,997,964
698,998,968
699,1002,965
700,1001,965
701,1002,962
702,997,962
703,998,965
704,1003,966
705,1006,967
706,1004,965
707,1002,963
708,999,964
709,1004,966
710,1006,969
711,1007,970
712,1005,967
713,1005,963
714,1005,965
715,1004,967
716,1005,968
717,1007,968
718,1009,966
719,1004,963
720,1005,964
721,1005,965
722,1007,969
723,1008,966
724,1008,966
725,1002,961
726,997,961
727,1000,965
728,1000,967
729,1003,967
730,1001,963
731,997,962
732,995,963
733,992,962
734,997,964
735,996,964
736,992,963
737,991,960
738,987,961
739,990,962
740,992,963
741,994,964
742,992,959
743,993,959
744,989,960
745,989,962
746,994,965
747,995,965
748,993,962
749,993,960
750,988,960
751,992,963
752,991,965
753,994,963
754,993,960
755,990,961
756,987,959
757,990,963
758,990,967
759,992,966
760,991,960
761,988,960
762,986,959
763,987,960
764,993,963
765,993,962
766,989,962
767,986,959
768,986,960
769,988,964
770,989,963
771,992,961
772,992,961
773,987,955
774,987,959
775,985,959
776,990,962
777,990,963
778,989,958
779,987,958
780,987,957
781,987,956
782,990,962
783,993,962
784,991,961
785,990,955
786,986,956
787,988,959
788,990,962
789,992,958
790,993,957
791,989,955
792,988,956
793,988,958
794,993,959
795,992,961
796,992,959
797,991,955
798,991,955
799,993,959
800,994,962
801,999,960
802,998,955
803,993,955
804,990,955
805,991,958
806,994,961
807,998,960
808,995,959
809,993,957
810,990,956
811,992,958
812,993,959
813,995,960
814,995,955
815,990,953
816,991,955
817,994,958
818,995,962
819,996,960
820,995,958
821,993,956
822,989,956
823,992,958
824,996,962
825,1001,959
826,997,958
827,994,957
828,994,956
829,994,956
830,999,962
831,1001,963
832,1001,962
833,998,956
834,994,959
835,996,961
836,996,961
837,1000,964
838,1001,965
839,1001,962
840,1002,963
841,1004,968
842,1010,970
843,1014,971
844,1015,970
845,1016,968
846,1012,971
847,1016,972
848,1023,974
849,1035,974
850,1046,963
851,1052,960
852,1055,956
853,1056,961
854,1054,963
855,1058,961
856,1056,958
857,1049,955
858,1043,956
859,1040,957
860,1037,962
861,1041,960
862,1037,960
863,1028,955
864,1019,955
865,1010,957
866,1005,957
867,1002,958
868,998,957
869,991,952
870,989,953
871,987,956
872,991,957
873,994,957
874,993,955
875,989,953
876,988,955
877,992,959
878,990,961
879,996,963
880,998,966
881,995,964
882,992,962
883,992,948
884,992,923
885,992,886
886,995,851
887,1011,823
888,1047,810
889,1096,812
890,1139,823
891,1171,835
892,1183,849
893,1176,867
894,1136,884
895,1086,908
896,1034,930
897,1000,945
898,981,956
899,975,962
900,978,971
901,986,973
902,994,977
903,1000,978
904,1000,975
905,993,974
906,990,973
907,991,978
908,994,981
909,996,977
910,992,975
911,992,972
912,992,973
913,992,975
914,994,979
915,996,980
916,996,978
917,993,976
918,993,974
919,993,977
920,996,979
921,998,979
922,999,977
923,999,976
924,997,975
925,996,978
926,1000,981
927,1000,981
928,1001,976
929,1000,973
930,999,977
931,1000,978
932,1004,979
933,1006,978
934,1005,977
935,1002,972
936,1003,975
937,1000,977
938,1004,979
939,1005,979
940,1002,979
941,1003,974
942,999,975
943,1002,979
944,1003,980
945,1007,983
946,1005,978
947,1005,977
948,1002,979
949,1004,979
950,1006,984
951,1010,983
952,1010,980
953,1008,977
954,1003,978
955,1007,982
956,1009,984
957,1014,983
958,1013,983
959,1012,980
960,1010,979
961,1008,983
962,1009,986
963,1015,982
964,1015,981
965,1012,980
966,1012,981
967,1013,983
968,1015,986
969,1014,985
970,1013,983
971,1013,978
972,1011,979
973,1011,984
974,1016,989
975,1015,987
976,1014,984
977,1010,979
978,1007,983
979,1009,983
980,1011,983
981,1011,984
982,1011,979
983,1008,977
984,1004,977
985,1005,981
986,1004,983
987,1004,979
988,1003,977
989,1000,974
990,1000,977
991,998,978
992,1000,980
993,1003,977
994,1000,975
995,996,972
996,994,974
997,998,978
998,998,975
999,998,973
1000,997,970
1001,995,970
1002,994,973
1003,996,975
1004,997,973
1005,992,969
1006,991,968
1007,991,968
1008,993,971
1009,994,971
1010,997,975
1011,999,973
1012,992,968
1013,992,969
1014,992,970
1015,994,972
1016,997,971
1017,994,973
1018,994,968
1019,995,970
1020,997,971
1021,1000,972
1022,1001,972
1023,1000,970
1024,999,966
1025,993,966
1026,996,969
1027,997,972
1028,1001,971
1029,999,967
1030,995,964
1031,991,966
1032,993,966
1033,997,972
1034,1000,968
1035,999,968
1036,995,966
1037,993,965
1038,995,968
1039,996,970
1040,996,966
1041,995,967
1042,992,964
1043,992,963
1044,994,967
1045,995,968
1046,993,966
1047,993,964
1048,993,960
1049,994,964
1050,992,966
1051,995,969
1052,996,967
1053,996,967
1054,992,963
1055,991,965
1056,996,966
1057,996,966
1058,998,966
1059,999,964
1060,996,961
1061,996,963
1062,997,965
1063,999,968
1064,1001,966
1065,999,967
1066,996,964
1067,997,963
1068,999,967
1069,1000,967
1070,1002,967
1071,1000,963
1072,999,963
1073,995,964
1074,996,964
1075,1000,965
1076,1004,967
1077,1004,965
1078,1001,962
1079,1001,963
1080,1000,966
1081,1005,968
1082,1003,967
1083,1002,964
1084,1002,963
1085,1000,963
1086,1003,965
1087,1000,967
1088,1002,966
1089,1003,967
1090,1002,963
1091,1001,962
1092,1001,963
1093,1004,968
1094,1006,966
1095,1006,965
1096,1005,962
1097,1004,965
1098,1004,965
1099,1004,968
1100,1008,966
1101,1008,963
1102,1006,961
1103,1006,963
1104,1005,966
1105,1006,969
1106,1010,967
1107,1009,966
1108,1006,962
1109,1006,962
1110,1004,965
1111,1006,967
1112,1007,966
1113,1008,963
1114,1008,961
1115,1004,963
1116,1005,966
1117,1009,968
1118,1011,966
1119,1010,965
1120,1003,965
1121,1004,963
1122,1005,967
1123,1009,971
1124,1011,966
1125,1011,967
1126,1009,961
1127,1009,962
1128,1012,965
1129,1013,970
1130,1015,973
1131,1014,973
1132,1013,971
1133,1011,974
1134,1016,979
1135,1022,979
1136,1027,980
1137,1026,978
1138,1022,976
1139,1021,976
1140,1027,979
1141,1032,981
1142,1036,977
1143,1039,973
1144,1042,965
1145,1045,964
1146,1049,963
1147,1057,963
1148,1060,964
1149,1063,959
1150,1060,958
1151,1053,958
1152,1052,962
1153,1048,964
1154,1047,967
1155,1044,969
1156,1039,965
1157,1035,964
1158,1035,968
1159,1030,972
1160,1026,969
1161,1018,965
1162,1008,962
1163,1005,963
1164,1003,965
1165,1002,969
1166,1003,966
1167,1000,964
1168,997,961
1169,995,961
1170,996,964
1171,999,966
1172,1000,967
1173,999,967
1174,998,963
1175,998,965
1176,1001,970
1177,1003,978
1178,1006,982
1179,1003,986
1180,1003,984
1181,1000,981
1182,1003,975
1183,1004,965
1184,1003,944
1185,996,919
1186,992,890
1187,1000,861
1188,1019,836
1189,1045,816
1190,1078,803
1191,1109,801
1192,1145,811
1193,1179,830
1194,1200,859
1195,1188,889
1196,1135,915
1197,1067,940
1198,1013,958
1199,992,971
1200,987,979
1201,996,983
1202,1006,984
1203,1008,983
1204,1007,981
1205,1005,981
1206,1003,983
1207,1000,984
1208,1004,986
1209,1001,983
1210,1000,979
1211,1002,980
1212,1003,984
1213,1003,986
1214,1007,982
1215,1005,983
1216,1003,980
1217,1002,982
1218,1004,983
1219,1008,984
1220,1010,983
1221,1007,983
1222,1006,979
1223,1005,981
1224,1006,982
1225,1011,985
1226,1010,984
1227,1011,981
1228,1009,979
1229,1008,981
1230,1012,983
1231,1014,986
1232,1015,984
1233,1013,981
1234,1013,980
1235,1011,979
1236,1012,980
1237,1014,983
1238,1016,981
1239,1015,980
1240,1010,980
1241,1010,980
1242,1013,982
1243,1014,982
1244,1016,981
1245,1015,980
1246,1014,979
1247,1011,979
1248,1010,982
1249,1016,986
1250,1017,983
1251,1019,981
1252,1013,978
1253,1013,980
1254,1014,984
1255,1014,984
1256,1019,982
1257,1015,982
1258,1014,978
1259,1013,979
1260,1015,982
1261,1018,985
1262,1020,981
1263,1018,983
1264,1016,980
1265,1016,981
1266,1017,983
1267,1017,985
1268,1023,984
1269,1017,983
1270,1016,980
1271,1014,979
1272,1015,984
1273,1017,986
1274,1018,985
1275,1017,982
1276,1015,980
1277,1010,980
1278,1013,981
1279,1015,983
1280,1014,980
1281,1012,981
1282,1009,979
1283,1003,978
1284,1004,980
1285,1006,984
1286,1006,979
1287,1003,979
1288,999,973
1289,1000,973
1290,1001,977
1291,1004,979
1292,1006,977
1293,1003,975
1294,1000,972
1295,995,973
1296,996,973
1297,1000,976
1298,1001,975
1299,998,971
1300,996,971
1301,993,974
1302,995,976
1303,993,977
1304,995,975
1305,996,970
1306,992,969
1307,995,969
1308,995,971
1309,996,972
1310,994,973
1311,997,972
1312,994,969
1313,991,969
1314,992,972
1315,990,972
1316,995,974
1317,995,970
1318,987,967
1319,988,968
1320,988,969
1321,992,970
1322,996,969
1323,993,967
1324,990,966
1325,988,967
1326,987,968
1327,991,971
1328,992,969
1329,987,966
1330,988,964
1331,986,965
1332,988,966
1333,992,970
1334,994,969
1335,994,968
1336,992,966
1337,990,965
1338,990,968
1339,993,970
1340,994,967
1341,992,966
1342,989,962
1343,986,962
1344,985,968
1345,987,969
1346,990,968
1347,988,967
1348,991,962
1349,988,961
1350,991,966
1351,991,965
1352,993,965
1353,988,962
1354,985,961
1355,984,962
1356,988,963
1357,990,966
1358,991,968
1359,991,965
1360,989,963
1361,988,964
1362,990,966
1363,992,968
1364,995,966
1365,993,963
1366,990,961
1367,991,962
1368,989,964
1369,990,966
1370,996,964
1371,994,962
1372,990,960
1373,989,961
1374,990,964
1375,994,965
1376,995,967
1377,994,964
1378,992,960
1379,989,962
1380,993,964
1381,994,966
1382,996,966
1383,995,962
1384,994,958
1385,988,961
1386,990,965
1387,995,967
1388,998,967
1389,995,964
1390,993,963
1391,987,958
1392,991,961
1393,993,965
1394,996,964
1395,996,963
1396,994,961
1397,992,960
1398,993,963
1399,993,963
1400,996,962
1401,996,961
1402,995,959
1403,994,962
1404,991,965
1405,995,967
1406,998,964
1407,996,961
1408,995,958
1409,992,961
1410,992,961
1411,995,965
1412,998,964
1413,998,963
1414,993,962
1415,994,963
1416,995,967
1417,1000,970
1418,1001,972
1419,1000,973
1420,997,970
1421,1000,974
1422,1002,975
1423,1006,978
1424,1009,979
1425,1014,978
1426,1013,975
1427,1010,979
1428,1017,980
1429,1024,978
1430,1028,970
1431,1034,964
1432,1039,956
1433,1042,955
1434,1043,956
1435,1047,957
1436,1048,959
1437,1047,958
1438,1041,957
1439,1036,959
1440,1032,962
1441,1032,968
1442,1031,969
1443,1027,964
1444,1023,962
1445,1019,960
1446,1015,963
1447,1010,967
1448,1005,964
1449,998,962
1450,991,959
1451,991,959
1452,992,960
1453,989,962
1454,989,963
1455,988,960
1456,987,958
1457,984,958
1458,988,961
1459,990,963
1460,993,963
1461,994,962
1462,988,961
1463,990,961
1464,992,968
1465,994,973
1466,1000,980
1467,1002,986
1468,997,990
1469,994,987
1470,997,979
1471,1001,971
1472,996,943
1473,991,911
1474,984,873
1475,989,839
1476,1007,810
1477,1040,788
1478,1077,777
1479,1114,780
1480,1152,795
1481,1179,822
1482,1195,851
1483,1182,882
1484,1133,910
1485,1068,935
1486,1013,954
1487,986,973
1488,980,985
1489,989,987
1490,995,988
1491,1003,984
1492,1003,983
1493,997,983
1494,998,985
1495,997,984
1496,1001,983
1497,999,985
1498,997,983
1499,996,980
1500,1001,982
1501,1003,985
1502,1004,985
1503,1001,981
1504,1000,981
1505,999,980
1506,999,984
1507,997,985
1508,1002,984
1509,1001,981
1510,999,978
1511,999,979
1512,1001,982
1513,1003,983
1514,1009,985
1515,1004,982
1516,1001,982
1517,1002,981
1518,1005,983
1519,1007,986
1520,1012,983
1521,1010,981
1522,1008,979
1523,1006,983
1524,1010,986
1525,1012,988
1526,1015,989
1527,1011,984
1528,1011,983
1529,1009,984
1530,1010,985
1531,1011,986
1532,1012,986
1533,1012,985
1534,1011,984
1535,1011,984
1536,1012,983
1537,1014,987
1538,1012,987
1539,1014,982
1540,1014,980
1541,1013,984
1542,1017,986
1543,1018,988
1544,1022,986
1545,1019,984
1546,1017,982
1547,1012,981
1548,1016,986
1549,1020,991
1550,1020,989
1551,1022,986
1552,1018,987
1553,1017,986
1554,1020,988
1555,1022,992
1556,1026,990
1557,1026,986
1558,1025,984
1559,1021,985
1560,1023,989
1561,1023,993
1562,1022,992
1563,1024,990
1564,1020,986
1565,1020,986
1566,1020,988
1567,1021,991
1568,1023,991
1569,1019,986
1570,1015,984
1571,1016,983
1572,1017,986
1573,1018,987
1574,1020,984
1575,1016,983
1576,1011,980
1577,1010,982
1578,1011,982
1579,1012,986
1580,1014,982
1581,1010,980
1582,1008,978
1583,1003,978
1584,1005,980
1585,1008,982
1586,1010,982
1587,1012,980
1588,1007,977
1589,1005,976
1590,1004,978
1591,1009,979
1592,1009,979
1593,1008,977
1594,1004,974
1595,1000,976
1596,1003,978
1597,1003,981
1598,1005,979
1599,1005,978
1600,1004,973
1601,1002,977
1602,1001,978
1603,1005,982
1604,1005,981
1605,1005,981
1606,1003,977
1607,1001,977
1608,1002,980
1609,1003,981
1610,1009,979
1611,1006,977
1612,1006,977
1613,1004,976
1614,1005,976
1615,1003,981
1616,1007,978
1617,1007,977
1618,1003,974
1619,1004,974
1620,1001,977
1621,1002,980
1622,1003,978
1623,1004,976
1624,1002,973
1625,1000,974
1626,1004,977
1627,1003,981
1628,1005,978
1629,1003,977
1630,1002,975
1631,998,972
1632,1000,973
1633,1003,977
1634,1004,976
1635,1005,977
1636,1003,974
1637,1003,975
1638,1004,976
1639,1003,979
1640,1008,978
1641,1009,976
1642,1003,975
1643,1003,975
1644,1004,976
1645,1005,980
1646,1008,978
1647,1006,975
1648,1006,974
1649,1006,973
1650,1005,975
1651,1008,978
1652,1010,977
1653,1008,976
1654,1005,972
1655,1003,974
1656,1003,974
1657,1003,977
1658,1007,975
1659,1012,973
1660,1005,970
1661,1007,971
1662,1008,975
1663,1008,976
1664,1013,977
1665,1009,977
1666,1007,973
1667,1007,973
1668,1009,974
1669,1009,978
1670,1010,976
1671,1012,974
1672,1009,973
1673,1008,973
1674,1009,976
1675,1013,978
1676,1014,977
1677,1012,974
1678,1008,970
1679,1007,971
1680,1010,974
1681,1013,976
1682,1016,975
1683,1014,975
1684,1011,970
1685,1004,975
1686,1010,976
1687,1013,979
1688,1016,977
1689,1010,974
1690,1014,974
1691,1010,975
1692,1014,975
1693,1014,977
1694,1017,976
1695,1016,974
1696,1013,972
1697,1010,974
1698,1010,977
1699,1014,976
1700,1016,979
1701,1016,974
1702,1014,971
1703,1012,975
1704,1009,976
1705,1010,979
1706,1013,978
1707,1012,976
1708,1009,973
1709,1008,975
1710,1011,978
1711,1012,980
1712,1015,981
1713,1017,978
1714,1016,979
1715,1018,982
1716,1019,986
1717,1025,989
1718,1026,991
1719,1025,988
1720,1025,988
1721,1025,989
1722,1029,990
1723,1034,993
1724,1038,989
1725,1043,984
1726,1046,975
1727,1050,971
1728,1054,969
1729,1058,970
1730,1061,970
1731,1058,965
1732,1055,961
1733,1051,964
1734,1050,969
1735,1044,973
1736,1045,974
1737,1041,974
1738,1035,971
1739,1032,973
1740,1029,974
1741,1027,978
1742,1024,975
1743,1017,972
1744,1011,971
1745,1003,971
1746,999,971
1747,1002,972
1748,998,972
1749,995,970
1750,994,970
1751,995,971
1752,994,971
1753,997,974
1754,1001,973
1755,998,971
1756,993,967
1757,991,971
1758,992,973
1759,996,977
1760,998,976
1761,997,977
1762,994,980
1763,991,987
1764,998,996
1765,1001,1000
1766,1001,990
1767,1000,977
1768,1000,958
1769,994,929
1770,992,898
1771,990,863
1772,1002,828
1773,1018,798
1774,1045,781
1775,1079,782
1776,1122,795
1777,1157,817
1778,1174,841
1779,1162,870
1780,1119,896
1781,1062,925
1782,1018,951
1783,993,976
1784,983,986
1785,984,987
1786,988,988
1787,989,989
1788,996,989
1789,997,992
1790,1000,992
1791,997,990
1792,992,988
1793,992,988
1794,990,993
1795,993,995
1796,995,992
1797,996,991
1798,994,985
1799,995,985
1800,994,987
1801,996,990
1802,999,990
1803,997,989
1804,995,983
1805,994,985
1806,995,990
1807,994,991
1808,994,988
1809,998,988
1810,996,985
1811,992,987
1812,994,991
1813,999,993
1814,1001,995
1815,1002,990
1816,998,988
1817,995,990
1818,995,992
1819,1000,993
1820,1003,992
1821,1000,989
1822,1000,989
1823,999,987
1824,1000,991
1825,1001,991
1826,1005,989
1827,1006,989
1828,1003,987
1829,1001,989
1830,1004,989
1831,1002,991
1832,1006,991
1833,1004,990
1834,1004,988
1835,999,987
1836,1003,990
1837,1007,992
1838,1008,992
1839,1007,992
1840,1003,989
1841,1004,991
1842,1004,994
1843,1004,996
1844,1006,994
1845,1007,991
1846,1004,989
1847,1001,991
1848,1005,995
1849,1008,996
1850,1009,994
1851,1007,992
1852,1008,986
1853,1005,988
1854,1006,990
1855,1008,993
1856,1012,993
1857,1008,992
1858,1007,990
1859,1004,991
1860,1004,992
1861,1005,992
1862,1010,993
1863,1008,990
1864,1008,988
1865,1008,986
1866,1007,990
1867,1005,991
1868,1007,989
1869,1003,988
1870,999,985
1871,995,983
1872,993,988
1873,996,988
1874,1000,985
1875,998,986
1876,993,983
1877,991,984
1878,992,984
1879,993,987
1880,994,985
1881,992,983
1882,993,982
1883,992,983
1884,992,984
1885,995,985
1886,994,985
1887,991,979
1888,988,977
1889,987,980
1890,988,985
1891,988,985
1892,990,986
1893,991,982
1894,990,982
1895,988,983
1896,989,981
1897,992,984
1898,993,986
1899,991,983
1900,989,979
1901,987,981
1902,986,983
1903,992,982
1904,992,983
1905,992,982
1906,988,982
1907,985,982
1908,985,983
1909,988,984
1910,991,985
1911,989,979
1912,987,977
1913,986,975
1914,984,981
1915,986,984
1916,989,981
1917,986,981
1918,987,979
1919,983,978
1920,984,981
1921,986,982
1922,991,981
1923,990,979
1924,987,976
1925,987,979
1926,987,979
1927,989,980
1928,988,978
1929,991,978
1930,989,975
1931,986,978
1932,987,979
1933,993,982
1934,992,981
1935,990,979
1936,986,975
1937,987,976
1938,988,977
1939,992,984
1940,996,981
1941,995,979
1942,992,975
1943,991,976
1944,988,980
1945,993,980
1946,994,979
1947,991,979
1948,991,975
1949,991,975
1950,989,976
1951,991,979
1952,995,978
1953,995,974
1954,993,973
1955,992,974
1956,991,976
1957,996,979
1958,997,977
1959,995,976
1960,994,974
1961,992,976
1962,993,977
1963,996,978
1964,998,981
1965,997,978
1966,994,974
1967,995,976
1968,993,977
1969,996,981
1970,1001,982
1971,1000,977
1972,998,975
1973,999,977
1974,998,980
1975,1001,981
1976,1000,982
1977,999,978
1978,999,975
1979,998,979
1980,1000,978
1981,998,980
1982,1001,979
1983,1001,977
1984,999,975
1985,999,976
1986,999,980
1987,999,979
1988,1002,984
1989,1005,979
1990,999,978
1991,997,978
1992,999,979
1993,1004,981
1994,1007,980
1995,1004,976
1996,1002,975
1997,1001,975
1998,1000,977
1999,1003,983
2000,1008,981
2001,1005,978
2002,1002,975
2003,1001,977
2004,1001,981
2005,1006,985
2006,1007,984
2007,1005,979
2008,1004,978
2009,1002,979
2010,1006,980
2011,1008,987
2012,1010,987
2013,1011,990
2014,1010,989
2015,1013,988
2016,1014,992
2017,1019,994
2018,1024,991
2019,1026,988
2020,1025,987
2021,1027,984
2022,1033,986
2023,1043,980
2024,1051,975
2025,1052,970
2026,1054,968
2027,1053,968
2028,1054,972
2029,1051,975
2030,1050,975
2031,1047,972
2032,1043,973
2033,1039,976
2034,1037,980
2035,1039,982
2036,1038,983
2037,1035,978
2038,1024,977
2039,1015,980
2040,1011,979
2041,1005,979
2042,1003,978
2043,1000,973
2044,998,975
2045,996,976
2046,994,979
2047,999,980
2048,1002,979
2049,1001,979
2050,998,975
2051,997,978
2052,997,980
2053,1001,979
2054,1003,981
2055,1002,979
2056,1004,977
2057,1004,982
2058,1004,991
2059,1006,1000
2060,1010,1003
2061,1008,996
2062,1005,980
2063,999,962
2064,995,934
2065,994,902
2066,998,864
2067,1010,828
2068,1034,801
2069,1067,790
2070,1112,800
2071,1157,824
2072,1184,856
2073,1178,885
2074,1134,917
2075,1067,948
2076,1018,978
2077,998,992
2078,995,1001
2079,1001,1001
2080,1004,1000
2081,1005,1000
2082,1008,1003
2083,1013,1004
2084,1012,1002
2085,1008,998
2086,1005,995
2087,1007,997
2088,1006,997
2089,1008,1000
2090,1009,1002
2091,1011,998
2092,1009,995
2093,1008,996
2094,1010,999
2095,1012,998
2096,1012,996
2097,1013,998
2098,1012,994
2099,1011,993
2100,1013,997
2101,1015,998
2102,1014,1000
2103,1013,996
2104,1010,993
2105,1008,993
2106,1014,997
2107,1014,1001
2108,1020,1000
2109,1017,997
2110,1014,995
2111,1016,993
2112,1015,999
2113,1018,999
2114,1020,999
2115,1021,999
2116,1017,995
2117,1016,994
2118,1018,995
2119,1020,998
2120,1021,996
2121,1019,997
2122,1017,995
2123,1019,994
2124,1019,997
2125,1021,1000
2126,1023,1000
2127,1021,997
2128,1018,994
2129,1017,996
2130,1017,996
2131,1022,1001
2132,1023,1002
2133,1023,995
2134,1020,996
2135,1020,992
2136,1020,995
2137,1024,998
2138,1027,1002
2139,1028,995
2140,1025,994
2141,1024,993
2142,1024,995
2143,1027,997
2144,1025,996
2145,1027,994
2146,1026,995
2147,1023,992
2148,1026,997
2149,1027,998
2150,1031,996
2151,1026,994
2152,1025,990
2153,1024,991
2154,1024,995
2155,1024,995
2156,1026,996
2157,1024,995
2158,1021,990
2159,1017,989
2160,1018,994
2161,1018,995
2162,1019,992
2163,1015,990
2164,1013,987
2165,1009,988
2166,1012,989
2167,1013,992
2168,1017,991
2169,1013,990
2170,1008,987
2171,1004,990
2172,1010,991
2173,1015,993
2174,1014,993
2175,1014,990
2176,1010,988
2177,1009,988
2178,1010,990
2179,1014,995
2180,1015,993
2181,1015,990
2182,1013,989
2183,1011,988
2184,1009,989
2185,1012,989
2186,1017,989
2187,1014,987
2188,1009,983
2189,1007,983
2190,1006,989
2191,1013,992
2192,1013,989
2193,1011,985
2194,1011,982
2195,1006,984
2196,1008,990
2197,1011,988
2198,1012,988
2199,1010,985
2200,1005,984
2201,1005,983
2202,1006,986
2203,1008,989
2204,1008,985
2205,1008,983
2206,1005,980
2207,1004,983
2208,1006,983
2209,1010,988
2210,1010,986
2211,1009,982
2212,1006,981
2213,1004,980
2214,1006,985
2215,1008,985
2216,1012,984
2217,1012,981
2218,1007,977
2219,1005,978
2220,1007,981
2221,1011,983
2222,1012,984
2223,1011,982
2224,1006,979
2225,1006,981
2226,1008,981
2227,1010,984
2228,1012,983
2229,1012,978
2230,1011,978
2231,1010,979
2232,1011,982
2233,1013,985
2234,1015,982
2235,1013,978
2236,1010,976
2237,1009,979
2238,1013,979
2239,1016,981
2240,1016,981
2241,1015,979
2242,1013,978
2243,1011,979
2244,1013,982
2245,1014,983
2246,1015,982
2247,1016,982
2248,1013,975
2249,1011,977
2250,1013,979
2251,1020,981
2252,1021,980
2253,1018,977
2254,1015,975
2255,1015,976
2256,1016,979
2257,1015,983
2258,1019,979
2259,1017,978
2260,1017,974
2261,1013,974
2262,1013,979
2263,1014,979
2264,1020,979
2265,1018,978
2266,1016,975
2267,1012,974
2268,1015,980
2269,1017,980
2270,1021,985
2271,1022,979
2272,1020,980
2273,1019,983
2274,1019,986
2275,1024,990
2276,1029,988
2277,1028,989
2278,1028,984
2279,1029,987
2280,1031,989
2281,1031,994
2282,1037,997
2283,1037,996
2284,1040,992
2285,1046,988
2286,1056,984
2287,1069,981
2288,1074,979
2289,1075,972
2290,1074,970
2291,1070,970
2292,1072,971
2293,1075,974
2294,1070,974
2295,1063,974
2296,1060,974
2297,1055,978
2298,1050,978
2299,1050,979
2300,1044,979
2301,1041,973
2302,1025,972
2303,1018,974
2304,1015,972
2305,1017,974
2306,1014,974
2307,1012,972
2308,1008,969
2309,1006,971
2310,1004,971
2311,1007,973
2312,1007,972
2313,1006,972
2314,1004,969
2315,1000,975
2316,1005,977
2317,1009,976
2318,1012,979
2319,1011,977
2320,1009,977
2321,1008,983
2322,1010,996
2323,1014,1003
2324,1015,1003
2325,1014,991
2326,1009,967
2327,1004,931
2328,1003,888
2329,1008,847
2330,1029,803
2331,1060,776
2332,1097,765
2333,1132,771
2334,1167,795
2335,1196,822
2336,1202,851
2337,1183,881
2338,1131,911
2339,1062,947
2340,1012,975
2341,990,991
2342,993,993
2343,1004,993
2344,1008,989
2345,1007,990
2346,1005,992
2347,1004,996
2348,1006,995
2349,1004,992
2350,1004,989
2351,1003,990
2352,1006,993
2353,1009,993
2354,1007,993
2355,1010,992
2356,1007,992
2357,1007,991
2358,1008,994
2359,1008,994
2360,1009,993
2361,1008,990
2362,1006,988
2363,1006,989
2364,1008,991
2365,1010,995
2366,1012,995
2367,1011,992
2368,1008,989
2369,1009,987
2370,1008,990
2371,1011,993
2372,1013,993
2373,1012,992
2374,1011,988
2375,1008,988
2376,1008,991
2377,1013,994
2378,1016,994
2379,1015,993
2380,1014,991
2381,1011,994
2382,1011,994
2383,1015,996
2384,1018,994
2385,1012,992
2386,1014,993
2387,1010,991
2388,1014,997
2389,1017,997
2390,1018,997
2391,1017,992
2392,1015,994
2393,1014,992
2394,1016,998
2395,1018,1000
2396,1022,1000
2397,1019,997
2398,1016,995
2399,1015,995
2400,1019,999
2401,1021,1002
2402,1024,999
2403,1021,998
2404,1021,993
2405,1020,996
2406,1021,998
2407,1022,1001
2408,1023,1000
2409,1023,997
2410,1021,996
2411,1017,998
2412,1016,1000
2413,1019,1000
2414,1020,1001
2415,1019,998
2416,1016,993
2417,1012,993
2418,1011,995
2419,1016,998
2420,1013,996
2421,1010,993
2422,1006,991
2423,1003,990
2424,1004,991
2425,1006,992
2426,1010,990
2427,1006,990
2428,1001,988
2429,999,986
2430,1001,990
2431,1001,991
2432,1003,988
2433,1000,986
2434,998,985
2435,997,986
2436,995,989
2437,995,990
2438,997,988
2439,994,987
2440,991,980
2441,990,982
2442,990,986
2443,993,985
2444,993,988
2445,993,985
2446,991,983
2447,990,984
2448,990,984
2449,991,986
2450,994,984
2451,990,981
2452,989,981
2453,987,982
2454,992,983
2455,991,981
2456,994,980
2457,991,982
2458,990,976
2459,988,975
2460,989,980
2461,989,983
2462,991,982
2463,989,978
2464,985,976
2465,984,976
2466,986,979
2467,988,981
2468,988,979
2469,989,981
2470,989,978
2471,988,979
2472,988,980
2473,989,982
2474,993,981
2475,989,976
2476,987,976
2477,987,977
2478,986,980
2479,986,980
2480,989,979
2481,990,976
2482,988,977
2483,987,973
2484,987,979
2485,989,979
2486,991,980
2487,990,978
2488,988,973
2489,985,975
2490,988,977
2491,991,980
2492,990,979
2493,990,976
2494,991,973
2495,988,973
2496,990,979
2497,991,977
2498,994,978
2499,989,978
2500,991,974
2501,988,977
2502,990,978
2503,993,979
2504,993,976
2505,990,974
2506,991,972
2507,989,973
2508,990,975
2509,994,980
2510,992,979
2511,991,975
2512,988,971
2513,989,973
2514,990,975
2515,993,979
2516,994,977
2517,992,975
2518,988,972
2519,988,974
2520,989,971
2521,991,976
2522,992,977
2523,992,973
2524,988,973
2525,987,972
2526,986,976
2527,989,977
2528,990,974
2529,992,972
2530,989,971
2531,986,972
2532,984,976
2533,988,977
2534,989,974
2535,989,974
2536,986,972
2537,982,970
2538,983,970
2539,985,975
2540,987,975
2541,986,972
2542,983,972
2543,982,973
2544,983,976
2545,984,976
2546,985,977
2547,983,973
2548,983,970
2549,982,970
2550,983,973
2551,984,976
2552,987,976
2553,980,973
2554,978,970
2555,978,970
2556,982,973
2557,981,976
2558,984,975
2559,981,973
2560,979,968
2561,979,971
2562,979,975
2563,982,975
2564,980,975
2565,977,975
2566,974,970
2567,975,972
2568,977,971
2569,979,978
2570,980,977
2571,977,975
2572,978,972
2573,976,973
2574,980,973
2575,980,975
2576,981,973
2577,978,972
2578,976,972
2579,975,975
2580,979,975
2581,981,981
2582,980,979
2583,981,973
2584,978,971
2585,981,972
2586,980,976
2587,984,977
2588,985,976
2589,983,975
2590,981,972
2591,978,973
2592,981,970
2593,989,969
2594,991,968
2595,992,962
2596,990,959
2597,991,956
2598,993,958
2599,997,960
2600,1001,957
2601,1003,956
2602,1000,955
2603,996,957
2604,988,964
2605,992,968
2606,991,969
2607,986,969
2608,980,972
2609,981,976
2610,981,979
2611,984,981
2612,984,978
2613,977,975
2614,972,974
2615,970,972
2616,965,972
2617,966,975
2618,970,976
2619,970,972
2620,966,971
2621,963,969
2622,964,974
2623,964,974
2624,970,974
2625,970,973
2626,968,970
2627,967,972
2628,966,975
2629,968,980
2630,971,987
2631,973,996
2632,969,1000
2633,969,1000
2634,971,996
2635,974,979
2636,970,951
2637,966,910
2638,957,863
2639,962,822
2640,984,797
2641,1015,785
2642,1055,791
2643,1087,806
2644,1106,824
2645,1107,856
2646,1086,890
2647,1044,926
2648,993,949
2649,955,972
2650,940,979
2651,941,990
2652,952,994
2653,963,995
2654,972,996
2655,972,995
2656,970,992
2657,964,992
2658,965,993
2659,966,995
2660,965,995
2661,963,992
2662,962,988
2663,961,987
2664,968,990
2665,969,990
2666,971,991
2667,968,990
2668,966,988
2669,964,988
2670,964,989
2671,971,991
2672,971,992
2673,969,989
2674,966,986
2675,963,988
2676,968,990
2677,968,992
2678,970,992
2679,970,987
2680,969,985
2681,967,985
2682,969,991
2683,972,993
2684,975,990
2685,971,987
2686,965,984
2687,964,986
2688,967,986
2689,971,989
2690,973,990
2691,971,987
2692,966,984
2693,962,986
2694,964,987
2695,965,989
2696,970,985
2697,972,984
2698,970,983
2699,967,982
2700,970,983
2701,970,988
2702,973,986
2703,972,984
2704,968,982
2705,966,983
2706,966,987
2707,970,987
2708,972,986
2709,969,985
2710,965,981
2711,966,985
2712,968,987
2713,970,991
2714,973,989
2715,972,986
2716,968,982
2717,964,985
2718,963,985
2719,965,988
2720,969,987
2721,966,983
2722,965,982
2723,963,982
2724,965,983
2725,966,986
2726,968,983
2727,965,983
2728,963,979
2729,962,982
2730,962,984
2731,963,984
2732,961,984
2733,953,979
2734,951,979
2735,948,979
2736,946,980
2737,947,981
2738,947,979
2739,949,979
2740,947,977
2741,944,980
2742,946,983
2743,946,983
2744,947,984
2745,945,981
2746,941,977
2747,940,976
2748,936,978
2749,943,982
2750,950,980
2751,948,978
2752,942,977
2753,943,975
2754,942,977
2755,943,981
2756,945,978
2757,944,977
2758,937,976
2759,937,977
2760,938,979
2761,941,982
2762,945,978
2763,945,977
2764,937,974
2765,938,976
2766,937,976
2767,938,980
2768,937,977
2769,940,975
2770,938,972
2771,936,974
2772,937,978
2773,939,979
2774,941,979
2775,941,976
2776,939,975
2777,936,975
2778,937,975
2779,939,976
2780,935,973
2781,938,974
2782,935,972
2783,935,970
2784,936,974
2785,937,977
2786,938,976
2787,938,972
2788,937,971
2789,934,973
2790,938,975
2791,939,976
2792,943,975
2793,940,972
2794,937,969
2795,938,974
2796,938,975
2797,939,974
2798,941,974
2799,938,972
2800,937,971
2801,936,970
2802,935,972
2803,942,972
2804,942,974
2805,942,973
2806,938,970
2807,937,970
2808,938,974
2809,941,974
2810,945,974
2811,944,969
2812,942,970
2813,938,971
2814,940,973
2815,942,974
2816,944,974
2817,941,972
2818,939,971
2819,938,970
2820,939,974
2821,940,975
2822,944,975
2823,942,973
2824,943,973
2825,940,970
2826,940,974
2827,943,974
2828,943,975
2829,943,974
2830,940,971
2831,940,970
2832,941,974
2833,943,976
2834,944,975
2835,943,972
2836,944,970
2837,942,974
2838,940,972
2839,944,976
2840,947,974
2841,947,972
2842,944,973
2843,943,970
2844,941,972
2845,946,975
2846,946,976
2847,945,972
2848,944,971
2849,940,969
2850,945,973
2851,946,974
2852,949,973
2853,946,972
2854,943,970
2855,940,972
2856,941,973
2857,945,974
2858,947,976
2859,945,973
2860,944,972
2861,942,971
2862,939,974
2863,945,976
2864,947,977
2865,944,975
2866,942,971
2867,941,971
2868,944,977
2869,946,978
2870,948,980
2871,947,977
2872,945,976
2873,943,976
2874,945,979
2875,949,981
2876,951,979
2877,950,974
2878,947,972
2879,946,975
2880,947,978
2881,950,980
2882,952,979
2883,950,976
2884,952,972
2885,949,972
2886,952,972
2887,956,971
2888,960,967
2889,960,963
2890,959,957
2891,960,956
2892,962,962
2893,968,960
2894,972,960
2895,974,955
2896,972,958
2897,971,963
2898,967,965
2899,966,970
2900,966,969
2901,963,971
2902,959,972
2903,956,975
2904,957,979
2905,962,983
2906,961,978
2907,959,976
2908,953,974
2909,947,973
2910,944,977
2911,945,977
2912,947,976
2913,944,972
2914,943,972
2915,942,971
2916,944,976
2917,946,977
2918,946,977
2919,946,975
2920,942,974
2921,945,974
2922,948,978
2923,951,984
2924,953,980
2925,952,984
2926,949,991
2927,952,997
2928,951,1000
2929,957,998
2930,957,980
2931,953,953
2932,947,913
2933,944,871
2934,956,836
2935,977,811
2936,1009,797
2937,1041,793
2938,1068,801
2939,1094,825
2940,1103,856
2941,1089,887
2942,1053,915
2943,1005,942
2944,965,966
2945,944,985
2946,938,1000
2947,944,1004
2948,954,1004
2949,957,1001
2950,956,997
2951,954,997
2952,955,1000
2953,955,1000
2954,952,1001
2955,953,998
2956,955,998
2957,951,997
2958,954,997
2959,954,999
2960,958,1001
2961,957,998
2962,954,995
2963,953,997
2964,952,999
2965,956,1001
2966,957,999
2967,957,997
2968,956,995
2969,955,994
2970,955,998
2971,957,1000
2972,959,1000
2973,958,996
2974,955,994
2975,956,994
2976,960,997
2977,962,1002
2978,964,1000
2979,963,1000
2980,962,995
2981,962,995
2982,964,998
2983,964,999
2984,968,998
2985,966,996
2986,964,995
2987,963,997
2988,963,995
2989,964,1001
2990,966,999
2991,967,998
2992,963,994
2993,962,995
2994,965,996
2995,967,999
2996,966,997
2997,965,996
2998,964,996
2999,963,995
3000,965,999
3001,965,1002
3002,968,999
3003,969,997
3004,964,997
3005,964,994
3006,965,997
3007,969,998
3008,969,998
3009,968,998
3010,969,995
3011,965,998
3012,965,999
3013,966,1001
3014,970,999
3015,968,997
3016,967,992
3017,964,995
3018,967,998
3019,967,999
3020,969,998
3021,968,994
3022,963,992
3023,964,993
3024,961,993
3025,963,997
3026,964,996
3027,962,991
3028,955,991
3029,956,990
3030,956,991
3031,956,993
3032,959,992
3033,959,991
3034,955,986
3035,954,989
3036,954,993
3037,955,992
3038,955,992
3039,958,989
3040,955,989
3041,951,990
3042,955,989
3043,956,993
3044,960,991
3045,959,989
3046,956,988
3047,955,988
3048,953,991
3049,958,992
3050,960,991
3051,960,989
3052,956,987
3053,956,987
3054,955,989
3055,960,992
3056,960,992
3057,960,987
3058,957,988
3059,955,984
3060,956,987
3061,956,992
3062,961,990
3063,960,987
3064,956,985
3065,955,988
3066,957,989
3067,962,990
3068,961,990
3069,961,988
3070,959,985
3071,958,988
3072,959,990
3073,961,992
3074,965,989
3075,962,989
3076,960,984
3077,960,989
3078,961,988
3079,961,989
3080,966,989
3081,963,987
3082,961,984
3083,958,984
3084,961,989
3085,963,992
3086,962,990
3087,969,990
3088,960,986
3089,966,985
3090,965,988
3091,967,987
3092,970,988
3093,965,985
3094,966,985
3095,964,986
3096,967,991
3097,968,990
3098,968,989
3099,969,986
3100,968,986
3101,966,985
3102,967,989
3103,971,991
3104,974,989
3105,974,988
3106,971,984
3107,969,985
3108,970,986
3109,972,987
3110,974,989
3111,972,988
3112,969,984
3113,969,985
3114,968,988
3115,973,989
3116,974,986
3117,973,986
3118,971,984
3119,969,984
3120,971,988
3121,973,992
3122,976,990
3123,976,987
3124,975,984
3125,973,985
3126,975,989
3127,978,994
3128,979,994
3129,982,996
3130,983,992
3131,982,995
3132,984,1000
3133,989,1002
3134,992,1003
3135,995,1002
3136,991,1000
3137,995,1000
3138,996,1004
3139,1000,1002
3140,1005,996
3141,1012,986
3142,1018,977
3143,1020,975
3144,1019,978
3145,1022,980
3146,1025,979
3147,1023,975
3148,1019,977
3149,1013,980
3150,1010,985
3151,1010,990
3152,1008,991
3153,1008,991
3154,1003,987
3155,1001,988
3156,998,987
3157,992,989
3158,990,986
3159,984,983
3160,977,980
3161,974,980
3162,973,983
3163,974,986
3164,973,986
3165,973,985
3166,974,982
3167,971,981
3168,972,985
3169,976,988
3170,979,987
3171,975,984
3172,977,983
3173,977,983
3174,978,987
3175,982,989
3176,983,992
3177,983,996
3178,983,1004
3179,981,1013
3180,985,1013
3181,987,1006
3182,985,983
3183,981,952
3184,976,908
3185,975,864
3186,990,824
3187,1021,797
3188,1058,785
3189,1098,792
3190,1129,814
3191,1148,844
3192,1148,874
3193,1120,903
3194,1074,930
3195,1021,956
3196,985,975
3197,968,991
3198,968,1003
3199,975,1008
3200,981,1011
3201,984,1008
3202,985,1005
3203,985,1005
3204,986,1007
3205,987,1010
3206,986,1008
3207,983,1005
3208,978,1001
3209,982,1004
3210,983,1006
3211,984,1007
3212,983,1006
3213,989,1004
3214,987,1000
3215,986,1001
3216,988,1001
3217,990,1004
3218,991,1005
3219,990,1002
3220,990,1002
3221,988,1001
3222,990,1003
3223,991,1007
3224,993,1004
3225,990,1001
3226,990,998
3227,991,1001
3228,993,1004
3229,994,1007
3230,996,1005
3231,995,1001
3232,993,1001
3233,990,999
3234,992,1003
3235,995,1008
3236,999,1004
3237,997,1003
3238,994,1000
3239,991,1001
3240,994,1002
3241,998,1007
3242,1000,1004
3243,1000,1001
3244,998,1001
3245,998,1001
3246,1000,1003
3247,1002,1008
3248,1003,1007
3249,1004,1003
3250,1000,999
3251,1000,1001
3252,1001,1004
3253,1005,1008
3254,1007,1006
3255,1008,1002
3256,1004,1001
3257,1004,1003
3258,1003,1003
3259,1008,1009
3260,1010,1008
3261,1010,1003
3262,1010,1001
3263,1007,1003
3264,1005,1002
3265,1007,1007
3266,1013,1005
3267,1012,1006
3268,1008,1003
3269,1008,1004
3270,1011,1006
3271,1010,1010
3272,1011,1008
3273,1009,1005
3274,1008,1002
3275,1007,1005
3276,1008,1006
3277,1007,1008
3278,1009,1006
3279,1005,1005
3280,1004,1002
3281,1001,1001
3282,999,1002
3283,1002,1004
3284,1002,1002
3285,1002,998
3286,999,995
3287,999,996
3288,998,997
3289,997,999
3290,999,998
3291,996,994
3292,993,992
3293,991,992
3294,992,994
3295,996,997
3296,995,997
3297,995,993
3298,992,989
3299,990,991
3300,990,992
3301,991,993
3302,994,994
3303,991,988
3304,988,988
3305,988,991
3306,990,992
3307,992,992
3308,994,995
3309,991,990
3310,989,987
3311,989,989
3312,988,993
3313,992,993
3314,993,993
3315,991,993
3316,990,989
3317,989,988
3318,989,990
3319,990,995
3320,992,992
3321,990,993
3322,990,988
3323,986,988
3324,989,992
3325,993,991
3326,993,990
3327,991,986
3328,990,984
3329,987,986
3330,989,990
3331,991,994
3332,992,993
3333,990,988
3334,985,985
3335,985,985
3336,988,989
3337,992,989
3338,991,988
3339,992,987
3340,988,984
3341,989,982
3342,989,988
3343,992,992
3344,996,989
3345,996,984
3346,993,983
3347,992,985
3348,994,986
3349,997,989
3350,996,987
3351,997,987
3352,995,984
3353,993,983
3354,993,984
3355,996,986
3356,999,986
3357,998,985
3358,997,983
3359,994,984
3360,995,986
3361,997,988
3362,997,986
3363,995,984
3364,999,982
3365,994,982
3366,996,986
3367,997,988
3368,999,985
3369,998,985
3370,997,981
3371,996,981
3372,998,985
3373,1001,988
3374,1004,986
3375,1001,984
3376,999,982
3377,998,982
3378,997,986
3379,1001,985
3380,1003,985
3381,1000,984
3382,998,983
3383,996,983
3384,1000,985
3385,1003,986
3386,1005,984
3387,1005,983
3388,1001,981
3389,998,983
3390,998,984
3391,1002,987
3392,1003,986
3393,1004,983
3394,1005,984
3395,1003,985
3396,1004,984
3397,1004,987
3398,1009,986
3399,1006,981
3400,1006,980
3401,1001,982
3402,1004,986
3403,1005,987
3404,1006,986
3405,1005,985
3406,1003,983
3407,1001,983
3408,1003,987
3409,1007,986
3410,1007,987
3411,1005,985
3412,1005,984
3413,1002,981
3414,1005,984
3415,1007,984
3416,1008,982
3417,1007,981
3418,1007,978
3419,1004,982
3420,1006,984
3421,1007,986
3422,1009,985
3423,1008,984
3424,1004,978
3425,1005,981
3426,1006,983
3427,1009,986
3428,1009,984
3429,1010,983
3430,1008,982
3431,1005,979
3432,1006,985
3433,1009,985
3434,1012,984
3435,1009,984
3436,1004,980
3437,1007,983
3438,1008,987
3439,1010,989
3440,1013,986
3441,1010,982
3442,1004,980
3443,1004,981
3444,1007,984
3445,1013,985
3446,1013,984
3447,1013,984
3448,1009,982
3449,1008,985
3450,1006,986
3451,1013,988
3452,1017,986
3453,1014,985
3454,1014,983
3455,1014,985
3456,1016,986
3457,1016,990
3458,1018,987
3459,1018,985
3460,1019,978
3461,1015,978
3462,1018,981
3463,1022,983
3464,1024,980
3465,1023,974
3466,1019,968
3467,1023,971
3468,1024,970
3469,1028,970
3470,1033,970
3471,1032,965
3472,1033,963
3473,1035,964
3474,1037,968
3475,1038,971
3476,1034,970
3477,1034,972
3478,1028,971
3479,1023,975
3480,1024,984
3481,1020,990
3482,1023,990
3483,1023,989
3484,1023,985
3485,1020,986
3486,1019,987
3487,1015,987
3488,1015,985
3489,1013,985
3490,1010,982
3491,1008,984
3492,1008,987
3493,1009,989
3494,1010,985
3495,1008,984
3496,1011,981
3497,1009,981
3498,1010,983
3499,1012,983
3500,1013,984
3501,1010,983
3502,1009,981
3503,1009,985
3504,1013,990
3505,1014,995
3506,1016,1001
3507,1016,1008
3508,1015,1012
3509,1014,1010
3510,1016,1002
3511,1017,984
3512,1014,956
3513,1010,914
3514,1010,873
3515,1022,837
3516,1047,807
3517,1078,789
3518,1113,789
3519,1145,801
3520,1166,827
3521,1172,858
3522,1158,891
3523,1120,921
3524,1074,946
3525,1032,973
3526,1009,988
3527,1000,998
3528,1001,1004
3529,1008,1008
3530,1015,1007
3531,1017,1004
3532,1013,1003
3533,1011,1005
3534,1010,1008
3535,1012,1011
3536,1014,1009
3537,1010,1005
3538,1007,1002
3539,1011,1004
3540,1012,1006
3541,1016,1008
3542,1018,1006
3543,1018,1004
3544,1011,1001
3545,1011,1001
3546,1011,1004
3547,1016,1005
3548,1018,1002
3549,1019,1004
3550,1014,1002
3551,1013,1004
3552,1015,1004
3553,1014,1007
3554,1015,1007
3555,1018,1005
3556,1017,1002
3557,1014,1001
3558,1017,1005
3559,1019,1008
3560,1023,1007
3561,1023,1004
3562,1021,1002
3563,1017,1002
3564,1020,1004
3565,1020,1004
3566,1021,1004
3567,1018,1003
3568,1014,1000
3569,1014,1000
3570,1015,1002
3571,1019,1005
3572,1019,1005
3573,1019,1002
3574,1016,999
3575,1016,999
3576,1018,1003
3577,1021,1006
3578,1022,1004
3579,1021,1004
3580,1017,1002
3581,1017,1001
3582,1021,1004
3583,1023,1005
3584,1025,1004
3585,1020,1002
3586,1018,1001
3587,1017,1000
3588,1020,1004
3589,1021,1005
3590,1023,1003
3591,1022,1001
3592,1021,1001
3593,1019,1001
3594,1020,1004
3595,1020,1006
3596,1025,1006
3597,1025,1001
3598,1024,1000
3599,1021,1000
3600,1023,1001
3601,1025,1002
3602,1025,1003
3603,1023,1004
3604,1020,1000
3605,1018,1001
3606,1019,1004
3607,1021,1009
3608,1022,1005
3609,1022,1004
3610,1019,999
3611,1016,1000
3612,1017,1003
3613,1013,1003
3614,1018,1002
3615,1014,998
3616,1010,994
3617,1008,996
3618,1008,1000
3619,1012,1000
3620,1014,999
3621,1011,997
3622,1005,993
3623,1005,993
3624,1007,997
3625,1010,997
3626,1012,998
3627,1008,996
3628,1002,991
3629,1001,995
3630,1003,995
3631,1008,996
3632,1005,996
3633,1006,993
3634,1003,991
3635,999,989
3636,1000,994
3637,1005,997
3638,1006,998
3639,1003,996
3640,1003,993
3641,1002,993
3642,1002,996
3643,1002,998
3644,1004,995
3645,1003,992
3646,1001,990
3647,999,993
3648,1002,997
3649,1005,1000
3650,1005,996
3651,1007,995
3652,1002,992
3653,1000,991
3654,1001,992
3655,1003,997
3656,1004,997
3657,1002,996
3658,1000,990
3659,999,993
3660,1003,994
3661,1004,998
3662,1007,994
3663,1006,995
3664,1001,993
3665,998,992
3666,999,994
3667,1004,998
3668,1006,996
3669,1007,990
3670,1005,990
3671,1005,990
3672,1006,991
3673,1006,992
3674,1006,991
3675,1005,989
3676,1002,989
3677,1000,989
3678,1001,992
3679,1006,993
3680,1010,991
3681,1009,990
3682,1005,987
3683,1006,990
3684,1008,991
3685,1009,992
3686,1012,991
3687,1012,988
3688,1009,986
3689,1004,985
3690,1007,991
3691,1009,993
3692,1010,992
3693,1012,990
3694,1008,988
3695,1010,990
3696,1012,990
3697,1012,990
3698,1015,989
3699,1013,988
3700,1010,988
3701,1009,988
3702,1013,991
3703,1013,993
3704,1013,989
3705,1012,986
3706,1011,985
3707,1008,986
3708,1008,989
3709,1012,992
3710,1012,991
3711,1011,989
3712,1010,989
3713,1009,987
3714,1012,991
3715,1015,994
3716,1016,989
3717,1018,988
3718,1015,986
3719,1008,988
3720,1009,989
3721,1012,991
3722,1013,990
3723,1009,986
3724,1008,986
3725,1008,985
3726,1009,991
3727,1013,994
3728,1013,991
3729,1012,989
3730,1010,986
3731,1010,987
3732,1016,990
3733,1017,990
3734,1017,989
3735,1015,988
3736,1013,986
3737,1010,986
3738,1011,989
3739,1016,992
3740,1018,990
3741,1015,987
3742,1013,987
3743,1013,985
3744,1014,987
3745,1015,990
3746,1017,990
3747,1017,988
3748,1015,984
3749,1014,986
3750,1014,987
3751,1014,990
3752,1014,989
3753,1017,986
3754,1016,984
3755,1014,987
3756,1012,989
3757,1016,991
3758,1019,989
3759,1017,988
3760,1016,986
3761,1015,984
3762,1017,989
3763,1021,994
3764,1023,997
3765,1021,993
3766,1018,992
3767,1016,995
3768,1020,999
3769,1025,1001
3770,1029,1002
3771,1028,1001
3772,1026,999
3773,1024,999
3774,1031,1000
3775,1034,1004
3776,1039,1002
3777,1040,998
3778,1043,991
3779,1044,990
3780,1054,988
3781,1059,989
3782,1060,984
3783,1066,979
3784,1065,978
3785,1061,978
3786,1064,979
3787,1063,981
3788,1065,983
3789,1057,986
3790,1050,985
3791,1045,990
3792,1045,991
3793,1043,991
3794,1040,991
3795,1033,988
3796,1025,984
3797,1024,985
3798,1018,988
3799,1018,989
3800,1016,988
3801,1015,983
3802,1011,982
3803,1009,983
3804,1006,987
3805,1011,987
3806,1011,988
3807,1008,986
3808,1005,985
3809,1005,986
3810,1007,988
3811,1009,989
3812,1009,988
3813,1009,985
3814,1007,986
3815,1007,990
3816,1009,996
3817,1011,1003
3818,1012,1008
3819,1012,1006
3820,1011,1000
3821,1010,991
3822,1008,980
3823,1003,962
3824,996,929
3825,989,891
3826,986,855
3827,1000,834
3828,1028,819
3829,1061,819
3830,1094,829
3831,1117,850
3832,1125,875
3833,1103,903
3834,1066,927
3835,1027,950
3836,1001,971
3837,986,989
3838,978,998
3839,986,1004
3840,1003,1005
3841,1016,1006
3842,1021,1007
3843,1021,1006
3844,1018,1003
3845,1013,1002
3846,1016,1005
3847,1010,1008
3848,1018,1008
3849,1016,1002
3850,1011,1001
3851,1014,1004
3852,1016,1006
3853,1016,1008
3854,1018,1005
3855,1017,1003
3856,1015,1002
3857,1013,1003
3858,1018,1004
3859,1019,1007
3860,1023,1009
3861,1023,1007
3862,1021,1004
3863,1017,1003
3864,1019,1005
3865,1020,1006
3866,1021,1007
3867,1023,1005
3868,1021,1002
3869,1020,1005
3870,1022,1005
3871,1024,1009
3872,1023,1008
3873,1024,1003
3874,1022,1003
3875,1022,1003
3876,1022,1008
3877,1023,1009
3878,1026,1008
3879,1024,1004
3880,1022,1002
3881,1023,1002
3882,1025,1002
3883,1027,1006
3884,1028,1007
3885,1024,1006
3886,1024,1002
3887,1023,1003
3888,1022,1006
3889,1026,1007
3890,1027,1006
3891,1026,1005
3892,1022,1000
3893,1020,1001
3894,1023,1005
3895,1025,1010
3896,1025,1009
3897,1023,1006
3898,1022,1003
3899,1021,1003
3900,1022,1006
3901,1023,1009
3902,1024,1006
3903,1022,1004
3904,1021,1001
3905,1020,1003
3906,1021,1004
3907,1023,1008
3908,1025,1007
3909,1024,1005
3910,1021,1002
3911,1019,1003
3912,1017,1003
3913,1021,1009
3914,1023,1005
3915,1022,1000
3916,1017,1001
3917,1013,1001
3918,1017,1002
3919,1018,1006
3920,1020,1003
3921,1017,1004
3922,1013,999
3923,1010,1001
3924,1011,1002
3925,1010,1003
3926,1012,1005
3927,1013,1001
3928,1007,999
3929,1003,1001
3930,1002,1004
3931,1006,1008
3932,1006,1005
3933,1007,1002
3934,1004,1000
3935,1003,1000
3936,1005,1002
3937,1006,1002
3938,1008,1005
3939,1006,1004
3940,1004,1003
3941,1001,1002
3942,1000,1006
3943,1006,1004
3944,1007,1006
3945,1005,1001
3946,1002,1000
3947,1002,1001
3948,1004,1003
3949,1000,1004
3950,1006,1002
3951,1005,998
3952,1001,997
3953,1001,998
3954,1004,1001
3955,1007,1004
3956,1008,1001
3957,1006,996
3958,1003,995
3959,1004,994
3960,1005,997
3961,1008,999
3962,1010,999
3963,1008,999
3964,1005,995
3965,1005,997
3966,1006,997
3967,1007,999
3968,1007,997
3969,1008,995
3970,1007,993
3971,1006,992
3972,1008,995
3973,1008,997
3974,1013,998
3975,1013,994
3976,1011,992
3977,1007,994
3978,1011,995
3979,1013,998
3980,1015,998
3981,1014,994
3982,1014,994
3983,1011,992
3984,1016,994
3985,1016,996
3986,1020,997
3987,1019,994
3988,1018,994
3989,1015,993
3990,1018,996
3991,1019,998
3992,1021,997
3993,1019,994
3994,1018,993
3995,1013,993
3996,1013,998
3997,1019,996
3998,1018,997
3999,1019,994
4000,1019,992
4001,1016,992
4002,1020,994
4003,1022,999
4004,1024,998
4005,1023,997
4006,1019,994
4007,1018,993
4008,1022,997
4009,1023,999
4010,1024,996
4011,1022,994
4012,1022,996
4013,1020,993
4014,1023,997
4015,1025,999
4016,1024,998
4017,1025,997
4018,1021,993
4019,1022,993
4020,1022,998
4021,1023,1000
4022,1027,998
4023,1026,997
4024,1021,994
4025,1020,993
4026,1023,994
4027,1026,998
4028,1027,997
4029,1023,998
4030,1020,994
4031,1021,994
4032,1021,996
4033,1022,999
4034,1023,998
4035,1024,996
4036,1023,993
4037,1017,995
4038,1023,998
4039,1027,1002
4040,1026,1001
4041,1026,995
4042,1023,994
4043,1023,994
4044,1025,999
4045,1026,1004
4046,1027,1001
4047,1026,1001
4048,1022,1003
4049,1024,1004
4050,1030,1007
4051,1034,1009
4052,1039,1009
4053,1039,1010
4054,1036,1008
4055,1034,1010
4056,1040,1013
4057,1043,1016
4058,1050,1011
4059,1050,1007
4060,1053,1004
4061,1060,999
4062,1066,995
4063,1072,994
4064,1076,991
4065,1075,990
4066,1074,985
4067,1070,987
4068,1069,994
4069,1066,998
4070,1063,1000
4071,1060,1000
4072,1055,996
4073,1051,996
4074,1049,998
4075,1045,998
4076,1042,999
4077,1036,993
4078,1029,993
4079,1025,994
4080,1023,998
4081,1023,999
4082,1020,997
4083,1018,993
4084,1016,991
4085,1011,993
4086,1016,995
4087,1021,998
4088,1022,1001
4089,1021,998
4090,1017,995
4091,1014,995
4092,1017,998
4093,1023,1001
4094,1024,1008
4095,1023,1014
4096,1022,1023
4097,1021,1028
4098,1022,1027
4099,1022,1016
4100,1019,996
4101,1017,964
4102,1015,918
4103,1021,869
4104,1044,824
4105,1077,800
4106,1112,792
4107,1145,800
4108,1169,823
4109,1180,855
4110,1174,891
4111,1142,926
4112,1090,957
4113,1041,984
4114,1014,1000
4115,1009,1009
4116,1015,1015
4117,1024,1016
4118,1027,1019
4119,1026,1015
4120,1019,1015
4121,1017,1012
4122,1018,1016
4123,1021,1020
4124,1023,1016
4125,1022,1015
4126,1018,1013
4127,1018,1014
4128,1020,1016
4129,1021,1016
4130,1022,1015
4131,1022,1013
4132,1019,1009
4133,1018,1011
4134,1017,1013
4135,1020,1017
4136,1025,1016
4137,1022,1011
4138,1020,1011
4139,1018,1015
4140,1022,1012
4141,1023,1017
4142,1027,1013
4143,1022,1011
4144,1023,1009
4145,1022,1010
4146,1024,1015
4147,1026,1018
4148,1027,1014
4149,1021,1012
4150,1023,1014
4151,1021,1015
4152,1024,1016
4153,1028,1019
4154,1031,1018
4155,1028,1016
4156,1026,1014
4157,1026,1014
4158,1027,1016
4159,1030,1019
4160,1029,1018
4161,1031,1017
4162,1028,1012
4163,1027,1014
4164,1029,1015
4165,1033,1019
4166,1034,1019
4167,1034,1017
4168,1031,1015
4169,1029,1018
4170,1030,1019
4171,1031,1023
4172,1035,1020
4173,1034,1017
4174,1031,1017
4175,1032,1019
4176,1032,1023
4177,1035,1023
4178,1036,1023
4179,1033,1018
4180,1032,1019
4181,1032,1019
4182,1030,1024
4183,1035,1024
4184,1034,1022
4185,1029,1020
4186,1029,1017
4187,1030,1017
4188,1029,1020
4189,1033,1023
4190,1034,1024
4191,1029,1021
4192,1028,1016
4193,1027,1019
4194,1026,1020
4195,1026,1020
4196,1026,1016
4197,1022,1014
4198,1020,1012
4199,1017,1013
4200,1018,1013
4201,1019,1017
4202,1022,1012
4203,1020,1012
4204,1016,1011
4205,1016,1011
4206,1017,1012
4207,1017,1014
4208,1018,1013
4209,1018,1009
4210,1014,1004
4211,1010,1008
4212,1010,1010
4213,1012,1011
4214,1013,1011
4215,1013,1008
4216,1009,1006
4217,1006,1006
4218,1008,1008
4219,1008,1008
4220,1010,1007
4221,1011,1005
4222,1006,1003
4223,1006,1004
4224,1006,1006
4225,1008,1006
4226,1012,1010
4227,1009,1006
4228,1008,1002
4229,1004,1004
4230,1004,1005
4231,1008,1007
4232,1010,1005
4233,1007,1004
4234,1007,1002
4235,1006,1004
4236,1006,1006
4237,1008,1006
4238,1011,1006
4239,1010,1004
4240,1007,1001
4241,1007,1004
4242,1003,1004
4243,1008,1009
4244,1011,1005
4245,1011,1003
4246,1008,1002
4247,1007,999
4248,1010,1002
4249,1011,1005
4250,1014,1004
4251,1010,1001
4252,1008,999
4253,1007,1001
4254,1009,1004
4255,1011,1004
4256,1014,1005
4257,1011,1002
4258,1008,999
4259,1009,1003
4260,1010,1003
4261,1010,1004
4262,1013,1004
4263,1016,999
4264,1010,1000
4265,1007,1000
4266,1007,1002
4267,1011,1005
4268,1014,1004
4269,1010,999
4270,1013,999
4271,1011,1000
4272,1011,1004
4273,1014,1004
4274,1012,1006
4275,1013,1001
4276,1011,999
4277,1012,1000
4278,1011,1004
4279,1015,1006
4280,1018,1003
4281,1017,1002
4282,1011,999
4283,1011,999
4284,1013,1001
4285,1016,1007
4286,1015,1004
4287,1014,1001
4288,1012,1000
4289,1009,999
4290,1013,1005
4291,1015,1005
4292,1019,1005
4293,1015,1003
4294,1011,1000
4295,1011,1000
4296,1014,1004
4297,1016,1007
4298,1018,1005
4299,1017,1001
4300,1012,998
4301,1011,998
4302,1012,1003
4303,1016,1007
4304,1018,1005
4305,1014,1003
4306,1013,1002
4307,1011,1000
4308,1013,1004
4309,1016,1007
4310,1019,1004
4311,1016,1003
4312,1015,1002
4313,1012,1001
4314,1012,1003
4315,1014,1006
4316,1018,1005
4317,1012,1003
4318,1014,1000
4319,1012,1000
4320,1015,1002
4321,1016,1007
4322,1018,1006
4323,1015,1001
4324,1012,997
4325,1012,1000
4326,1015,1005
4327,1017,1007
4328,1017,1006
4329,1016,1001
4330,1014,1001
4331,1013,1002
4332,1015,1004
4333,1018,1008
4334,1015,1007
4335,1016,1004
4336,1014,1002
4337,1010,1002
4338,1013,1003
4339,1015,1006
4340,1019,1004
4341,1018,1005
4342,1014,1005
4343,1014,1007
4344,1013,1009
4345,1018,1016
4346,1022,1017
4347,1024,1014
4348,1023,1012
4349,1022,1012
4350,1026,1018
4351,1028,1019
4352,1032,1018
4353,1034,1014
4354,1033,1008
4355,1036,1005
4356,1043,1001
4357,1052,998
4358,1054,997
4359,1053,993
4360,1054,993
4361,1051,992
4362,1053,993
4363,1053,998
4364,1051,998
4365,1046,998
4366,1041,996
4367,1035,1003
4368,1039,1004
4369,1038,1011
4370,1039,1010
4371,1036,1003
4372,1028,1001
4373,1024,1002
4374,1014,1005
4375,1016,1004
4376,1016,1005
4377,1011,1002
4378,1006,1001
4379,1003,1000
4380,1005,1001
4381,1007,1004
4382,1008,1004
4383,1006,1001
4384,1004,996
4385,1004,1000
4386,1004,1004
4387,1008,1007
4388,1011,1006
4389,1007,1005
4390,1007,1007
4391,1008,1019
4392,1011,1030
4393,1014,1034
4394,1014,1026
4395,1012,1002
4396,1009,973
4397,1004,931
4398,1005,890
4399,1015,854
4400,1036,821
4401,1060,803
4402,1084,800
4403,1116,822
4404,1142,852
4405,1154,885
4406,1140,915
4407,1097,944
4408,1054,968
4409,1023,995
4410,1007,1015
4411,1003,1022
4412,1006,1024
4413,1007,1022
4414,1005,1020
4415,1001,1020
4416,1001,1024
4417,1003,1027
4418,1006,1023
4419,1005,1022
4420,1001,1017
4421,1003,1019
4422,1003,1020
4423,1003,1021
4424,1006,1021
4425,1006,1020
4426,1001,1016
4427,1001,1016
4428,1004,1021
4429,1007,1021
4430,1008,1022
4431,1008,1020
4432,1004,1016
4433,1004,1018
4434,1007,1020
4435,1006,1025
4436,1007,1021
4437,1006,1016
4438,1004,1016
4439,1003,1019
4440,1002,1019
4441,1006,1023
4442,1010,1022
4443,1005,1021
4444,1008,1017
4445,1005,1020
4446,1009,1021
4447,1011,1023
4448,1012,1019
4449,1013,1016
4450,1009,1016
4451,1008,1016
4452,1009,1020
4453,1013,1023
4454,1013,1020
4455,1014,1018
4456,1012,1012
4457,1012,1017
4458,1012,1019
4459,1010,1021
4460,1014,1020
4461,1014,1017
4462,1013,1015
4463,1010,1018
4464,1014,1019
4465,1017,1022
4466,1020,1020
4467,1018,1020
4468,1013,1019
4469,1014,1021
4470,1016,1024
4471,1017,1025
4472,1019,1022
4473,1017,1018
4474,1014,1017
4475,1014,1022
4476,1016,1024
4477,1017,1023
4478,1018,1024
4479,1018,1018
4480,1017,1019
4481,1015,1017
4482,1016,1019
4483,1015,1020
4484,1018,1019
4485,1016,1017
4486,1014,1016
4487,1014,1017
4488,1014,1018
4489,1016,1019
4490,1014,1022
4491,1009,1020
4492,1007,1017
4493,1003,1015
4494,1005,1017
4495,1005,1018
4496,1006,1018
4497,1001,1011
4498,1000,1012
4499,999,1012
4500,1001,1015
4501,1001,1018
4502,1003,1013
4503,1001,1010
4504,998,1009
4505,997,1006
4506,998,1009
4507,1000,1011
4508,1001,1012
4509,997,1009
4510,994,1008
4511,993,1006
4512,994,1010
4513,989,1010
4514,995,1010
4515,993,1010
4516,991,1008
4517,990,1008
4518,991,1010
4519,991,1011
4520,994,1009
4521,994,1007
4522,992,1004
4523,988,1004
4524,988,1008
4525,991,1008
4526,994,1007
4527,994,1004
4528,990,1002
4529,987,1001
4530,989,1006
4531,993,1009
4532,993,1007
4533,993,1004
4534,990,1002
4535,987,1005
4536,986,1004
4537,988,1007
4538,990,1007
4539,992,1003
4540,990,1002
4541,990,1002
4542,990,1006
4543,994,1006
4544,995,1004
4545,994,1002
4546,992,999
4547,991,1002
4548,993,1006
4549,996,1005
4550,995,1004
4551,995,1003
4552,991,1001
4553,993,1000
4554,991,1001
4555,997,1004
4556,996,1003
4557,997,998
4558,993,997
4559,991,1000
4560,992,1002
4561,996,1003
4562,995,1002
4563,997,999
4564,992,996
4565,994,999
4566,992,1001
4567,995,1000
4568,995,1000
4569,992,996
4570,992,994
4571,991,999
4572,993,1000
4573,993,1002
4574,997,1005
4575,997,1001
4576,996,999
4577,992,999
4578,998,1000
4579,1000,1002
4580,999,1001
4581,996,999
4582,994,997
4583,995,999
4584,998,998
4585,998,1001
4586,1000,1000
4587,996,996
4588,994,996
4589,995,998
4590,995,1001
4591,998,1005
4592,998,1001
4593,997,994
4594,996,993
4595,994,995
4596,999,998
4597,998,1002
4598,997,997
4599,999,996
4600,994,994
4601,992,998
4602,996,998
4603,1000,1000
4604,1000,997
4605,998,996
4606,995,995
4607,994,998
4608,993,996
4609,995,1001
4610,996,999
4611,998,999
4612,994,995
4613,993,997
4614,993,998
4615,999,1001
4616,1000,1001
4617,1001,996
4618,999,995
4619,998,995
4620,996,998
4621,999,1002
4622,1000,1000
4623,999,996
4624,998,998
4625,996,999
4626,998,1001
4627,1002,1002
4628,1005,1000
4629,1002,1002
4630,1003,1004
4631,1000,1004
4632,1001,1011
4633,1005,1013
4634,1011,1012
4635,1011,1012
4636,1013,1009
4637,1013,1010
4638,1017,1013
4639,1023,1016
4640,1027,1013
4641,1028,1007
4642,1030,996
4643,1033,992
4644,1036,991
4645,1041,992
4646,1043,995
4647,1040,990
4648,1038,990
4649,1036,990
4650,1034,996
4651,1033,1003
4652,1031,1001
4653,1029,999
4654,1021,993
4655,1017,996
4656,1011,996
4657,1008,999
4658,1006,996
4659,998,993
4660,995,989
4661,991,990
4662,990,994
4663,990,997
4664,993,997
4665,992,995
4666,989,992
4667,987,991
4668,988,994
4669,992,995
4670,991,996
4671,991,992
4672,984,993
4673,988,996
4674,986,997
4675,988,1000
4676,992,1006
4677,992,1011
4678,989,1014
4679,991,1011
4680,992,1002
4681,993,988
4682,987,961
4683,981,923
4684,976,883
4685,983,852
4686,999,828
4687,1023,821
4688,1050,819
4689,1074,834
4690,1087,858
4691,1083,888
4692,1062,922
4693,1028,950
4694,993,971
4695,976,991
4696,969,1002
4697,972,1008
4698,985,1012
4699,995,1011
4700,995,1013
4701,993,1010
4702,993,1009
4703,988,1007
4704,992,1009
4705,996,1011
4706,996,1011
4707,995,1011
4708,988,1007
4709,985,1007
4710,988,1011
4711,993,1011
4712,994,1012
4713,994,1011
4714,994,1008
4715,993,1009
4716,996,1011
4717,997,1013
4718,999,1012
4719,998,1007
4720,996,1007
4721,995,1009
4722,989,1013
4723,995,1014
4724,996,1014
4725,993,1010
4726,989,1009
4727,993,1009
4728,995,1014
4729,1000,1014
4730,1001,1014
4731,999,1012
4732,995,1008
4733,993,1007
4734,996,1010
4735,999,1012
4736,1001,1012
4737,998,1009
4738,998,1008
4739,994,1009
4740,997,1011
4741,1000,1016
4742,1003,1015
4743,1001,1012
4744,1000,1011
4745,999,1008
4746,1000,1010
4747,999,1014
4748,998,1013
4749,1000,1010
4750,996,1009
4751,994,1008
4752,995,1011
4753,998,1014
4754,998,1013
4755,996,1011
4756,993,1007
4757,994,1008
4758,997,1009
4759,1000,1013
4760,999,1013
4761,1000,1010
4762,991,1009
4763,990,1007
4764,993,1009
4765,995,1011
4766,997,1010
4767,996,1009
4768,992,1005
4769,988,1005
4770,990,1007
4771,990,1011
4772,990,1007
4773,985,1006
4774,983,1002
4775,979,1004
4776,981,1007
4777,985,1009
4778,983,1008
4779,980,1005
4780,980,1002
4781,977,1006
4782,978,1008
4783,978,1012
4784,980,1009
4785,980,1006
4786,976,1007
4787,976,1006
4788,978,1009
4789,979,1009
4790,980,1011
4791,976,1008
4792,975,1005
4793,975,1006
4794,977,1008
4795,977,1009
4796,980,1010
4797,978,1007
4798,975,1003
4799,974,1004
4800,974,1007
4801,979,1007
4802,981,1004
4803,980,1002
4804,978,998
4805,975,1000
4806,977,1002
4807,980,1005
4808,980,1004
4809,981,1001
4810,981,1000
4811,979,999
4812,979,1000
4813,980,1002
4814,984,1003
4815,980,999
4816,978,1001
4817,977,1000
4818,979,999
4819,980,1001
4820,987,1000
4821,984,999
4822,984,997
4823,982,999
4824,984,1000
4825,986,1003
4826,987,1003
4827,989,999
4828,984,996
4829,983,999
4830,984,1000
4831,986,1002
4832,989,1000
4833,989,998
4834,984,995
4835,982,995
4836,986,998
4837,990,1001
4838,992,999
4839,991,999
4840,989,996
4841,990,995
4842,989,998
4843,993,1001
4844,994,997
4845,992,994
4846,989,993
4847,991,994
4848,993,1000
4849,996,1001
4850,996,1002
4851,996,995
4852,994,993
4853,994,995
4854,994,999
4855,996,998
4856,998,996
4857,997,995
4858,995,995
4859,996,994
4860,997,997
4861,997,997
4862,997,1000
4863,997,998
4864,998,998
4865,996,999
4866,999,1000
4867,998,1003
4868,1003,1001
4869,997,999
4870,1000,995
4871,998,998
4872,998,1000
4873,1002,1002
4874,1004,1000
4875,1002,1001
4876,1000,997
4877,1001,998
4878,1001,1000
4879,1003,1000
4880,1002,1000
4881,1003,1000
4882,1003,996
4883,1004,997
4884,1002,1001
4885,1008,1002
4886,1007,999
4887,1005,997
4888,1005,996
4889,1003,999
4890,1005,999
4891,1006,1001
4892,1010,1000
4893,1008,999
4894,1006,992
4895,1003,996
4896,1005,999
4897,1006,1003
4898,1007,1000
4899,1009,997
4900,1006,993
4901,1003,994
4902,1007,999
4903,1007,1000
4904,1009,1001
4905,1009,996
4906,1006,995
4907,1006,997
4908,1007,999
4909,1010,1002
4910,1013,999
4911,1011,999
4912,1010,1000
4913,1010,1004
4914,1014,1008
4915,1018,1013
4916,1020,1013
4917,1021,1009
4918,1022,1007
4919,1023,1008
4920,1026,1013
4921,1030,1016
4922,1035,1016
4923,1037,1011
4924,1037,1008
4925,1042,1004
4926,1047,1004
4927,1054,998
4928,1060,994
4929,1060,990
4930,1059,991
4931,1058,990
4932,1057,992
4933,1059,996
4934,1060,998
4935,1056,996
4936,1047,993
4937,1041,997
4938,1042,1001
4939,1041,1001
4940,1038,1001
4941,1033,997
4942,1025,994
4943,1018,995
4944,1019,996
4945,1018,997
4946,1016,996
4947,1015,995
4948,1010,994
4949,1008,995
4950,1008,997
4951,1014,998
4952,1013,997
4953,1012,994
4954,1007,992
4955,1010,995
4956,1011,995
4957,1015,1000
4958,1015,1000
4959,1016,999
4960,1017,1004
4961,1013,1012
4962,1016,1023
4963,1019,1027
4964,1018,1014
4965,1018,997
4966,1013,976
4967,1011,949
4968,1013,918
4969,1019,881
4970,1036,841
4971,1060,813
4972,1089,802
4973,1117,814
4974,1151,839
4975,1167,871
4976,1165,903
4977,1132,933
4978,1084,964
4979,1044,988
4980,1023,1008
4981,1019,1018
4982,1024,1017
4983,1023,1015
4984,1020,1012
4985,1018,1015
4986,1019,1016
4987,1019,1018
4988,1020,1017
4989,1020,1014
4990,1018,1012
4991,1016,1015
4992,1016,1016
4993,1019,1017
4994,1019,1017
4995,1015,1014
4996,1012,1010
4997,1011,1013
4998,1017,1015
4999,1019,1021
5000,1019,1016
5001,1017,1013
5002,1015,1010
5003,1013,1016
5004,1017,1016
5005,1022,1019
5006,1021,1019
5007,1022,1017
5008,1016,1014
5009,1011,1016
5010,1017,1017
5011,1020,1018
5012,1023,1017
5013,1020,1016
5014,1021,1013
5015,1020,1013
5016,1020,1017
5017,1023,1018
5018,1021,1020
5019,1021,1014
5020,1020,1011
5021,1021,1012
5022,1019,1015
5023,1024,1019
5024,1023,1016
5025,1022,1015
5026,1019,1012
5027,1019,1011
5028,1020,1015
5029,1022,1018
5030,1025,1017
5031,1024,1016
5032,1020,1013
5033,1021,1015
5034,1023,1015
5035,1026,1019
5036,1027,1016
5037,1026,1011
5038,1021,1011
5039,1022,1014
5040,1023,1015
5041,1025,1018
5042,1027,1018
5043,1025,1016
5044,1025,1013
5045,1020,1014
5046,1025,1017
5047,1027,1019
5048,1028,1016
5049,1027,1015
5050,1024,1012
5051,1023,1014
5052,1024,1016
5053,1027,1018
5054,1027,1016
5055,1026,1013
5056,1021,1012
5057,1020,1015
5058,1023,1016
5059,1023,1018
5060,1024,1014
5061,1022,1013
5062,1020,1011
5063,1019,1012
5064,1017,1015
5065,1019,1017
5066,1017,1016
5067,1019,1011
5068,1015,1007
5069,1013,1011
5070,1014,1010
5071,1016,1012
5072,1015,1010
5073,1011,1007
5074,1010,1005
5075,1011,1007
5076,1013,1008
5077,1016,1009
5078,1016,1008
5079,1011,1006
5080,1010,1004
5081,1011,1003
5082,1011,1007
5083,1014,1011
5084,1013,1009
5085,1011,1005
5086,1011,1002
5087,1007,1004
5088,1010,1004
5089,1012,1008
5090,1013,1007
5091,1011,1004
5092,1009,1002
5093,1012,1001
5094,1008,1004
5095,1011,1003
5096,1014,1002
5097,1011,1000
5098,1008,1000
5099,1008,1002
5100,1008,1004
5101,1011,1005
5102,1013,1004
5103,1012,1001
5104,1012,999
5105,1006,1002
5106,1009,1004
5107,1014,1008
5108,1015,1005
5109,1013,1002
5110,1014,1002
5111,1011,1000
5112,1012,1004
5113,1016,1005
5114,1016,1005
5115,1016,1000
5116,1012,1000
5117,1012,1001
5118,1013,1004
5119,1014,1003
5120,1016,1001
5121,1016,1002
5122,1013,997
5123,1012,999
5124,1015,1002
5125,1016,1005
5126,1018,1003
5127,1019,1000
5128,1014,997
5129,1012,998
5130,1015,1001
5131,1018,1003
5132,1021,1003
5133,1017,997
5134,1017,999
5135,1014,999
5136,1016,1002
5137,1020,1002
5138,1023,1001
5139,1019,998
5140,1018,998
5141,1019,998
5142,1019,1001
5143,1023,1004
5144,1023,1001
5145,1022,998
5146,1019,996
5147,1019,996
5148,1022,998
5149,1024,1002
5150,1023,1001
5151,1024,998
5152,1020,995
5153,1020,998
5154,1022,1000
5155,1023,1003
5156,1025,1001
5157,1026,1000
5158,1022,998
5159,1018,998
5160,1022,1000
5161,1026,1001
5162,1027,1003
5163,1023,999
5164,1022,997
5165,1023,994
5166,1025,1000
5167,1026,1003
5168,1027,1001
5169,1029,998
5170,1026,996
5171,1025,997
5172,1026,1002
5173,1028,1005
5174,1028,1005
5175,1029,1006
5176,1027,1003
5177,1027,1007
5178,1031,1012
5179,1034,1013
5180,1037,1013
5181,1039,1010
5182,1037,1009
5183,1037,1010
5184,1042,1013
5185,1046,1018
5186,1051,1017
5187,1055,1014
5188,1055,1008
5189,1062,1005
5190,1071,1003
5191,1077,1003
5192,1080,995
5193,1077,992
5194,1074,989
5195,1072,994
5196,1069,998
5197,1065,1002
5198,1064,1002
5199,1061,1000
5200,1052,996
5201,1045,995
5202,1041,997
5203,1037,1000
5204,1032,997
5205,1027,994
5206,1023,993
5207,1020,994
5208,1019,995
5209,1020,995
5210,1020,998
5211,1020,998
5212,1018,993
5213,1016,993
5214,1018,997
5215,1021,999
5216,1022,1002
5217,1018,1001
5218,1021,997
5219,1019,1001
5220,1020,1010
5221,1024,1019
5222,1026,1026
5223,1025,1024
5224,1021,1017
5225,1022,1008
5226,1019,992
5227,1020,968
5228,1021,927
5229,1018,879
5230,1027,836
5231,1050,805
5232,1089,798
5233,1123,812
5234,1155,836
5235,1167,862
5236,1161,889
5237,1132,921
5238,1090,951
5239,1052,978
5240,1028,996
5241,1014,1004
5242,1014,1009
5243,1015,1013
5244,1021,1015
5245,1023,1021
5246,1025,1021
5247,1025,1018
5248,1022,1013
5249,1021,1013
5250,1023,1015
5251,1024,1019
5252,1025,1017
5253,1021,1015
5254,1023,1013
5255,1020,1011
5256,1022,1015
5257,1025,1017
5258,1026,1016
5259,1026,1013
5260,1022,1011
5261,1021,1011
5262,1022,1015
5263,1026,1017
5264,1028,1016
5265,1027,1012
5266,1025,1010
5267,1025,1010
5268,1025,1012
5269,1029,1016
5270,1028,1015
5271,1029,1015
5272,1027,1012
5273,1024,1014
5274,1024,1017
5275,1028,1018
5276,1030,1015
5277,1029,1015
5278,1025,1011
5279,1023,1012
5280,1025,1014
5281,1030,1017
5282,1031,1016
5283,1029,1012
5284,1027,1012
5285,1027,1011
5286,1029,1014
5287,1027,1018
5288,1032,1016
5289,1030,1017
5290,1027,1013
5291,1026,1013
5292,1025,1015
5293,1026,1018
5294,1032,1018
5295,1031,1015
5296,1030,1014
5297,1029,1016
5298,1029,1018
5299,1029,1020
5300,1031,1018
5301,1033,1017
5302,1029,1013
5303,1027,1014
5304,1031,1019
5305,1032,1021
5306,1033,1020
5307,1029,1016
5308,1027,1016
5309,1027,1018
5310,1028,1019
5311,1032,1021
5312,1029,1019
5313,1033,1015
5314,1030,1016
5315,1029,1016
5316,1028,1018
5317,1030,1021
5318,1031,1019
5319,1029,1016
5320,1027,1015
5321,1023,1016
5322,1026,1020
5323,1028,1021
5324,1029,1018
5325,1029,1016
5326,1025,1011
5327,1022,1012
5328,1022,1016
5329,1022,1019
5330,1024,1018
5331,1018,1014
5332,1017,1011
5333,1014,1011
5334,1017,1015
5335,1016,1016
5336,1019,1013
5337,1016,1011
5338,1011,1007
5339,1009,1008
5340,1010,1011
5341,1013,1012
5342,1011,1009
5343,1010,1007
5344,1007,1003
5345,1006,1003
5346,1006,1007
5347,1009,1010
5348,1007,1006
5349,1007,1006
5350,1004,1004
5351,1004,1002
5352,1003,1007
5353,1008,1008
5354,1004,1006
5355,1005,1004
5356,1005,1003
5357,1003,1004
5358,1001,1004
5359,1003,1008
5360,1004,1003
5361,1003,1004
5362,1000,1002
5363,1000,1002
5364,1002,1006
5365,1007,1006
5366,1007,1007
5367,1005,1004
5368,1004,1002
5369,998,1001
5370,1002,1003
5371,1003,1005
5372,1004,1004
5373,1003,1003
5374,1000,1000
5375,1000,1001
5376,1004,1003
5377,1007,1004
5378,1007,1004
5379,1004,1001
5380,1001,999
5381,1002,998
5382,1001,1002
5383,1005,1006
5384,1006,1003
5385,1003,1000
5386,1001,998
5387,1000,997
5388,1001,999
5389,1005,1004
5390,1006,1005
5391,1002,1001
5392,997,998
5393,1001,998
5394,1003,1000
5395,1004,1001
5396,1008,998
5397,1006,997
5398,1005,997
5399,1002,997
5400,1003,997
5401,1005,1000
5402,1008,1001
5403,1007,997
5404,1005,995
5405,1005,995
5406,1006,1000
5407,1007,1001
5408,1008,1000
5409,1011,998
5410,1009,997
5411,1004,996
5412,1010,999
5413,1012,1002
5414,1013,1001
5415,1011,997
5416,1007,996
5417,1008,998
5418,1006,1001
5419,1008,1003
5420,1010,1001
5421,1008,996
5422,1005,996
5423,1006,995
5424,1006,999
5425,1010,999
5426,1012,999
5427,1010,997
5428,1008,996
5429,1007,996
5430,1010,998
5431,1012,1001
5432,1014,999
5433,1014,997
5434,1009,995
5435,1006,999
5436,1009,999
5437,1013,1002
5438,1013,998
5439,1010,997
5440,1008,998
5441,1006,998
5442,1008,999
5443,1009,1000
5444,1013,1004
5445,1010,1000
5446,1011,998
5447,1008,1000
5448,1010,1001
5449,1014,1003
5450,1013,998
5451,1011,996
5452,1007,996
5453,1009,999
5454,1009,1001
5455,1014,1002
5456,1012,1000
5457,1010,997
5458,1005,994
5459,1006,995
5460,1009,996
5461,1012,1002
5462,1015,998
5463,1011,996
5464,1009,997
5465,1007,996
5466,1007,1000
5467,1008,1003
5468,1010,1002
5469,1008,997
5470,1008,994
5471,1007,996
5472,1007,999
5473,1012,999
5474,1014,1000
5475,1013,997
5476,1011,994
5477,1008,996
5478,1008,999
5479,1013,1000
5480,1015,1000
5481,1010,999
5482,1010,998
5483,1005,999
5484,1008,1000
5485,1010,1002
5486,1011,1003
5487,1011,999
5488,1006,997
5489,1008,999
5490,1011,1002
5491,1013,1004
5492,1013,998
5493,1013,996
5494,1009,996
5495,1008,996
5496,1008,1001
5497,1010,1002
5498,1018,1002
5499,1015,1001
5500,1012,999
5501,1010,998
5502,1011,1002
5503,1015,1003
5504,1015,1002
5505,1014,1001
5506,1012,999
5507,1011,1001
5508,1011,1001
5509,1012,1000
5510,1016,1000
5511,1015,997
5512,1013,994
5513,1012,997
5514,1016,1001
5515,1018,999
5516,1019,995
5517,1021,989
5518,1022,983
5519,1019,985
5520,1023,988
5521,1027,990
5522,1029,988
5523,1030,986
5524,1030,982
5525,1028,982
5526,1029,987
5527,1027,992
5528,1026,990
5529,1025,989
5530,1018,990
5531,1013,995
5532,1016,1001
5533,1020,1004
5534,1019,1004
5535,1020,1001
5536,1018,998
5537,1013,998
5538,1009,1001
5539,1010,1005
5540,1007,1006
5541,1003,1001
5542,1000,999
5543,998,998
5544,1001,1000
5545,1005,1003
5546,1006,1002
5547,1005,997
5548,1001,994
5549,999,997
5550,1003,1002
5551,1008,1003
5552,1008,1002
5553,1007,999
5554,1005,998
5555,1002,1003
5556,1007,1008
5557,1008,1016
5558,1012,1023
5559,1011,1021
5560,1007,1012
5561,1006,997
5562,1005,975
5563,1003,945
5564,996,909
5565,999,876
5566,1009,853
5567,1024,839
5568,1052,829
5569,1075,832
5570,1100,841
5571,1115,860
5572,1119,882
5573,1097,914
5574,1058,943
5575,1021,971
5576,996,991
5577,987,1006
5578,985,1013
5579,988,1015
5580,1002,1018
5581,1011,1019
5582,1013,1022
5583,1010,1020
5584,1008,1018
5585,1008,1017
5586,1009,1018
5587,1012,1021
5588,1014,1018
5589,1011,1019
5590,1007,1015
5591,1008,1017
5592,1011,1019
5593,1015,1023
5594,1015,1023
5595,1013,1021
5596,1012,1016
5597,1009,1019
5598,1014,1018
5599,1015,1023
5600,1017,1021
5601,1017,1020
5602,1012,1017
5603,1011,1016
5604,1012,1018
5605,1015,1019
5606,1016,1018
5607,1017,1015
5608,1014,1014
5609,1015,1016
5610,1017,1020
5611,1017,1021
5612,1019,1018
5613,1016,1019
5614,1012,1014
5615,1011,1014
5616,1014,1017
5617,1018,1021
5618,1017,1019
5619,1016,1016
5620,1013,1018
5621,1014,1018
5622,1012,1016
5623,1018,1018
5624,1018,1019
5625,1018,1017
5626,1014,1016
5627,1015,1014
5628,1016,1016
5629,1018,1020
5630,1018,1017
5631,1018,1016
5632,1013,1012
5633,1013,1013
5634,1011,1016
5635,1014,1019
5636,1017,1017
5637,1014,1014
5638,1015,1013
5639,1014,1014
5640,1017,1018
5641,1019,1021
5642,1018,1017
5643,1013,1016
5644,1011,1010
5645,1010,1011
5646,1010,1014
5647,1012,1015
5648,1015,1016
5649,1012,1013
5650,1010,1008
5651,1011,1011
5652,1011,1014
5653,1015,1014
5654,1013,1015
5655,1009,1014
5656,1007,1009
5657,1005,1010
5658,1004,1012
5659,1008,1015
5660,1010,1015
5661,1006,1013
5662,1005,1008
5663,1001,1011
5664,1003,1012
5665,1003,1015
5666,1003,1015
5667,998,1011
5668,996,1008
5669,993,1009
5670,996,1011
5671,999,1012
5672,999,1012
5673,999,1009
5674,997,1007
5675,996,1008
5676,995,1014
5677,998,1015
5678,998,1012
5679,991,1009
5680,990,1007
5681,987,1010
5682,986,1010
5683,992,1013
5684,995,1013
5685,995,1011
5686,993,1009
5687,994,1009
5688,990,1011
5689,992,1013
5690,993,1012
5691,992,1007
5692,989,1005
5693,986,1008
5694,988,1009
5695,987,1010
5696,989,1009
5697,990,1008
5698,988,1004
5699,989,1005
5700,986,1009
5701,992,1010
5702,991,1009
5703,991,1007
5704,989,1005
5705,988,1005
5706,985,1007
5707,990,1007
5708,988,1007
5709,985,1007
5710,985,1002
5711,982,1005
5712,985,1006
5713,986,1007
5714,987,1005
5715,989,1003
5716,985,1001
5717,983,1002
5718,985,1005
5719,988,1007
5720,991,1005
5721,988,1003
5722,983,999
5723,983,1001
5724,986,1003
5725,987,1008
5726,990,1007
5727,989,1006
5728,985,1004
5729,984,1003
5730,984,1005
5731,986,1008
5732,988,1005
5733,984,1004
5734,983,1003
5735,981,1004
5736,984,1007
5737,986,1008
5738,986,1005
5739,984,1001
5740,982,998
5741,987,1001
5742,986,1004
5743,987,1009
5744,988,1007
5745,986,1004
5746,984,1001
5747,983,1002
5748,986,1005
5749,988,1008
5750,986,1008
5751,989,1005
5752,983,1002
5753,982,1002
5754,982,1004
5755,987,1007
5756,989,1006
5757,987,1004
5758,987,1001
5759,986,1002
5760,987,1005
5761,989,1008
5762,989,1008
5763,987,1002
5764,987,1003
5765,985,1005
5766,987,1008
5767,989,1009
5768,987,1007
5769,988,1003
5770,984,1002
5771,985,1004
5772,986,1007
5773,989,1009
5774,989,1006
5775,986,1004
5776,985,1002
5777,984,1001
5778,983,1008
5779,987,1010
5780,986,1010
5781,985,1007
5782,984,1003
5783,984,1006
5784,984,1009
5785,989,1011
5786,990,1009
5787,989,1005
5788,985,1003
5789,984,1004
5790,985,1006
5791,985,1008
5792,987,1006
5793,984,1003
5794,981,1004
5795,981,1006
5796,984,1005
5797,985,1008
5798,986,1009
5799,984,1006
5800,982,1004
5801,982,1007
5802,981,1007
5803,985,1011
5804,988,1007
5805,985,1007
5806,983,1005
5807,981,1005
5808,983,1008
5809,988,1011
5810,986,1009
5811,985,1007
5812,979,1005
5813,980,1006
5814,979,1005
5815,980,1011
5816,983,1011
5817,983,1006
5818,982,1006
5819,981,1006
5820,982,1010
5821,986,1014
5822,985,1010
5823,985,1010
5824,984,1009
5825,983,1009
5826,983,1011
5827,986,1014
5828,988,1014
5829,988,1010
5830,984,1010
5831,981,1009
5832,985,1012
5833,988,1013
5834,989,1012
5835,988,1009
5836,987,1006
5837,991,1005
5838,994,1005
5839,993,1002
5840,1000,1000
5841,997,998
5842,998,994
5843,1000,995
5844,1004,998
5845,1007,1000
5846,1011,998
5847,1011,994
5848,1005,994
5849,1006,998
5850,1002,1003
5851,1005,1006
5852,1004,1004
5853,1002,1004
5854,996,1010
5855,995,1012
5856,998,1015
5857,1001,1016
5858,1000,1014
5859,998,1011
5860,992,1009
5861,988,1006
5862,985,1010
5863,989,1012
5864,990,1012
5865,987,1008
5866,982,1005
5867,982,1007
5868,984,1008
5869,990,1011
5870,991,1010
5871,989,1007
5872,986,1004
5873,987,1009
5874,990,1014
5875,992,1016
5876,996,1016
5877,991,1018
5878,992,1023
5879,990,1030
5880,994,1034
5881,999,1030
5882,1000,1019
5883,998,1000
5884,995,969
5885,990,934
5886,994,898
5887,1005,868
5888,1030,845
5889,1056,835
5890,1082,839
5891,1105,857
5892,1122,886
5893,1117,916
5894,1089,947
5895,1041,967
5896,1008,989
5897,992,1010
5898,984,1025
5899,989,1030
5900,994,1032
5901,993,1030
5902,998,1027
5903,997,1027
5904,999,1029
5905,1003,1033
5906,1003,1031
5907,997,1028
5908,995,1025
5909,996,1028
5910,1002,1030
5911,1002,1032
5912,1002,1029
5913,1001,1028
5914,998,1027
5915,998,1028
5916,1001,1029
5917,1003,1032
5918,1004,1029
5919,1003,1028
5920,999,1027
5921,1000,1028
5922,1003,1029
5923,1005,1033
5924,1004,1032
5925,1007,1027
5926,1002,1025
5927,1002,1026
5928,1006,1031
5929,1007,1033
5930,1008,1031
5931,1008,1030
5932,1005,1027
5933,1005,1028
5934,1003,1029
5935,1011,1030
5936,1013,1029
5937,1011,1028
5938,1008,1024
5939,1008,1024
5940,1011,1028
5941,1011,1031
5942,1013,1030
5943,1012,1026
5944,1006,1025
5945,1007,1026
5946,1008,1027
5947,1011,1029
5948,1012,1030
5949,1009,1030
5950,1008,1027
5951,1006,1026
5952,1008,1028
5953,1008,1030
5954,1012,1028
5955,1009,1027
5956,1005,1025
5957,1006,1025
5958,1007,1029
5959,1011,1031
5960,1009,1032
5961,1011,1028
5962,1006,1025
5963,1007,1026
5964,1011,1026
5965,1012,1031
5966,1013,1030
5967,1010,1027
5968,1009,1023
5969,1005,1026
5970,1010,1026
5971,1009,1029
5972,1011,1027
5973,1009,1027
5974,1005,1025
5975,1006,1025
5976,1005,1025
5977,1009,1029
5978,1006,1027
5979,1005,1023
5980,1001,1020
5981,999,1020
5982,1000,1024
5983,1000,1025
5984,1003,1023
5985,1000,1020
5986,995,1016
5987,990,1015
5988,992,1021
5989,995,1022
5990,994,1021
5991,993,1019
5992,991,1018
5993,989,1020
5994,992,1023
5995,991,1024
5996,991,1022
5997,993,1018
5998,991,1017
5999,990,1017
6000,992,1021
6001,994,1023
6002,996,1021
6003,994,1019
6004,994,1015
6005,992,1016
6006,990,1020
6007,993,1019
6008,993,1019
6009,995,1019
6010,993,1016
6011,992,1015
6012,995,1019
6013,996,1020
6014,996,1019
6015,993,1017
6016,995,1015
6017,991,1015
6018,993,1019
6019,996,1019
6020,998,1019
6021,996,1018
6022,993,1013
6023,990,1014
6024,993,1016
6025,995,1021
6026,997,1017
6027,997,1015
6028,995,1012
6029,994,1013
6030,993,1017
6031,997,1019
6032,995,1018
6033,995,1017
6034,994,1012
6035,990,1013
6036,994,1017
6037,999,1018
6038,996,1016
6039,994,1012
6040,992,1011
6041,994,1015
6042,997,1018
6043,993,1017
6044,996,1017
6045,997,1013
6046,994,1011
6047,995,1010
6048,997,1014
6049,999,1017
6050,1000,1015
6051,999,1013
6052,998,1013
6053,999,1014
6054,999,1018
6055,1001,1018
6056,1002,1016
6057,1001,1014
6058,997,1012
6059,1000,1012
6060,1001,1018
6061,1000,1018
6062,1000,1016
6063,1000,1013
6064,997,1012
6065,999,1016
6066,999,1017
6067,1001,1021
6068,1004,1016
6069,1004,1015
6070,1000,1015
6071,1001,1015
6072,999,1018
6073,1005,1019
6074,1004,1017
6075,1003,1016
6076,1000,1014
6077,998,1014
6078,997,1017
6079,1001,1020
6080,1003,1016
6081,1001,1014
6082,1000,1013
6083,1002,1014
6084,1001,1017
6085,1004,1018
6086,1005,1020
6087,1006,1016
6088,1004,1014
6089,1002,1015
6090,1002,1017
6091,1006,1020
6092,1007,1018
6093,1007,1017
6094,1004,1015
6095,1004,1015
6096,1002,1017
6097,1003,1020
6098,1006,1017
6099,1006,1017
6100,1003,1013
6101,1002,1015
6102,1006,1016
6103,1007,1021
6104,1007,1021
6105,1005,1017
6106,1004,1015
6107,1002,1013
6108,1003,1017
6109,1008,1016
6110,1008,1016
6111,1005,1016
6112,1004,1015
6113,1002,1017
6114,1003,1019
6115,1007,1021
6116,1008,1018
6117,1008,1016
6118,1005,1012
6119,1002,1015
6120,1004,1017
6121,1006,1020
6122,1007,1020
6123,1009,1018
6124,1004,1015
6125,1003,1017
6126,1005,1019
6127,1006,1023
6128,1009,1020
6129,1007,1021
6130,1006,1020
6131,1006,1019
6132,1009,1017
6133,1010,1018
6134,1013,1016
6135,1012,1014
6136,1009,1009
6137,1010,1011
6138,1011,1014
6139,1015,1015
6140,1016,1011
6141,1016,1008
6142,1015,1003
6143,1016,1002
6144,1020,1004
6145,1022,1007
6146,1025,1002
6147,1024,999
6148,1023,997
6149,1023,1001
6150,1026,1001
6151,1026,1009
6152,1023,1009
6153,1017,1006
6154,1014,1007
6155,1013,1013
6156,1015,1018
6157,1015,1023
6158,1019,1021
6159,1016,1018
6160,1010,1014
6161,1005,1015
6162,1007,1016
6163,1008,1019
6164,1004,1018
6165,999,1017
6166,999,1014
6167,999,1014
6168,999,1016
6169,1003,1020
6170,1004,1017
6171,1002,1014
6172,1001,1013
6173,999,1016
6174,1007,1017
6175,1006,1019
6176,1010,1018
6177,1009,1017
6178,1006,1019
6179,1008,1027
6180,1010,1040
6181,1013,1045
6182,1015,1042
6183,1017,1026
6184,1015,999
6185,1011,964
6186,1018,925
6187,1027,883
6188,1049,844
6189,1074,820
6190,1098,811
6191,1122,817
6192,1143,835
6193,1157,860
6194,1161,887
6195,1142,916
6196,1103,941
6197,1061,973
6198,1035,999
6199,1021,1020
6200,1017,1028
6201,1012,1033
6202,1009,1031
6203,1008,1032
6204,1008,1035
6205,1009,1038
6206,1010,1038
6207,1008,1036
6208,1004,1032
6209,1002,1031
6210,1004,1033
6211,1006,1036
6212,1008,1034
6213,1007,1035
6214,1005,1031
6215,1004,1032
6216,1004,1035
6217,1004,1038
6218,1006,1037
6219,1004,1032
6220,1006,1030
6221,1003,1032
6222,1005,1037
6223,1007,1038
6224,1009,1037
6225,1006,1034
6226,1004,1031
6227,1003,1030
6228,1004,1033
6229,1006,1038
6230,1008,1033
6231,1005,1031
6232,1004,1032
6233,1002,1031
6234,1004,1035
6235,1005,1038
6236,1007,1036
6237,1006,1032
6238,1005,1031
6239,1004,1031
6240,1005,1038
6241,1008,1037
6242,1008,1035
6243,1007,1034
6244,1004,1029
6245,1000,1031
6246,1006,1032
6247,1008,1037
6248,1008,1036
6249,1006,1032
6250,1003,1032
6251,1004,1031
6252,1003,1034
6253,1009,1038
6254,1009,1036
6255,1006,1035
6256,1003,1031
6257,1003,1032
6258,1006,1035
6259,1009,1038
6260,1008,1036
6261,1007,1034
6262,1005,1033
6263,1004,1033
6264,1007,1038
6265,1009,1040
6266,1007,1039
6267,1007,1035
6268,1003,1034
6269,1002,1035
6270,1005,1036
6271,1008,1039
6272,1010,1038
6273,1008,1035
6274,1005,1033
6275,1005,1035
6276,1004,1036
6277,1007,1037
6278,1007,1035
6279,1005,1035
6280,1001,1030
6281,999,1032
6282,998,1034
6283,1003,1034
6284,1004,1032
6285,999,1029
6286,996,1026
6287,994,1027
6288,998,1031
6289,999,1033
6290,1000,1028
6291,998,1024
6292,994,1023
6293,993,1026
6294,992,1028
6295,993,1031
6296,991,1026
6297,994,1024
6298,988,1023
6299,988,1020
6300,992,1022
6301,993,1025
6302,995,1024
6303,992,1021
6304,988,1019
6305,987,1020
6306,990,1023
6307,989,1025
6308,992,1023
6309,991,1019
6310,986,1019
6311,986,1020
6312,990,1023
6313,989,1025
6314,992,1022
6315,988,1018
6316,989,1017
6317,989,1016
6318,988,1021
6319,991,1023
6320,991,1021
6321,990,1020
6322,986,1018
6323,985,1019
6324,988,1021
6325,991,1023
6326,991,1021
6327,992,1018
6328,988,1018
6329,987,1018
6330,990,1020
6331,990,1022
6332,994,1017
6333,989,1015
6334,986,1015
6335,986,1013
6336,987,1020
6337,988,1021
6338,989,1018
6339,987,1015
6340,986,1012
6341,983,1012
6342,985,1017
6343,984,1019
6344,989,1016
6345,988,1015
6346,987,1013
6347,984,1013
6348,988,1016
6349,989,1019
6350,987,1017
6351,986,1014
6352,982,1013
6353,984,1015
6354,987,1017
6355,988,1020
6356,989,1017
6357,985,1014
6358,983,1012
6359,983,1013
6360,987,1017
6361,989,1019
6362,990,1018
6363,990,1013
6364,985,1012
6365,984,1012
6366,984,1013
6367,986,1017
6368,989,1016
6369,990,1013
6370,988,1011
6371,984,1010
6372,985,1013
6373,983,1018
6374,983,1016
6375,986,1012
6376,983,1010
6377,981,1013
6378,984,1015
6379,987,1016
6380,989,1016
6381,983,1012
6382,985,1011
6383,985,1011
6384,985,1015
6385,987,1017
6386,989,1017
6387,990,1014
6388,985,1012
6389,984,1014
6390,986,1016
6391,987,1017
6392,990,1015
6393,985,1014
6394,984,1011
6395,984,1012
6396,984,1015
6397,986,1018
6398,986,1016
6399,986,1013
6400,983,1011
6401,981,1014
6402,984,1015
6403,985,1017
6404,985,1017
6405,984,1016
6406,983,1010
6407,982,1012
6408,982,1015
6409,987,1018
6410,989,1016
6411,987,1014
6412,984,1013
6413,983,1013
6414,984,1016
6415,987,1019
6416,988,1018
6417,986,1015
6418,982,1015
6419,983,1018
6420,985,1021
6421,990,1021
6422,991,1018
6423,989,1015
6424,984,1013
6425,983,1013
6426,987,1014
6427,987,1016
6428,990,1016
6429,992,1014
6430,990,1010
6431,989,1007
6432,992,1006
6433,996,1006
6434,999,1006
6435,1000,1003
6436,997,1000
6437,997,998
6438,998,1001
6439,1000,1002
6440,1001,996
6441,1001,1000
6442,997,1002
6443,995,1005
6444,994,1007
6445,991,1013
6446,992,1015
6447,991,1011
6448,986,1012
6449,985,1016
6450,987,1017
6451,989,1018
6452,987,1019
6453,984,1014
6454,978,1011
6455,976,1014
6456,976,1016
6457,977,1016
6458,976,1015
6459,975,1012
6460,974,1009
6461,971,1013
6462,976,1014
6463,982,1018
6464,979,1014
6465,979,1014
6466,979,1011
6467,977,1015
6468,980,1019
6469,982,1026
6470,981,1032
6471,983,1035
6472,979,1032
6473,982,1023
6474,983,1009
6475,981,991
6476,978,956
6477,973,919
6478,976,887
6479,993,866
6480,1017,859
6481,1039,863
6482,1060,875
6483,1070,892
6484,1065,916
6485,1044,941
6486,1019,966
6487,995,989
6488,980,1007
6489,967,1020
6490,964,1024
6491,963,1026
6492,973,1030
6493,982,1035
6494,987,1036
6495,983,1030
6496,983,1027
6497,977,1029
6498,981,1031
6499,985,1034
6500,985,1031
6501,982,1028
6502,979,1026
6503,978,1030
6504,979,1029
6505,982,1033
6506,984,1029
6507,982,1027
6508,981,1023
6509,983,1025
6510,985,1030
6511,982,1032
6512,984,1030
6513,986,1026
6514,982,1024
6515,980,1027
6516,979,1028
6517,984,1031
6518,985,1029
6519,986,1029
6520,982,1027
6521,980,1027
6522,980,1029
6523,986,1032
6524,987,1029
6525,984,1027
6526,983,1024
6527,983,1028
6528,984,1028
6529,989,1029
6530,987,1028
6531,984,1026
6532,982,1027
6533,982,1024
6534,985,1028
6535,986,1031
6536,986,1028
6537,987,1027
6538,985,1022
6539,984,1024
6540,984,1024
6541,987,1028
6542,989,1029
6543,984,1024
6544,984,1022
6545,980,1025
6546,983,1027
6547,984,1029
6548,984,1025
6549,986,1024
6550,980,1023
6551,980,1024
6552,982,1024
6553,985,1028
6554,989,1027
6555,983,1023
6556,980,1022
6557,979,1024
6558,982,1022
6559,986,1026
6560,985,1024
6561,982,1024
6562,978,1021
6563,977,1022
6564,976,1023
6565,982,1023
6566,980,1024
6567,979,1022
6568,977,1021
6569,974,1020
6570,972,1023
6571,973,1023
6572,975,1023
6573,972,1019
6574,969,1016
6575,968,1018
6576,969,1020
6577,968,1024
6578,971,1022
6579,966,1021
6580,963,1019
6581,966,1020
6582,966,1018
6583,968,1023
6584,970,1022
6585,966,1019
6586,964,1019
6587,961,1020
6588,965,1022
6589,966,1024
6590,968,1023
6591,966,1020
6592,962,1017
6593,964,1021
6594,962,1023
6595,965,1024
6596,967,1023
6597,966,1019
6598,964,1016
6599,961,1016
6600,965,1020
6601,965,1022
6602,969,1021
6603,969,1017
6604,963,1017
6605,963,1015
6606,965,1016
6607,963,1021
6608,966,1021
6609,960,1016
6610,960,1016
6611,956,1017
6612,961,1019
6613,967,1021
6614,968,1021
6615,965,1018
6616,965,1014
6617,963,1014
6618,965,1017
6619,965,1022
6620,966,1019
6621,965,1017
6622,961,1013
6623,963,1015
6624,965,1016
6625,967,1017
6626,969,1016
6627,969,1015
6628,965,1015
6629,966,1016
6630,966,1016
6631,968,1017
6632,971,1019
6633,968,1015
6634,968,1014
6635,965,1012
6636,970,1015
6637,970,1018
6638,973,1016
6639,972,1014
6640,969,1010
6641,969,1012
6642,972,1013
6643,976,1017
6644,976,1017
6645,972,1013
6646,969,1011
6647,970,1012
6648,974,1013
6649,976,1016
6650,978,1014
6651,974,1011
6652,975,1009
6653,973,1014
6654,974,1013
6655,979,1016
6656,977,1014
6657,977,1009
6658,975,1009
6659,975,1012
6660,979,1015
6661,979,1015
6662,980,1015
6663,976,1014
6664,974,1011
6665,976,1012
6666,977,1012
6667,980,1016
6668,979,1016
6669,978,1013
6670,975,1013
6671,974,1013
6672,978,1017
6673,981,1017
6674,983,1015
6675,982,1013
6676,981,1012
6677,978,1015
6678,982,1016
6679,984,1018
6680,985,1015
6681,984,1011
6682,982,1011
6683,980,1010
6684,979,1011
6685,983,1014
6686,984,1016
6687,982,1016
6688,980,1010
6689,982,1011
6690,985,1015
6691,985,1016
6692,985,1014
6693,985,1011
6694,983,1009
6695,983,1015
6696,984,1018
6697,988,1020
6698,989,1015
6699,988,1013
6700,984,1012
6701,984,1011
6702,987,1014
6703,990,1016
6704,989,1016
6705,988,1013
6706,988,1010
6707,988,1012
6708,990,1014
6709,994,1017
6710,993,1017
6711,993,1016
6712,990,1013
6713,990,1018
6714,993,1021
6715,997,1022
6716,996,1022
6717,998,1022
6718,994,1021
6719,999,1020
6720,1003,1020
6721,1004,1022
6722,1004,1017
6723,1005,1014
6724,1003,1010
6725,1004,1010
6726,1009,1012
6727,1010,1012
6728,1012,1011
6729,1015,1005
6730,1015,1000
6731,1017,997
6732,1021,1002
6733,1023,1002
6734,1025,1003
6735,1024,1002
6736,1018,1005
6737,1018,1010
6738,1013,1013
6739,1013,1019
6740,1016,1017
6741,1014,1014
6742,1007,1011
6743,1003,1013
6744,1002,1015
6745,1001,1016
6746,999,1015
6747,997,1011
6748,991,1008
6749,991,1009
6750,992,1013
6751,997,1013
6752,999,1014
6753,994,1009
6754,990,1010
6755,989,1008
6756,994,1010
6757,997,1014
6758,999,1013
6759,998,1012
6760,996,1013
6761,995,1020
6762,996,1032
6763,1002,1040
6764,1002,1038
6765,1004,1027
6766,1002,1010
6767,999,990
6768,997,960
6769,1002,926
6770,1014,887
6771,1027,853
6772,1044,828
6773,1069,827
6774,1098,841
6775,1116,865
6776,1124,894
6777,1115,923
6778,1085,948
6779,1052,980
6780,1028,1006
6781,1014,1023
6782,1009,1029
6783,1006,1028
6784,1003,1028
6785,1006,1031
6786,1004,1031
6787,1007,1033
6788,1007,1032
6789,1006,1025
6790,1004,1024
6791,1002,1026
6792,1003,1027
6793,1004,1034
6794,1006,1031
6795,1005,1027
6796,1003,1026
6797,1001,1026
6798,1004,1030
6799,1006,1032
6800,1006,1031
6801,1003,1027
6802,1001,1027
6803,1002,1027
6804,1004,1029
6805,1005,1031
6806,1007,1031
6807,1003,1027
6808,1005,1025
6809,1003,1028
6810,1005,1028
6811,1008,1030
6812,1007,1030
6813,1005,1029
6814,1004,1022
6815,1001,1025
6816,1004,1028
6817,1007,1031
6818,1006,1031
6819,1009,1028
6820,1005,1026
6821,1006,1026
6822,1007,1028
6823,1007,1029
6824,1009,1029
6825,1008,1027
6826,1005,1025
6827,1005,1026
6828,1008,1028
6829,1007,1029
6830,1008,1027
6831,1010,1024
6832,1007,1024
6833,1005,1024
6834,1009,1026
6835,1011,1030
6836,1012,1029
6837,1010,1024
6838,1007,1025
6839,1006,1024
6840,1007,1028
6841,1011,1031
6842,1012,1028
6843,1010,1027
6844,1007,1024
6845,1007,1027
6846,1008,1030
6847,1011,1032
6848,1012,1029
6849,1011,1026
6850,1008,1023
6851,1006,1025
6852,1009,1030
6853,1012,1032
6854,1010,1028
6855,1007,1026
6856,1005,1025
6857,1004,1026
6858,1004,1027
6859,1006,1028
6860,1008,1028
6861,1004,1024
6862,1000,1022
6863,1001,1020
6864,1000,1023
6865,1002,1027
6866,1000,1023
6867,1000,1022
6868,994,1020
6869,995,1021
6870,994,1022
6871,997,1024
6872,998,1023
6873,996,1021
6874,994,1020
6875,991,1019
6876,993,1020
6877,996,1023
6878,996,1021
6879,996,1017
6880,993,1015
6881,995,1015
6882,996,1020
6883,996,1022
6884,999,1020
6885,998,1018
6886,992,1015
6887,994,1014
6888,995,1021
6889,995,1023
6890,996,1023
6891,992,1019
6892,993,1017
6893,991,1018
6894,996,1017
6895,997,1020
6896,997,1017
6897,999,1014
6898,994,1017
6899,991,1016
6900,998,1019
6901,1000,1022
6902,1001,1017
6903,1000,1015
6904,996,1012
6905,997,1015
6906,996,1016
6907,1000,1020
6908,1002,1019
6909,996,1016
6910,997,1015
6911,996,1015
6912,999,1017
6913,998,1017
6914,998,1018
6915,999,1014
6916,996,1011
6917,995,1012
6918,997,1014
6919,998,1018
6920,999,1016
6921,998,1012
6922,997,1013
6923,994,1013
6924,996,1017
6925,1000,1017
6926,999,1015
6927,1001,1011
6928,995,1009
6929,996,1011
6930,996,1014
6931,997,1015
6932,1001,1016
6933,1002,1013
6934,998,1011
6935,996,1011
6936,1000,1014
6937,1002,1015
6938,1004,1015
6939,1000,1012
6940,999,1010
6941,1000,1010
6942,999,1013
6943,1005,1015
6944,1003,1014
6945,1004,1013
6946,999,1010
6947,1000,1013
6948,999,1015
6949,1003,1016
6950,1005,1015
6951,1005,1012
6952,1000,1011
6953,1000,1014
6954,1004,1012
6955,1004,1017
6956,1005,1017
6957,1003,1011
6958,1001,1011
6959,1001,1011
6960,1002,1015
6961,1006,1016
6962,1007,1015
6963,1005,1013
6964,1003,1012
6965,1003,1014
6966,1007,1020
6967,1009,1020
6968,1010,1022
6969,1010,1021
6970,1009,1021
6971,1009,1022
6972,1012,1023
6973,1016,1029
6974,1018,1030
6975,1019,1029
6976,1016,1029
6977,1018,1030
6978,1025,1037
6979,1030,1036
6980,1035,1028
6981,1038,1019
6982,1041,1012
6983,1046,1011
6984,1048,1011
6985,1049,1011
6986,1047,1008
6987,1047,1005
6988,1043,1006
6989,1040,1009
6990,1038,1014
6991,1039,1018
6992,1039,1018
6993,1035,1014
6994,1028,1012
6995,1026,1011
6996,1023,1013
6997,1019,1015
6998,1018,1012
6999,1010,1010
7000,1008,1005
7001,1002,1007
7002,1004,1009
7003,1004,1010
7004,1005,1012
7005,1001,1009
7006,1000,1010
7007,997,1008
7008,999,1012
7009,1002,1015
7010,1000,1012
7011,999,1009
7012,995,1008
7013,994,1011
7014,999,1014
7015,1004,1019
7016,1007,1019
7017,1008,1024
7018,1002,1033
7019,1003,1036
7020,1007,1039
7021,1011,1033
7022,1011,1008
7023,1008,978
7024,1003,932
7025,1009,885
7026,1024,843
7027,1046,820
7028,1082,810
7029,1106,818
7030,1125,831
7031,1135,855
7032,1138,882
7033,1127,913
7034,1101,943
7035,1066,971
7036,1031,994
7037,1013,1013
7038,1006,1029
7039,1008,1033
7040,1011,1032
7041,1010,1031
7042,1008,1031
7043,1005,1030
7044,1004,1031
7045,1005,1035
7046,1004,1033
7047,1003,1032
7048,1000,1028
7049,1001,1030
7050,1002,1030
7051,1004,1031
7052,1006,1031
7053,1002,1027
7054,1003,1025
7055,999,1027
7056,1001,1027
7057,1004,1030
7058,1005,1029
7059,1003,1027
7060,1002,1025
7061,999,1026
7062,1003,1028
7063,1005,1032
7064,1005,1029
7065,1005,1027
7066,1001,1024
7067,999,1027
7068,1000,1029
7069,1005,1031
7070,1007,1030
7071,1006,1028
7072,1002,1029
7073,1000,1029
7074,1004,1031
7075,1005,1034
7076,1010,1034
7077,1006,1030
7078,1002,1027
7079,1001,1028
7080,1004,1032
7081,1007,1035
7082,1009,1032
7083,1007,1028
7084,1002,1028
7085,1006,1027
7086,1007,1028
7087,1009,1033
7088,1010,1031
7089,1008,1028
7090,1009,1029
7091,1006,1031
7092,1009,1031
7093,1010,1033
7094,1013,1035
7095,1008,1032
7096,1009,1029
7097,1009,1032
7098,1009,1033
7099,1013,1034
7100,1012,1035
7101,1009,1032
7102,1009,1031
7103,1008,1032
7104,1009,1034
7105,1014,1036
7106,1016,1035
7107,1012,1031
7108,1009,1029
7109,1009,1030
7110,1006,1035
7111,1012,1037
7112,1012,1036
7113,1008,1032
7114,1006,1029
7115,1004,1029
7116,1002,1033
7117,1003,1034
7118,1004,1031
7119,1003,1028
7120,1000,1027
7121,999,1030
7122,999,1031
7123,1002,1031
7124,1001,1028
7125,996,1028
7126,997,1023
7127,995,1023
7128,994,1026
7129,998,1030
7130,999,1029
7131,995,1024
7132,993,1022
7133,992,1021
7134,994,1023
7135,997,1026
7136,994,1025
7137,996,1022
7138,990,1022
7139,991,1022
7140,988,1023
7141,995,1026
7142,991,1022
7143,994,1023
7144,990,1021
7145,988,1021
7146,989,1022
7147,993,1023
7148,993,1024
7149,993,1020
7150,989,1017
7151,988,1020
7152,992,1021
7153,991,1025
7154,995,1024
7155,993,1021
7156,992,1019
7157,990,1022
7158,992,1021
7159,994,1025
7160,996,1024
7161,993,1021
7162,987,1018
7163,989,1021
7164,990,1022
7165,992,1025
7166,994,1023
7167,995,1021
7168,992,1018
7169,988,1020
7170,992,1020
7171,996,1023
7172,992,1021
7173,992,1018
7174,992,1017
7175,989,1019
7176,992,1021
7177,993,1020
7178,992,1019
7179,989,1017
7180,987,1015
7181,982,1017
7182,989,1020
7183,990,1021
7184,993,1021
7185,991,1018
7186,991,1016
7187,991,1017
7188,994,1017
7189,993,1021
7190,995,1019
7191,991,1017
7192,987,1014
7193,988,1015
7194,988,1018
7195,992,1020
7196,991,1019
7197,991,1015
7198,989,1012
7199,987,1015
7200,992,1016
7201,991,1021
7202,992,1020
7203,993,1016
7204,989,1014
7205,989,1016
7206,987,1016
7207,992,1017
7208,991,1017
7209,987,1014
7210,984,1013
7211,986,1016
7212,988,1015
7213,987,1019
7214,988,1016
7215,988,1016
7216,986,1009
7217,984,1014
7218,986,1015
7219,988,1019
7220,988,1018
7221,988,1014
7222,984,1011
7223,981,1015
7224,985,1014
7225,986,1017
7226,988,1017
7227,983,1013
7228,984,1013
7229,982,1015
7230,981,1015
7231,987,1019
7232,988,1018
7233,984,1017
7234,980,1013
7235,978,1015
7236,982,1018
7237,983,1019
7238,986,1015
7239,984,1016
7240,981,1013
7241,983,1013
7242,983,1015
7243,985,1018
7244,986,1017
7245,984,1014
7246,982,1012
7247,980,1014
7248,982,1017
7249,980,1020
7250,985,1018
7251,983,1014
7252,983,1011
7253,978,1013
7254,981,1015
7255,984,1020
7256,984,1017
7257,985,1016
7258,982,1013
7259,977,1014
7260,983,1017
7261,985,1018
7262,985,1019
7263,986,1017
7264,982,1012
7265,976,1013
7266,979,1018
7267,985,1018
7268,986,1018
7269,984,1016
7270,983,1016
7271,982,1019
7272,985,1020
7273,989,1020
7274,988,1022
7275,987,1017
7276,984,1014
7277,983,1015
7278,987,1016
7279,990,1019
7280,993,1017
7281,991,1012
7282,984,1008
7283,987,1006
7284,991,1007
7285,998,1009
7286,999,1005
7287,996,1002
7288,993,999
7289,994,1000
7290,997,1002
7291,999,1006
7292,1000,1007
7293,995,1005
7294,992,1006
7295,989,1009
7296,989,1016
7297,990,1019
7298,989,1020
7299,985,1017
7300,984,1014
7301,981,1015
7302,979,1018
7303,981,1021
7304,978,1021
7305,974,1016
7306,974,1013
7307,974,1014
7308,975,1019
7309,978,1019
7310,981,1017
7311,979,1015
7312,978,1013
7313,976,1015
7314,978,1019
7315,982,1020
7316,983,1020
7317,983,1019
7318,982,1027
7319,981,1034
7320,984,1034
7321,987,1026
7322,988,1000
7323,981,971
7324,977,939
7325,979,904
7326,989,881
7327,1008,860
7328,1027,850
7329,1047,852
7330,1065,866
7331,1074,893
7332,1076,925
7333,1058,956
7334,1025,984
7335,995,1006
7336,976,1022
7337,972,1032
7338,978,1037
7339,985,1039
7340,990,1036
7341,989,1034
7342,983,1029
7343,976,1035
7344,977,1036
7345,985,1038
7346,984,1038
7347,983,1033
7348,983,1033
7349,980,1034
7350,984,1035
7351,985,1036
7352,983,1037
7353,983,1035
7354,982,1036
7355,981,1035
7356,983,1038
7357,987,1039
7358,987,1039
7359,984,1033
7360,983,1031
7361,982,1034
7362,985,1034
7363,984,1038
7364,989,1035
7365,986,1034
7366,980,1033
7367,983,1030
7368,985,1032
7369,987,1035
7370,986,1034
7371,985,1031
7372,983,1028
7373,980,1032
7374,982,1033
7375,984,1038
7376,983,1034
7377,982,1034
7378,980,1033
7379,979,1034
7380,979,1035
7381,982,1038
7382,984,1035
7383,982,1035
7384,980,1032
7385,980,1032
7386,982,1033
7387,986,1035
7388,983,1036
7389,982,1031
7390,981,1028
7391,980,1032
7392,983,1031
7393,984,1039
7394,985,1033
7395,978,1032
7396,978,1028
7397,977,1029
7398,979,1032
7399,979,1036
7400,981,1033
7401,980,1032
7402,977,1029
7403,975,1031
7404,976,1036
7405,976,1037
7406,976,1034
7407,979,1032
7408,973,1025
7409,973,1027
7410,974,1028
7411,974,1031
7412,975,1031
7413,972,1025
7414,968,1025
7415,968,1030
7416,967,1031
7417,969,1032
7418,967,1029
7419,968,1026
7420,964,1020
7421,961,1027
7422,966,1029
7423,966,1032
7424,968,1028
7425,966,1028
7426,962,1025
7427,964,1026
7428,962,1027
7429,966,1029
7430,966,1031
7431,963,1028
7432,959,1024
7433,961,1025
7434,963,1028
7435,965,1026
7436,965,1025
7437,963,1024
7438,961,1023
7439,961,1023
7440,963,1026
7441,964,1027
7442,966,1024
7443,964,1021
7444,961,1022
7445,957,1021
7446,957,1024
7447,964,1025
7448,964,1024
7449,962,1022
7450,961,1024
7451,958,1022
7452,961,1024
7453,964,1027
7454,965,1026
7455,964,1025
7456,962,1021
7457,959,1023
7458,963,1026
7459,966,1025
7460,968,1022
7461,966,1022
7462,962,1020
7463,961,1023
7464,962,1025
7465,963,1024
7466,963,1025
7467,961,1022
7468,959,1020
7469,958,1023
7470,964,1022
7471,965,1023
7472,966,1020
7473,966,1020
7474,964,1018
7475,961,1018
7476,963,1023
7477,964,1024
7478,963,1023
7479,965,1018
7480,962,1016
7481,965,1020
7482,967,1021
7483,967,1024
7484,968,1026
7485,967,1022
7486,962,1019
7487,964,1020
7488,964,1023
7489,969,1025
7490,966,1023
7491,971,1019
7492,966,1018
7493,967,1021
7494,967,1020
7495,973,1022
7496,971,1022
7497,971,1019
7498,968,1016
7499,969,1020
7500,972,1024
7501,972,1021
7502,973,1023
7503,971,1021
7504,969,1018
7505,967,1020
7506,970,1022
7507,975,1025
7508,976,1024
7509,974,1022
7510,971,1019
7511,972,1020
7512,975,1022
7513,976,1023
7514,978,1022
7515,976,1020
7516,974,1018
7517,974,1021
7518,975,1024
7519,978,1024
7520,977,1021
7521,977,1021
7522,974,1018
7523,972,1019
7524,976,1022
7525,978,1024
7526,979,1022
7527,978,1018
7528,977,1017
7529,977,1018
7530,978,1024
7531,978,1023
7532,982,1024
7533,979,1022
7534,979,1019
7535,978,1019
7536,980,1024
7537,983,1025
7538,981,1023
7539,981,1019
7540,981,1018
7541,982,1017
7542,984,1020
7543,987,1024
7544,989,1023
7545,983,1020
7546,983,1020
7547,984,1023
7548,988,1026
7549,989,1032
7550,991,1034
7551,991,1032
7552,989,1031
7553,990,1034
7554,993,1039
7555,1000,1038
7556,1003,1039
7557,1004,1035
7558,1003,1031
7559,1001,1029
7560,1009,1027
7561,1014,1026
7562,1020,1020
7563,1020,1014
7564,1019,1011
7565,1018,1013
7566,1022,1016
7567,1023,1019
7568,1025,1017
7569,1019,1015
7570,1018,1018
7571,1013,1021
7572,1013,1024
7573,1013,1026
7574,1011,1023
7575,1007,1020
7576,1001,1019
7577,996,1019
7578,990,1022
7579,992,1023
7580,992,1019
7581,986,1016
7582,981,1015
7583,981,1017
7584,983,1022
7585,983,1023
7586,983,1021
7587,984,1019
7588,979,1014
7589,979,1016
7590,982,1019
7591,983,1022
7592,985,1020
7593,988,1019
7594,987,1022
7595,986,1027
7596,990,1036
7597,992,1045
7598,995,1045
7599,991,1034
7600,988,1016
7601,988,996
7602,989,964
7603,992,922
7604,1004,883
7605,1020,848
7606,1039,831
7607,1062,837
7608,1086,854
7609,1103,882
7610,1105,912
7611,1088,938
7612,1054,967
7613,1026,997
7614,1010,1021
7615,1002,1035
7616,1000,1038
7617,993,1035
7618,993,1032
7619,994,1034
7620,993,1037
7621,998,1040
7622,997,1039
7623,992,1035
7624,988,1034
7625,988,1037
7626,992,1038
7627,992,1042
7628,993,1038
7629,991,1035
7630,987,1031
7631,986,1033
7632,991,1037
7633,994,1039
7634,994,1037
7635,993,1034
7636,987,1033
7637,990,1033
7638,991,1036
7639,993,1039
7640,994,1035
7641,994,1034
7642,991,1035
7643,992,1035
7644,991,1037
7645,994,1040
7646,995,1037
7647,992,1035
7648,992,1036
7649,994,1035
7650,996,1036
7651,999,1040
7652,997,1039
7653,997,1034
7654,993,1033
7655,992,1031
7656,994,1036
7657,997,1037
7658,999,1036
7659,997,1034
7660,994,1035
7661,996,1033
7662,996,1038
7663,999,1040
7664,999,1035
7665,1000,1032
7666,996,1032
7667,995,1034
7668,999,1037
7669,1001,1041
7670,1000,1036
7671,998,1033
7672,997,1034
7673,997,1032
7674,996,1036
7675,1000,1039
7676,1003,1037
7677,1001,1034
7678,1000,1032
7679,997,1035
7680,998,1035
7681,1001,1038
7682,1004,1034
7683,1003,1033
7684,998,1032
7685,1000,1033
7686,998,1034
7687,1000,1039
7688,1001,1035
7689,1001,1032
7690,998,1029
7691,998,1031
7692,999,1033
7693,998,1037
7694,1001,1034
7695,1000,1031
7696,996,1026
7697,997,1031
7698,993,1032
7699,995,1032
7700,996,1029
7701,990,1026
7702,987,1026
7703,990,1028
7704,989,1029
7705,992,1029
7706,990,1027
7707,987,1025
7708,987,1021
7709,984,1025
7710,986,1028
7711,990,1029
7712,991,1028
7713,988,1026
7714,986,1026
7715,985,1024
7716,987,1027
7717,992,1030
7718,991,1026
7719,989,1025
7720,984,1020
7721,984,1024
7722,988,1025
7723,990,1029
7724,988,1026
7725,990,1023
7726,988,1021
7727,988,1022
7728,989,1025
7729,992,1029
7730,993,1025
7731,993,1024
7732,990,1019
7733,990,1022
7734,992,1026
7735,993,1026
7736,995,1024
7737,989,1021
7738,987,1023
7739,989,1022
7740,992,1027
7741,991,1028
7742,993,1024
7743,990,1023
7744,989,1019
7745,990,1022
7746,992,1023
7747,993,1026
7748,994,1028
7749,993,1023
7750,991,1021
7751,989,1023
7752,993,1023
7753,992,1027
7754,994,1025
7755,992,1022
7756,990,1020
7757,992,1022
7758,992,1026
7759,994,1024
7760,996,1024
7761,994,1020
7762,993,1020
7763,992,1018
7764,995,1022
7765,995,1024
7766,996,1024
7767,995,1020
7768,995,1019
7769,995,1020
7770,995,1020
7771,997,1020
7772,998,1020
7773,998,1020
7774,993,1019
7775,991,1019
7776,996,1023
7777,999,1024
7778,996,1020
7779,997,1017
7780,995,1017
7781,990,1018
7782,994,1020
7783,998,1023
7784,998,1020
7785,1001,1017
7786,997,1017
7787,998,1018
7788,999,1020
7789,1003,1021
7790,1003,1021
7791,999,1015
7792,998,1012
7793,998,1017
7794,1001,1019
7795,1001,1020
7796,1003,1019
7797,1000,1017
7798,998,1015
7799,997,1016
7800,998,1021
7801,1001,1021
7802,1000,1018
7803,998,1018
7804,998,1017
7805,998,1016
7806,1000,1018
7807,1001,1023
7808,1001,1020
7809,1000,1018
7810,998,1016
7811,998,1016
7812,1002,1019
7813,1003,1019
7814,1005,1018
7815,1000,1014
7816,998,1015
7817,999,1017
7818,1001,1018
7819,1003,1018
7820,1002,1017
7821,1004,1014
7822,1001,1013
7823,1001,1016
7824,1003,1018
7825,1008,1022
7826,1007,1021
7827,1005,1018
7828,1004,1017
7829,1005,1020
7830,1006,1024
7831,1010,1026
7832,1015,1029
7833,1013,1027
7834,1013,1024
7835,1015,1030
7836,1019,1031
7837,1022,1036
7838,1024,1032
7839,1023,1033
7840,1024,1029
7841,1026,1031
7842,1035,1030
7843,1040,1027
7844,1044,1020
7845,1045,1014
7846,1046,1009
7847,1044,1009
7848,1047,1010
7849,1044,1012
7850,1045,1012
7851,1044,1011
7852,1038,1009
7853,1033,1013
7854,1035,1019
7855,1036,1020
7856,1033,1017
7857,1029,1016
7858,1022,1012
7859,1018,1014
7860,1015,1016
7861,1015,1018
7862,1013,1015
7863,1010,1012
7864,1005,1008
7865,1001,1008
7866,1003,1011
7867,1003,1015
7868,1000,1012
7869,1003,1011
7870,1001,1009
7871,999,1011
7872,1001,1013
7873,1003,1015
7874,1000,1013
7875,1004,1012
7876,1000,1013
7877,1002,1017
7878,1002,1024
7879,1005,1034
7880,1006,1041
7881,1007,1042
7882,1007,1039
7883,1005,1033
7884,1003,1022
7885,1005,1008
7886,1005,979
7887,1004,939
7888,1013,891
7889,1024,852
7890,1044,829
7891,1068,828
7892,1092,837
7893,1106,854
7894,1112,877
7895,1107,909
7896,1090,941
7897,1065,971
7898,1038,996
7899,1019,1015
7900,1010,1023
7901,1006,1032
7902,1008,1034
7903,1011,1035
7904,1010,1035
7905,1010,1033
7906,1007,1027
7907,1001,1031
7908,1002,1031
7909,1004,1035
7910,1003,1029
7911,997,1032
7912,1001,1028
7913,1000,1029
7914,1000,1031
7915,1002,1036
7916,1006,1033
7917,1006,1029
7918,1002,1029
7919,1001,1030
7920,1004,1033
7921,1005,1034
7922,1006,1033
7923,1004,1027
7924,1002,1030
7925,1002,1031
7926,1004,1032
7927,1006,1033
7928,1007,1032
7929,1004,1030
7930,1003,1029
7931,1004,1030
7932,1007,1033
7933,1009,1035
7934,1010,1034
7935,1005,1032
7936,1003,1030
7937,1003,1031
7938,1006,1033
7939,1007,1034
7940,1010,1033
7941,1005,1030
7942,1005,1029
7943,1006,1032
7944,1005,1032
7945,1009,1033
7946,1009,1033
7947,1008,1030
7948,1006,1030
7949,1008,1031
7950,1009,1037
7951,1012,1037
7952,1013,1035
7953,1012,1032
7954,1009,1031
7955,1010,1031
7956,1011,1033
7957,1014,1038
7958,1015,1034
7959,1011,1032
7960,1008,1031
7961,1013,1030
7962,1015,1034
7963,1018,1038
7964,1016,1036
7965,1015,1033
7966,1011,1033
7967,1013,1032
7968,1016,1033
7969,1015,1039
7970,1018,1035
7971,1017,1034
7972,1014,1034
7973,1012,1034
7974,1014,1036
7975,1017,1039
7976,1017,1037
7977,1017,1033
7978,1012,1032
7979,1013,1031
7980,1015,1034
7981,1017,1038
7982,1019,1035
7983,1015,1035
7984,1012,1033
7985,1010,1033
7986,1013,1035
7987,1013,1036
7988,1011,1031
7989,1012,1031
7990,1008,1026
7991,1008,1026
7992,1007,1033
7993,1009,1033
7994,1010,1034
7995,1008,1030
7996,1006,1026
7997,1005,1026
7998,1003,1031
7999,1005,1031
8000,1003,1029
8001,1003,1024
8002,1001,1024
8003,1000,1023
8004,1000,1027
8005,1000,1024
8006,1001,1025
8007,1002,1022
8008,999,1019
8009,995,1020
8010,1000,1022
8011,1001,1026
8012,999,1024
8013,997,1020
8014,996,1018
8015,994,1020
8016,997,1021
8017,1001,1022
8018,1001,1022
8019,998,1020
8020,997,1019
8021,995,1020
8022,996,1020
8023,996,1023
8024,997,1021
8025,999,1017
8026,997,1015
8027,995,1018
8028,996,1019
8029,1000,1026
8030,996,1022
8031,996,1019
8032,995,1016
8033,996,1017
8034,999,1019
8035,999,1021
8036,1001,1020
8037,998,1016
8038,995,1017
8039,992,1019
8040,996,1022
8041,999,1020
8042,999,1018
8043,998,1017
8044,995,1017
8045,991,1017
8046,996,1020
8047,999,1022
8048,1001,1017
8049,998,1014
8050,995,1015
8051,995,1013
8052,999,1018
8053,1002,1019
8054,1001,1018
8055,996,1015
8056,996,1012
8057,996,1015
8058,1000,1017
8059,1001,1018
8060,1003,1018
8061,1000,1016
8062,998,1017
8063,998,1018
8064,1000,1017
8065,1001,1020
8066,1002,1021
8067,1001,1014
8068,997,1013
8069,998,1016
8070,999,1017
8071,1003,1020
8072,1003,1020
8073,1001,1017
8074,1000,1015
8075,998,1016
8076,1001,1018
8077,1002,1021
8078,1004,1015
8079,1005,1015
8080,1002,1014
8081,999,1014
8082,1002,1018
8083,1001,1020
8084,1005,1017
8085,1002,1014
8086,1000,1012
8087,1000,1015
8088,1003,1016
8089,1004,1020
8090,1004,1018
8091,1003,1017
8092,1001,1014
8093,999,1015
8094,1001,1015
8095,1006,1018
8096,1001,1019
8097,1002,1016
8098,997,1015
8099,1001,1017
8100,1002,1019
8101,1005,1021
8102,1005,1019
8103,1002,1014
8104,1000,1014
8105,997,1016
8106,999,1015
8107,1004,1017
8108,1005,1018
8109,1003,1015
8110,999,1014
8111,997,1014
8112,1003,1017
8113,1004,1019
8114,1004,1019
8115,1000,1014
8116,999,1014
8117,999,1018
8118,1001,1017
8119,1005,1018
8120,1003,1016
8121,1003,1015
8122,1000,1012
8123,998,1015
8124,1000,1017
8125,1003,1021
8126,1004,1017
8127,1002,1014
8128,1000,1014
8129,1000,1015
8130,1002,1019
8131,1003,1020
8132,1007,1017
8133,1005,1015
8134,1003,1015
8135,1005,1019
8136,1008,1021
8137,1012,1026
8138,1013,1027
8139,1011,1024
8140,1013,1024
8141,1014,1024
8142,1018,1030
8143,1024,1031
8144,1023,1031
8145,1024,1028
8146,1023,1024
8147,1028,1024
8148,1031,1022
8149,1036,1020
8150,1040,1014
8151,1041,1009
8152,1039,1004
8153,1042,1004
8154,1044,1007
8155,1043,1009
8156,1043,1006
8157,1038,1004
8158,1035,1006
8159,1032,1007
8160,1031,1012
8161,1031,1017
8162,1030,1016
8163,1026,1013
8164,1016,1008
8165,1016,1008
8166,1013,1010
8167,1012,1014
8168,1009,1012
8169,1003,1010
8170,999,1006
8171,998,1008
8172,999,1012
8173,999,1010
8174,999,1010
8175,997,1008
8176,993,1009
8177,991,1008
8178,995,1011
8179,997,1014
8180,995,1014
8181,992,1010
8182,995,1011
8183,995,1013
8184,995,1016
8185,999,1021
8186,1001,1029
8187,1000,1034
8188,998,1037
8189,999,1035
8190,1002,1025
8191,1005,1007
8192,1005,973
8193,1004,928
8194,1006,884
8195,1015,852
8196,1037,831
8197,1060,829
8198,1081,839
8199,1095,857
8200,1101,883
8201,1097,910
8202,1081,935
8203,1061,961
8204,1039,984
8205,1022,1001
8206,1008,1018
8207,1001,1027
8208,998,1032
8209,1003,1035
8210,1002,1031
8211,1000,1030
8212,1000,1027
8213,1000,1029
8214,998,1032
8215,1001,1034
8216,1000,1032
8217,998,1030
8218,996,1027
8219,995,1027
8220,998,1029
8221,1000,1032
8222,999,1031
8223,996,1028
8224,994,1026
8225,994,1028
8226,997,1032
8227,1001,1032
8228,1000,1028
8229,999,1025
8230,998,1026
8231,995,1027
8232,999,1030
8233,1003,1033
8234,1002,1032
8235,1002,1028
8236,1002,1024
8237,1000,1026
8238,1002,1029
8239,1006,1032
8240,1004,1030
8241,1003,1029
8242,1000,1029
8243,1000,1028
8244,1001,1031
8245,1006,1035
8246,1007,1032
8247,1006,1028
8248,1006,1028
8249,1004,1030
8250,1007,1032
8251,1009,1030
8252,1010,1031
8253,1007,1027
8254,1004,1027
8255,1005,1029
8256,1006,1033
8257,1008,1033
8258,1009,1033
8259,1007,1027
8260,1002,1028
8261,1007,1031
8262,1007,1033
8263,1012,1036
8264,1007,1033
8265,1010,1032
8266,1005,1031
8267,1006,1035
8268,1008,1034
8269,1011,1036
8270,1011,1034
8271,1010,1030
8272,1009,1029
8273,1008,1030
8274,1011,1035
8275,1010,1037
8276,1010,1035
8277,1010,1034
8278,1011,1032
8279,1009,1032
8280,1011,1037
8281,1012,1038
8282,1012,1035
8283,1013,1034
8284,1009,1034
8285,1008,1033
8286,1009,1038
8287,1009,1039
8288,1013,1037
8289,1006,1032
8290,1003,1032
8291,1000,1031
8292,1002,1036
8293,1007,1037
8294,1006,1031
8295,1005,1031
8296,1001,1027
8297,1001,1028
8298,1000,1028
8299,1004,1030
8300,1002,1027
8301,1000,1027
8302,997,1025
8303,997,1026
8304,997,1030
8305,999,1027
8306,1000,1029
8307,999,1023
8308,995,1021
8309,995,1024
8310,995,1026
8311,997,1027
8312,1000,1026
8313,997,1022
8314,993,1021
8315,993,1023
8316,995,1024
8317,997,1027
8318,1000,1025
8319,995,1022
8320,994,1018
8321,992,1021
8322,994,1022
8323,995,1024
8324,994,1023
8325,995,1020
8326,992,1021
8327,991,1023
8328,994,1023
8329,997,1027
8330,996,1025
8331,994,1021
8332,993,1018
8333,991,1021
8334,992,1022
8335,995,1025
8336,997,1022
8337,995,1022
8338,991,1021
8339,992,1020
8340,993,1021
8341,994,1025
8342,993,1021
8343,992,1019
8344,988,1019
8345,988,1019
8346,991,1020
8347,993,1022
8348,991,1019
8349,989,1017
8350,989,1014
8351,990,1018
8352,991,1019
8353,994,1020
8354,992,1020
8355,994,1017
8356,991,1015
8357,992,1016
8358,994,1020
8359,999,1023
8360,1000,1021
8361,997,1019
8362,993,1013
8363,992,1016
8364,992,1019
8365,998,1020
8366,997,1021
8367,997,1019
8368,994,1016
8369,995,1019
8370,996,1020
8371,995,1023
8372,997,1019
8373,996,1017
8374,995,1016
8375,993,1018
8376,995,1019
8377,998,1022
8378,997,1019
8379,996,1017
8380,996,1014
8381,990,1015
8382,993,1019
8383,997,1019
8384,996,1019
8385,997,1015
8386,994,1016
8387,991,1018
8388,995,1020
8389,997,1021
8390,998,1018
8391,996,1017
8392,995,1014
8393,996,1016
8394,995,1017
8395,998,1020
8396,1000,1020
8397,1002,1018
8398,997,1015
8399,996,1019
8400,999,1020
8401,1001,1021
8402,1001,1022
8403,1000,1017
8404,999,1014
8405,999,1018
8406,1000,1018
8407,1002,1017
8408,1002,1018
8409,998,1020
8410,996,1016
8411,996,1018
8412,997,1020
8413,1001,1021
8414,1001,1021
8415,1001,1020
8416,999,1018
8417,1000,1017
8418,1000,1023
8419,1004,1022
8420,1002,1024
8421,1002,1022
8422,1000,1024
8423,1001,1027
8424,1002,1031
8425,1007,1034
8426,1010,1034
8427,1010,1031
8428,1009,1027
8429,1010,1030
8430,1015,1033
8431,1021,1035
8432,1023,1031
8433,1025,1023
8434,1028,1015
8435,1030,1012
8436,1035,1009
8437,1036,1012
8438,1038,1012
8439,1037,1011
8440,1031,1010
8441,1029,1014
8442,1026,1017
8443,1028,1022
8444,1025,1021
8445,1021,1019
8446,1015,1018
8447,1013,1015
8448,1009,1018
8449,1006,1018
8450,1002,1015
8451,995,1014
8452,992,1011
8453,989,1012
8454,992,1017
8455,993,1022
8456,995,1018
8457,990,1015
8458,988,1012
8459,989,1013
8460,991,1016
8461,994,1020
8462,992,1018
8463,989,1015
8464,990,1018
8465,992,1024
8466,993,1036
8467,994,1043
8468,996,1042
8469,991,1034
8470,992,1018
8471,991,994
8472,990,958
8473,995,912
8474,1005,865
8475,1019,833
8476,1037,820
8477,1057,827
8478,1080,842
8479,1094,871
8480,1102,898
8481,1090,926
8482,1064,955
8483,1032,991
8484,1009,1017
8485,998,1033
8486,992,1036
8487,993,1032
8488,989,1033
8489,990,1033
8490,991,1034
8491,992,1033
8492,992,1034
8493,987,1027
8494,986,1026
8495,984,1029
8496,986,1031
8497,987,1033
8498,989,1031
8499,985,1027
8500,985,1026
8501,985,1028
8502,987,1027
8503,990,1030
8504,987,1029
8505,987,1025
8506,985,1027
8507,984,1027
8508,986,1027
8509,987,1031
8510,988,1028
8511,987,1028
8512,984,1025
8513,986,1026
8514,986,1029
8515,988,1030
8516,992,1029
8517,988,1024
8518,986,1024
8519,986,1025
8520,987,1028
8521,987,1029
8522,989,1027
8523,987,1026
8524,988,1025
8525,986,1025
8526,988,1027
8527,990,1029
8528,992,1029
8529,989,1025
8530,984,1026
8531,985,1028
8532,986,1026
8533,991,1030
8534,993,1028
8535,988,1025
8536,987,1024
8537,986,1028
8538,990,1031
8539,989,1033
8540,993,1033
8541,990,1030
8542,989,1024
8543,988,1029
8544,991,1031
8545,994,1033
8546,993,1030
8547,993,1029
8548,990,1030
8549,989,1028
8550,992,1031
8551,993,1031
8552,995,1031
8553,991,1030
8554,988,1028
8555,990,1028
8556,991,1031
8557,992,1034
8558,992,1030
8559,992,1029
8560,992,1027
8561,988,1029
8562,991,1030
8563,994,1033
8564,991,1030
8565,986,1027
8566,982,1024
8567,982,1027
8568,986,1028
8569,986,1030
8570,985,1027
8571,982,1026
8572,981,1022
8573,976,1024
8574,978,1025
8575,982,1026
8576,981,1023
8577,981,1022
8578,975,1018
8579,976,1019
8580,976,1024
8581,980,1026
8582,979,1026
8583,979,1022
8584,977,1020
8585,977,1020
8586,978,1025
8587,980,1025
8588,980,1023
8589,977,1021
8590,974,1018
8591,970,1018
8592,973,1021
8593,977,1023
8594,977,1021
8595,975,1019
8596,975,1018
8597,971,1019
8598,974,1020
8599,977,1022
8600,977,1024
8601,974,1019
8602,973,1017
8603,971,1020
8604,974,1021
8605,976,1023
8606,973,1023
8607,972,1020
8608,970,1017
8609,970,1019
8610,976,1020
8611,976,1024
8612,978,1020
8613,976,1020
8614,974,1017
8615,975,1016
8616,973,1019
8617,978,1022
8618,976,1019
8619,975,1016
