'sample #','MLII','V1'
0,838,992
1,838,992
2,838,992
3,838,992
4,838,992
5,838,992
6,838,992
7,838,992
8,839,992
9,839,990
10,840,992
11,841,992
12,842,994
13,844,995
14,849,997
15,850,998
16,854,999
17,856,998
18,861,998
19,861,994
20,863,990
21,867,988
22,869,989
23,870,988
24,876,987
25,877,986
26,882,986
27,884,986
28,889,986
29,890,985
30,892,982
31,893,979
32,891,977
33,892,972
34,891,970
35,891,970
36,892,970
37,890,969
38,894,971
39,893,972
40,896,973
41,898,970
42,896,967
43,897,964
44,895,962
45,894,961
46,892,959
47,891,961
48,890,961
49,891,962
50,892,961
51,894,963
52,895,962
53,894,960
54,894,961
55,894,958
56,892,955
57,890,956
58,889,954
59,888,954
60,887,956
61,886,959
62,890,958
63,889,959
64,890,960
65,889,960
66,886,958
67,885,956
68,885,955
69,888,951
70,884,952
71,885,951
72,884,953
73,885,954
74,884,956
75,886,958
76,886,957
77,885,956
78,886,957
79,885,954
80,885,954
81,884,952
82,884,952
83,884,953
84,884,952
85,884,954
86,887,956
87,887,958
88,889,957
89,890,955
90,891,954
91,890,954
92,889,950
93,890,950
94,889,950
95,887,949
96,888,950
97,888,951
98,892,952
99,893,952
100,895,954
101,893,954
102,898,949
103,896,949
104,898,948
105,896,948
106,894,947
107,894,947
108,892,947
109,894,948
110,895,948
111,899,951
112,901,950
113,899,953
114,899,951
115,900,947
116,897,947
117,897,944
118,897,943
119,897,943
120,898,944
121,899,945
122,899,945
123,903,948
124,905,950
125,908,948
126,909,950
127,911,947
128,910,943
129,911,944
130,909,943
131,911,944
132,914,946
133,914,948
134,917,947
135,920,951
136,923,951
137,925,950
138,927,951
139,928,948
140,928,945
141,930,945
142,929,940
143,931,939
144,935,938
145,934,937
146,937,937
147,938,935
148,937,934
149,935,930
150,931,931
151,930,930
152,925,929
153,921,929
154,918,928
155,914,933
156,914,932
157,909,935
158,912,939
159,911,940
160,911,944
161,909,941
162,904,941
163,902,942
164,899,941
165,896,939
166,895,937
167,894,938
168,897,940
169,898,943
170,900,942
171,903,943
172,905,943
173,903,943
174,906,941
175,906,940
176,905,937
177,903,938
178,903,935
179,899,934
180,900,937
181,905,938
182,907,940
183,908,939
184,911,941
185,913,939
186,914,939
187,915,937
188,920,936
189,923,935
190,930,931
191,937,933
192,953,934
193,968,936
194,990,939
195,1014,937
196,1037,937
197,1072,934
198,1106,925
199,1147,915
200,1186,900
201,1220,878
202,1247,854
203,1270,833
204,1291,808
205,1313,786
206,1324,766
207,1315,742
208,1272,723
209,1195,704
210,1105,699
211,1012,702
212,934,719
213,882,740
214,856,764
215,850,791
216,860,814
217,871,835
218,878,854
219,885,868
220,890,884
221,891,896
222,891,909
223,889,919
224,886,927
225,883,930
226,880,933
227,880,933
228,879,934
229,876,935
230,879,940
231,882,941
232,882,945
233,877,945
234,879,945
235,880,940
236,878,940
237,877,940
238,874,938
239,875,939
240,873,942
241,871,942
242,872,944
243,873,944
244,872,946
245,874,947
246,871,948
247,871,945
248,870,944
249,870,943
250,867,944
251,869,946
252,869,944
253,869,948
254,869,948
255,869,949
256,869,951
257,870,954
258,870,951
259,868,949
260,867,948
261,865,945
262,862,948
263,860,947
264,859,949
265,861,950
266,861,951
267,862,952
268,863,954
269,864,953
270,861,952
271,860,953
272,859,950
273,856,950
274,855,950
275,851,953
276,852,953
277,849,953
278,853,956
279,853,960
280,852,960
281,853,960
282,852,961
283,850,961
284,846,961
285,844,961
286,844,961
287,845,959
288,845,961
289,842,967
290,843,966
291,846,969
292,847,974
293,851,972
294,850,975
295,848,975
296,847,973
297,846,974
298,844,971
299,848,972
300,849,973
301,851,976
302,856,978
303,858,980
304,863,980
305,865,978
306,869,976
307,872,974
308,872,974
309,874,972
310,876,970
311,878,969
312,879,969
313,884,970
314,887,970
315,893,969
316,895,971
317,897,968
318,898,964
319,902,962
320,902,960
321,901,957
322,901,955
323,900,953
324,899,953
325,900,952
326,904,954
327,905,952
328,909,953
329,908,951
330,908,950
331,905,948
332,906,946
333,907,942
334,905,942
335,906,943
336,905,944
337,903,945
338,906,944
339,903,945
340,906,945
341,905,947
342,906,944
343,903,942
344,904,941
345,902,939
346,902,939
347,902,938
348,902,940
349,902,941
350,900,941
351,901,943
352,902,942
353,904,941
354,903,941
355,898,942
356,899,941
357,896,938
358,895,936
359,895,937
360,896,937
361,898,939
362,897,943
363,899,944
364,899,945
365,902,943
366,900,944
367,900,940
368,900,940
369,895,941
370,894,940
371,892,939
372,894,940
373,893,942
374,898,945
375,901,944
376,902,946
377,902,942
378,903,943
379,902,944
380,901,940
381,900,940
382,900,939
383,898,938
384,897,939
385,899,942
386,903,943
387,907,943
388,908,944
389,908,943
390,906,942
391,906,942
392,906,939
393,907,940
394,903,938
395,905,938
396,903,939
397,904,941
398,904,944
399,906,941
400,909,945
401,912,942
402,911,943
403,914,941
404,914,940
405,912,937
406,912,938
407,910,938
408,913,940
409,915,938
410,917,942
411,919,942
412,921,945
413,921,946
414,923,945
415,922,944
416,925,942
417,924,942
418,924,941
419,926,942
420,929,944
421,933,943
422,936,945
423,938,946
424,939,944
425,945,942
426,947,938
427,944,932
428,944,929
429,940,924
430,935,922
431,933,921
432,930,926
433,927,927
434,926,931
435,920,935
436,919,938
437,919,938
438,915,937
439,912,937
440,908,938
441,904,937
442,899,935
443,895,937
444,900,938
445,898,937
446,902,938
447,901,941
448,904,942
449,905,942
450,905,941
451,907,942
452,904,936
453,902,935
454,900,933
455,902,934
456,903,934
457,904,937
458,904,938
459,907,937
460,910,940
461,915,937
462,917,935
463,919,935
464,926,935
465,930,931
466,942,930
467,957,929
468,973,931
469,995,934
470,1021,932
471,1046,934
472,1080,931
473,1110,923
474,1144,915
475,1180,903
476,1210,887
477,1237,866
478,1257,846
479,1274,825
480,1289,807
481,1305,790
482,1313,769
483,1313,752
484,1289,731
485,1239,712
486,1166,698
487,1082,692
488,1004,694
489,939,707
490,894,729
491,871,755
492,868,780
493,870,803
494,877,824
495,879,839
496,885,854
497,886,866
498,886,874
499,888,887
500,886,901
501,886,911
502,882,921
503,882,925
504,880,933
505,878,934
506,879,936
507,881,938
508,881,937
509,882,940
510,881,940
511,879,942
512,879,940
513,876,939
514,875,937
515,873,941
516,872,940
517,871,942
518,875,946
519,874,947
520,875,948
521,875,949
522,873,947
523,875,946
524,872,944
525,869,944
526,870,944
527,867,944
528,866,945
529,869,946
530,868,947
531,872,950
532,871,951
533,870,951
534,869,949
535,871,950
536,866,950
537,867,947
538,865,947
539,865,947
540,866,948
541,863,951
542,867,951
543,865,954
544,866,954
545,866,955
546,865,953
547,864,954
548,862,953
549,860,951
550,859,951
551,858,951
552,855,954
553,855,953
554,856,957
555,857,959
556,858,961
557,858,961
558,856,960
559,854,959
560,851,960
561,849,958
562,844,960
563,844,960
564,846,962
565,847,962
566,847,968
567,848,971
568,850,971
569,848,973
570,849,974
571,851,972
572,847,971
573,847,972
574,847,972
575,846,975
576,847,975
577,850,979
578,850,981
579,854,979
580,857,984
581,859,980
582,863,980
583,866,980
584,867,978
585,872,977
586,870,975
587,875,975
588,878,975
589,880,974
590,884,975
591,888,974
592,892,975
593,895,973
594,894,972
595,898,970
596,896,965
597,898,963
598,898,960
599,896,961
600,899,959
601,898,959
602,902,961
603,903,961
604,906,958
605,907,959
606,907,958
607,906,957
608,907,953
609,903,950
610,902,949
611,899,950
612,901,950
613,903,951
614,904,950
615,904,951
616,905,949
617,907,949
618,905,946
619,903,948
620,902,946
621,901,946
622,903,942
623,901,942
624,897,939
625,899,945
626,900,945
627,900,947
628,902,947
629,905,949
630,904,947
631,903,945
632,899,945
633,899,942
634,894,942
635,894,940
636,893,941
637,896,944
638,894,945
639,896,946
640,895,948
641,900,947
642,900,948
643,896,947
644,896,945
645,897,944
646,895,945
647,893,946
648,893,945
649,891,946
650,889,946
651,892,949
652,892,950
653,893,950
654,896,947
655,896,946
656,895,945
657,891,946
658,891,945
659,891,944
660,894,944
661,892,947
662,895,948
663,898,950
664,900,950
665,902,951
666,902,948
667,902,949
668,902,947
669,901,945
670,901,947
671,902,946
672,900,946
673,902,947
674,901,947
675,902,948
676,906,953
677,907,951
678,906,950
679,909,951
680,909,948
681,908,943
682,908,942
683,908,945
684,909,946
685,912,948
686,913,949
687,915,952
688,918,953
689,919,953
690,919,950
691,920,951
692,922,950
693,920,948
694,920,948
695,920,949
696,924,949
697,926,951
698,928,954
699,931,955
700,936,953
701,939,950
702,941,949
703,941,948
704,942,941
705,940,938
706,938,934
707,936,931
708,935,932
709,935,931
710,933,932
711,933,933
712,931,937
713,929,938
714,926,938
715,922,940
716,921,940
717,917,939
718,913,939
719,912,939
720,908,941
721,903,944
722,905,944
723,903,946
724,905,950
725,904,947
726,903,947
727,904,945
728,902,946
729,899,945
730,898,943
731,901,941
732,901,943
733,903,944
734,904,944
735,906,945
736,907,947
737,910,945
738,909,945
739,911,945
740,913,944
741,914,942
742,916,939
743,919,940
744,923,941
745,933,940
746,944,942
747,960,943
748,977,943
749,999,947
750,1023,943
751,1050,940
752,1083,934
753,1118,922
754,1159,912
755,1199,896
756,1230,876
757,1259,855
758,1279,832
759,1295,810
760,1309,791
761,1313,766
762,1298,745
763,1261,722
764,1201,706
765,1129,693
766,1053,689
767,984,695
768,931,714
769,897,734
770,881,762
771,876,785
772,880,807
773,882,826
774,884,839
775,884,851
776,884,860
777,883,871
778,885,883
779,886,893
780,886,908
781,888,919
782,887,929
783,888,937
784,887,945
785,886,946
786,885,946
787,883,943
788,884,943
789,885,945
790,878,943
791,877,943
792,877,949
793,875,950
794,876,952
795,878,952
796,876,954
797,880,951
798,877,952
799,879,950
800,878,949
801,876,949
802,875,949
803,872,949
804,873,950
805,874,952
806,872,954
807,874,955
808,874,958
809,876,955
810,874,957
811,875,955
812,872,955
813,870,953
814,867,953
815,865,953
816,865,955
817,866,955
818,866,959
819,867,960
820,869,961
821,868,963
822,868,960
823,867,958
824,866,957
825,861,958
826,861,958
827,857,958
828,859,959
829,858,961
830,859,962
831,859,967
832,860,967
833,860,968
834,858,967
835,859,967
836,857,967
837,855,966
838,853,967
839,851,967
840,849,971
841,852,972
842,852,973
843,850,974
844,851,979
845,851,980
846,854,978
847,852,978
848,851,980
849,849,980
850,850,979
851,851,977
852,850,980
853,851,983
854,852,989
855,854,988
856,856,990
857,857,992
858,860,989
859,861,989
860,862,986
861,864,986
862,865,984
863,866,987
864,870,988
865,872,986
866,874,987
867,877,986
868,881,990
869,888,989
870,890,984
871,891,982
872,893,981
873,895,978
874,896,976
875,895,975
876,896,974
877,899,975
878,902,974
879,905,972
880,904,975
881,907,972
882,908,969
883,908,965
884,905,964
885,905,961
886,906,963
887,908,958
888,907,957
889,908,959
890,909,962
891,909,961
892,912,964
893,913,960
894,910,960
895,911,957
896,908,954
897,906,954
898,905,953
899,904,951
900,906,952
901,903,952
902,905,956
903,907,954
904,908,956
905,908,953
906,908,955
907,905,953
908,904,953
909,904,949
910,903,949
911,901,950
912,900,951
913,901,954
914,904,954
915,903,955
916,903,957
917,907,956
918,905,954
919,903,954
920,901,952
921,901,951
922,900,953
923,900,950
924,899,953
925,900,952
926,900,954
927,902,956
928,903,958
929,904,958
930,902,957
931,902,955
932,900,956
933,900,957
934,898,954
935,898,952
936,896,955
937,899,957
938,901,959
939,903,959
940,904,961
941,906,960
942,906,959
943,905,958
944,905,957
945,905,955
946,905,955
947,905,953
948,906,956
949,906,955
950,908,956
951,906,960
952,911,961
953,911,959
954,912,959
955,914,958
956,913,957
957,910,957
958,907,955
959,910,953
960,911,958
961,914,958
962,914,958
963,918,959
964,923,964
965,924,963
966,926,961
967,925,961
968,924,962
969,925,960
970,922,961
971,920,960
972,924,960
973,927,962
974,930,966
975,932,967
976,933,968
977,939,969
978,942,967
979,945,966
980,944,964
981,945,960
982,944,957
983,945,957
984,944,954
985,945,952
986,941,953
987,943,950
988,945,950
989,944,953
990,941,951
991,936,955
992,933,954
993,929,952
994,926,957
995,922,956
996,917,961
997,916,958
998,916,960
999,915,965
1000,914,965
1001,912,963
1002,909,965
1003,908,963
1004,909,962
1005,907,962
1006,907,961
1007,906,963
1008,906,961
1009,909,963
1010,908,965
1011,908,963
1012,913,965
1013,913,965
1014,917,967
1015,916,962
1016,915,960
1017,916,959
1018,918,956
1019,918,957
1020,925,959
1021,930,960
1022,939,964
1023,955,964
1024,979,964
1025,1005,964
1026,1035,960
1027,1070,957
1028,1108,949
1029,1149,941
1030,1188,926
1031,1222,910
1032,1249,887
1033,1268,867
1034,1283,842
1035,1298,823
1036,1304,801
1037,1293,776
1038,1260,755
1039,1198,735
1040,1119,723
1041,1036,719
1042,964,727
1043,908,748
1044,878,773
1045,864,800
1046,868,827
1047,874,849
1048,881,865
1049,889,878
1050,893,891
1051,895,905
1052,894,917
1053,893,929
1054,894,940
1055,893,953
1056,891,958
1057,889,966
1058,889,968
1059,889,970
1060,890,970
1061,891,969
1062,891,968
1063,892,970
1064,887,969
1065,886,971
1066,882,970
1067,885,973
1068,884,973
1069,884,974
1070,886,977
1071,885,979
1072,884,978
1073,884,978
1074,885,978
1075,883,975
1076,883,975
1077,881,975
1078,878,972
1079,877,976
1080,878,978
1081,879,979
1082,880,981
1083,876,982
1084,876,984
1085,877,981
1086,878,981
1087,879,979
1088,877,981
1089,877,977
1090,874,978
1091,874,983
1092,874,981
1093,874,982
1094,872,985
1095,873,986
1096,873,986
1097,873,986
1098,871,986
1099,870,984
1100,867,983
1101,865,984
1102,864,983
1103,863,985
1104,862,986
1105,860,988
1106,860,991
1107,861,993
1108,861,995
1109,860,992
1110,859,995
1111,857,990
1112,857,993
1113,855,992
1114,852,994
1115,853,995
1116,854,1000
1117,854,1002
1118,854,1003
1119,853,1007
1120,858,1006
1121,857,1008
1122,857,1006
1123,857,1008
1124,856,1009
1125,856,1008
1126,856,1008
1127,856,1012
1128,860,1010
1129,861,1014
1130,867,1017
1131,868,1016
1132,871,1016
1133,874,1013
1134,876,1014
1135,878,1012
1136,879,1009
1137,884,1009
1138,884,1008
1139,888,1009
1140,890,1010
1141,897,1009
1142,900,1012
1143,903,1011
1144,906,1008
1145,908,1005
1146,908,1004
1147,907,999
1148,908,997
1149,907,996
1150,905,994
1151,910,995
1152,909,993
1153,911,993
1154,916,994
1155,916,992
1156,916,994
1157,916,989
1158,917,988
1159,914,987
1160,911,983
1161,913,983
1162,910,982
1163,910,981
1164,911,984
1165,915,984
1166,915,982
1167,916,985
1168,916,986
1169,915,982
1170,913,982
1171,909,980
1172,908,977
1173,906,978
1174,907,975
1175,906,975
1176,907,976
1177,911,980
1178,911,981
1179,911,981
1180,912,982
1181,909,980
1182,911,978
1183,907,975
1184,905,976
1185,903,975
1186,903,976
1187,901,975
1188,902,976
1189,902,980
1190,904,980
1191,904,980
1192,905,982
1193,903,981
1194,904,980
1195,901,977
1196,900,978
1197,898,976
1198,899,976
1199,900,976
1200,900,976
1201,900,978
1202,902,981
1203,903,982
1204,905,983
1205,905,981
1206,907,981
1207,906,978
1208,904,978
1209,904,975
1210,903,974
1211,904,976
1212,904,977
1213,906,978
1214,906,980
1215,906,979
1216,909,981
1217,911,977
1218,911,978
1219,907,975
1220,909,975
1221,908,974
1222,910,973
1223,908,975
1224,908,976
1225,910,976
1226,912,977
1227,911,977
1228,916,979
1229,916,978
1230,916,976
1231,917,974
1232,915,973
1233,916,972
1234,915,970
1235,914,971
1236,917,972
1237,917,973
1238,922,976
1239,922,976
1240,927,979
1241,927,975
1242,926,977
1243,932,975
1244,930,975
1245,930,975
1246,931,975
1247,931,975
1248,934,976
1249,938,977
1250,940,976
1251,944,975
1252,944,974
1253,946,967
1254,942,965
1255,942,961
1256,938,956
1257,938,957
1258,935,953
1259,932,957
1260,932,959
1261,927,961
1262,925,966
1263,922,968
1264,922,968
1265,922,968
1266,918,966
1267,915,967
1268,911,967
1269,907,965
1270,906,968
1271,901,968
1272,900,970
1273,899,969
1274,901,973
1275,903,974
1276,904,973
1277,906,971
1278,907,973
1279,904,971
1280,906,969
1281,906,969
1282,903,967
1283,905,966
1284,905,970
1285,905,970
1286,908,973
1287,910,972
1288,913,970
1289,912,970
1290,915,969
1291,917,967
1292,921,967
1293,924,964
1294,932,963
1295,943,965
1296,961,966
1297,983,967
1298,1008,971
1299,1039,969
1300,1077,969
1301,1116,963
1302,1156,954
1303,1195,939
1304,1225,917
1305,1250,892
1306,1268,870
1307,1282,846
1308,1295,825
1309,1294,802
1310,1268,778
1311,1205,759
1312,1120,741
1313,1024,740
1314,935,750
1315,874,770
1316,843,802
1317,837,830
1318,844,854
1319,857,873
1320,872,891
1321,885,904
1322,893,917
1323,896,934
1324,895,948
1325,893,956
1326,890,963
1327,889,966
1328,885,969
1329,882,968
1330,880,967
1331,877,970
1332,875,969
1333,878,973
1334,879,974
1335,879,976
1336,884,978
1337,883,975
1338,881,977
1339,881,975
1340,879,975
1341,874,975
1342,873,973
1343,873,975
1344,871,975
1345,874,979
1346,876,979
1347,875,981
1348,877,979
1349,876,981
1350,874,981
1351,873,978
1352,870,977
1353,870,976
1354,870,977
1355,868,978
1356,867,979
1357,868,979
1358,867,983
1359,869,984
1360,870,986
1361,870,985
1362,868,984
1363,866,982
1364,864,983
1365,863,980
1366,862,980
1367,862,983
1368,860,982
1369,857,986
1370,860,986
1371,860,987
1372,862,990
1373,858,988
1374,856,989
1375,857,990
1376,856,986
1377,852,987
1378,850,988
1379,851,990
1380,849,991
1381,850,995
1382,849,995
1383,849,999
1384,848,999
1385,850,1000
1386,849,1002
1387,851,1003
1388,845,1003
1389,846,1004
1390,847,1001
1391,847,1003
1392,852,1005
1393,851,1009
1394,854,1010
1395,858,1011
1396,862,1012
1397,863,1009
1398,866,1010
1399,870,1009
1400,872,1009
1401,872,1006
1402,875,1007
1403,879,1005
1404,880,1005
1405,886,1003
1406,890,1007
1407,895,1008
1408,898,1006
1409,898,999
1410,900,1000
1411,901,997
1412,897,993
1413,900,992
1414,901,990
1415,900,989
1416,901,988
1417,902,987
1418,905,989
1419,909,990
1420,910,989
1421,912,989
1422,912,983
1423,908,983
1424,907,982
1425,907,979
1426,904,979
1427,905,979
1428,904,979
1429,903,981
1430,907,982
1431,908,984
1432,910,983
1433,909,980
1434,908,982
1435,906,980
1436,902,977
1437,901,976
1438,898,974
1439,900,974
1440,900,978
1441,902,977
1442,901,979
1443,902,980
1444,904,980
1445,904,980
1446,902,977
1447,902,976
1448,901,976
1449,900,976
1450,898,975
1451,898,976
1452,896,977
1453,894,978
1454,897,977
1455,898,979
1456,898,980
1457,899,978
1458,897,976
1459,898,975
1460,896,975
1461,896,976
1462,896,973
1463,895,974
1464,893,975
1465,894,976
1466,895,979
1467,900,978
1468,898,981
1469,899,979
1470,900,977
1471,899,975
1472,899,974
1473,898,975
1474,899,974
1475,899,975
1476,900,976
1477,901,974
1478,904,977
1479,903,976
1480,906,978
1481,905,979
1482,904,976
1483,905,974
1484,906,974
1485,903,973
1486,904,970
1487,902,971
1488,903,974
1489,901,974
1490,902,976
1491,903,978
1492,909,977
1493,910,976
1494,908,975
1495,906,976
1496,907,973
1497,907,971
1498,909,970
1499,909,970
1500,911,973
1501,913,973
1502,914,974
1503,916,975
1504,919,976
1505,916,975
1506,917,973
1507,918,974
1508,917,971
1509,918,972
1510,918,971
1511,917,975
1512,920,976
1513,921,976
1514,925,978
1515,926,977
1516,932,977
1517,936,974
1518,938,971
1519,936,967
1520,936,961
1521,935,959
1522,934,952
1523,929,952
1524,930,951
1525,925,955
1526,926,957
1527,926,960
1528,922,964
1529,919,965
1530,914,964
1531,912,966
1532,908,964
1533,904,962
1534,901,964
1535,897,967
1536,897,966
1537,895,970
1538,896,970
1539,900,970
1540,901,972
1541,901,970
1542,901,968
1543,901,966
1544,902,964
1545,899,963
1546,897,962
1547,898,965
1548,897,964
1549,898,965
1550,900,967
1551,901,967
1552,905,969
1553,906,967
1554,907,966
1555,909,963
1556,910,962
1557,913,961
1558,917,959
1559,924,961
1560,933,962
1561,948,965
1562,968,965
1563,987,969
1564,1014,970
1565,1041,969
1566,1071,963
1567,1106,961
1568,1140,952
1569,1172,939
1570,1202,924
1571,1227,907
1572,1244,885
1573,1263,868
1574,1276,849
1575,1294,836
1576,1300,816
1577,1286,795
1578,1252,778
1579,1194,758
1580,1121,744
1581,1044,742
1582,975,740
1583,919,747
1584,883,761
1585,863,783
1586,859,803
1587,861,826
1588,867,844
1589,870,857
1590,873,872
1591,876,882
1592,878,896
1593,879,909
1594,879,922
1595,880,939
1596,881,947
1597,881,958
1598,879,960
1599,881,963
1600,881,964
1601,881,963
1602,879,963
1603,876,963
1604,875,963
1605,874,962
1606,871,961
1607,869,964
1608,869,962
1609,871,965
1610,870,967
1611,871,967
1612,872,970
1613,872,971
1614,871,969
1615,870,969
1616,867,965
1617,868,965
1618,866,964
1619,866,964
1620,864,967
1621,865,968
1622,867,969
1623,866,971
1624,870,973
1625,867,969
1626,865,970
1627,864,968
1628,861,967
1629,863,967
1630,859,966
1631,859,966
1632,858,967
1633,859,971
1634,861,973
1635,859,973
1636,861,973
1637,857,974
1638,857,973
1639,857,972
1640,857,970
1641,855,970
1642,853,969
1643,851,970
1644,850,971
1645,851,972
1646,852,975
1647,852,978
1648,851,978
1649,851,978
1650,848,978
1651,849,975
1652,848,975
1653,843,973
1654,843,975
1655,841,975
1656,841,978
1657,841,980
1658,841,982
1659,842,984
1660,844,988
1661,847,985
1662,847,985
1663,846,984
1664,844,984
1665,847,985
1666,846,985
1667,846,987
1668,848,988
1669,849,989
1670,855,989
1671,855,993
1672,856,991
1673,861,990
1674,860,990
1675,863,987
1676,866,987
1677,870,986
1678,874,984
1679,876,983
1680,884,983
1681,886,983
1682,890,982
1683,894,982
1684,899,982
1685,901,979
1686,902,976
1687,904,973
1688,905,969
1689,904,967
1690,903,967
1691,904,967
1692,905,966
1693,906,966
1694,908,966
1695,908,966
1696,911,967
1697,910,964
1698,911,962
1699,912,962
1700,909,958
1701,911,955
1702,909,954
1703,909,956
1704,910,956
1705,911,957
1706,909,956
1707,911,958
1708,914,957
1709,912,956
1710,912,955
1711,912,953
1712,910,950
1713,911,950
1714,909,950
1715,908,952
1716,908,951
1717,908,952
1718,910,951
1719,913,952
1720,909,955
1721,909,951
1722,908,950
1723,905,949
1724,905,947
1725,906,945
1726,902,946
1727,902,946
1728,902,948
1729,905,950
1730,906,951
1731,907,952
1732,908,952
1733,906,949
1734,908,950
1735,906,948
1736,906,947
1737,904,947
1738,904,947
1739,902,947
1740,903,946
1741,903,950
1742,906,950
1743,908,952
1744,910,951
1745,910,950
1746,910,952
1747,907,949
1748,910,948
1749,908,947
1750,909,945
1751,907,945
1752,908,946
1753,909,949
1754,911,947
1755,912,952
1756,912,952
1757,915,950
1758,915,950
1759,917,946
1760,914,944
1761,914,946
1762,912,942
1763,913,944
1764,915,945
1765,913,946
1766,916,947
1767,917,948
1768,920,950
1769,923,948
1770,920,947
1771,921,945
1772,920,942
1773,921,942
1774,920,940
1775,919,942
1776,922,943
1777,922,943
1778,925,946
1779,928,946
1780,931,948
1781,932,946
1782,933,946
1783,934,945
1784,932,945
1785,931,945
1786,931,943
1787,932,946
1788,935,947
1789,937,947
1790,941,949
1791,943,949
1792,948,949
1793,951,947
1794,953,946
1795,953,940
1796,952,939
1797,950,935
1798,950,929
1799,947,928
1800,944,928
1801,943,927
1802,942,928
1803,943,933
1804,943,933
1805,942,935
1806,941,935
1807,935,935
1808,931,934
1809,927,934
1810,926,936
1811,923,936
1812,922,936
1813,921,939
1814,918,943
1815,920,942
1816,919,944
1817,916,944
1818,913,943
1819,913,941
1820,912,942
1821,912,939
1822,913,937
1823,911,939
1824,913,941
1825,913,939
1826,913,942
1827,917,944
1828,916,944
1829,917,942
1830,921,942
1831,921,940
1832,920,937
1833,920,936
1834,923,935
1835,923,935
1836,926,935
1837,929,938
1838,935,940
1839,939,942
1840,950,943
1841,960,939
1842,973,938
1843,989,937
1844,1007,934
1845,1029,934
1846,1053,932
1847,1082,929
1848,1118,925
1849,1160,918
1850,1196,909
1851,1232,889
1852,1261,869
1853,1288,847
1854,1308,826
1855,1329,803
1856,1347,781
1857,1351,760
1858,1338,740
1859,1293,720
1860,1228,706
1861,1146,699
1862,1067,697
1863,994,706
1864,941,722
1865,909,740
1866,894,762
1867,892,785
1868,892,805
1869,893,819
1870,893,832
1871,892,845
1872,897,858
1873,898,871
1874,900,886
1875,903,900
1876,904,912
1877,904,925
1878,903,932
1879,901,933
1880,899,935
1881,896,931
1882,894,934
1883,892,936
1884,891,937
1885,893,940
1886,890,942
1887,894,944
1888,895,948
1889,894,947
1890,892,944
1891,892,946
1892,890,943
1893,890,942
1894,885,942
1895,887,944
1896,886,946
1897,884,945
1898,883,946
1899,886,948
1900,887,953
1901,888,950
1902,888,949
1903,887,947
1904,885,948
1905,883,945
1906,880,945
1907,879,947
1908,877,948
1909,878,950
1910,878,950
1911,877,952
1912,878,953
1913,880,953
1914,879,955
1915,878,951
1916,876,950
1917,875,951
1918,872,950
1919,868,952
1920,867,953
1921,866,954
1922,867,954
1923,869,958
1924,870,959
1925,871,960
1926,868,959
1927,868,959
1928,865,960
1929,864,957
1930,861,958
1931,859,957
1932,859,959
1933,857,960
1934,858,966
1935,858,966
1936,858,971
1937,859,970
1938,856,970
1939,857,969
1940,855,967
1941,858,970
1942,854,970
1943,854,972
1944,856,973
1945,856,975
1946,858,978
1947,861,980
1948,863,981
1949,863,981
1950,867,983
1951,867,981
1952,869,977
1953,870,978
1954,871,976
1955,871,977
1956,874,980
1957,878,978
1958,882,979
1959,888,978
1960,893,979
1961,895,979
1962,899,974
1963,899,973
1964,900,971
1965,899,970
1966,902,966
1967,903,964
1968,908,962
1969,906,964
1970,912,961
1971,912,959
1972,913,960
1973,915,958
1974,915,956
1975,916,953
1976,917,950
1977,916,950
1978,915,947
1979,914,947
1980,915,946
1981,916,948
1982,917,947
1983,916,949
1984,920,949
1985,921,947
1986,918,949
1987,916,945
1988,914,943
1989,912,943
1990,914,942
1991,912,943
1992,912,944
1993,911,945
1994,915,944
1995,914,944
1996,914,946
1997,914,944
1998,913,946
1999,911,943
2000,911,941
2001,909,940
2002,907,941
2003,907,942
2004,907,941
2005,906,942
2006,907,945
2007,908,945
2008,907,947
2009,908,947
2010,904,945
2011,908,943
2012,906,946
2013,907,941
2014,904,942
2015,904,944
2016,903,943
2017,904,944
2018,905,945
2019,905,945
2020,907,947
2021,907,947
2022,909,946
2023,909,945
2024,905,943
2025,907,942
2026,904,943
2027,903,943
2028,904,941
2029,907,943
2030,908,944
2031,910,947
2032,909,949
2033,911,947
2034,910,947
2035,910,943
2036,908,943
2037,909,942
2038,909,941
2039,908,942
2040,910,943
2041,911,945
2042,912,945
2043,912,947
2044,912,947
2045,916,945
2046,916,943
2047,918,945
2048,916,943
2049,920,944
2050,918,940
2051,920,939
2052,920,941
2053,921,942
2054,924,947
2055,924,947
2056,926,950
2057,929,950
2058,929,947
2059,930,948
2060,931,947
2061,930,947
2062,932,944
2063,931,945
2064,933,946
2065,935,947
2066,941,947
2067,943,947
2068,946,946
2069,947,942
2070,949,940
2071,947,935
2072,946,932
2073,943,928
2074,939,924
2075,939,925
2076,935,927
2077,934,928
2078,932,933
2079,930,939
2080,931,938
2081,929,940
2082,925,938
2083,921,939
2084,919,940
2085,916,937
2086,912,937
2087,909,936
2088,904,940
2089,905,941
2090,906,943
2091,907,942
2092,908,945
2093,909,944
2094,909,941
2095,907,940
2096,907,939
2097,904,938
2098,903,935
2099,902,937
2100,903,938
2101,902,940
2102,905,941
2103,907,942
2104,909,943
2105,915,941
2106,916,941
2107,918,940
2108,913,937
2109,918,936
2110,918,932
2111,923,934
2112,928,935
2113,939,936
2114,956,936
2115,974,938
2116,998,937
2117,1029,937
2118,1065,933
2119,1108,925
2120,1149,910
2121,1190,891
2122,1227,869
2123,1258,845
2124,1280,818
2125,1298,795
2126,1312,774
2127,1311,753
2128,1284,731
2129,1237,712
2130,1167,698
2131,1090,688
2132,1015,689
2133,953,701
2134,907,717
2135,883,740
2136,875,765
2137,874,787
2138,880,808
2139,885,824
2140,884,838
2141,885,848
2142,886,860
2143,887,873
2144,888,885
2145,887,900
2146,886,913
2147,881,921
2148,881,931
2149,882,933
2150,881,936
2151,882,937
2152,879,939
2153,884,940
2154,882,940
2155,881,943
2156,880,941
2157,879,939
2158,878,940
2159,876,941
2160,875,940
2161,873,942
2162,873,945
2163,872,946
2164,875,948
2165,877,947
2166,876,946
2167,876,943
2168,873,944
2169,871,943
2170,870,944
2171,868,945
2172,870,946
2173,868,946
2174,869,952
2175,868,950
2176,871,951
2177,869,951
2178,867,949
2179,868,949
2180,868,949
2181,865,947
2182,864,946
2183,860,948
2184,862,949
2185,862,950
2186,863,952
2187,862,955
2188,863,956
2189,862,958
2190,862,954
2191,859,955
2192,859,952
2193,855,954
2194,853,950
2195,853,953
2196,852,955
2197,849,957
2198,850,957
2199,850,960
2200,850,963
2201,849,964
2202,848,965
2203,849,962
2204,845,964
2205,845,963
2206,842,964
2207,841,967
2208,841,965
2209,838,969
2210,841,971
2211,841,974
2212,843,976
2213,845,976
2214,844,979
2215,844,977
2216,845,978
2217,843,976
2218,844,977
2219,840,978
2220,843,979
2221,846,980
2222,850,982
2223,852,986
2224,856,986
2225,858,986
2226,861,984
2227,862,982
2228,864,980
2229,867,980
2230,870,977
2231,872,976
2232,874,974
2233,879,977
2234,881,975
2235,886,977
2236,890,976
2237,893,972
2238,893,973
2239,894,967
2240,896,964
2241,894,963
2242,893,960
2243,892,957
2244,894,958
2245,896,959
2246,896,960
2247,899,959
2248,901,959
2249,902,959
2250,900,957
2251,899,955
2252,898,950
2253,898,950
2254,898,945
2255,898,945
2256,896,948
2257,895,947
2258,895,948
2259,902,950
2260,900,950
2261,902,948
2262,902,950
2263,900,946
2264,897,942
2265,897,943
2266,895,940
2267,894,940
2268,896,942
2269,894,945
2270,897,944
2271,894,946
2272,895,950
2273,896,947
2274,893,946
2275,891,946
2276,891,944
2277,890,942
2278,890,942
2279,889,943
2280,890,943
2281,888,945
2282,891,947
2283,893,948
2284,893,950
2285,893,950
2286,893,947
2287,893,946
2288,892,947
2289,888,947
2290,890,945
2291,888,947
2292,888,946
2293,890,948
2294,891,948
2295,892,951
2296,892,951
2297,896,952
2298,894,948
2299,895,949
2300,895,945
2301,895,947
2302,894,943
2303,895,946
2304,896,945
2305,897,948
2306,897,947
2307,896,950
2308,900,951
2309,904,950
2310,904,948
2311,905,947
2312,905,948
2313,903,946
2314,904,944
2315,905,946
2316,906,947
2317,905,947
2318,908,949
2319,909,952
2320,913,952
2321,913,954
2322,915,954
2323,918,950
2324,916,952
2325,919,950
2326,920,952
2327,920,952
2328,924,951
2329,926,952
2330,931,952
2331,933,950
2332,936,950
2333,938,947
2334,935,944
2335,935,939
2336,930,933
2337,929,933
2338,923,931
2339,919,931
2340,917,936
2341,914,941
2342,914,944
2343,912,946
2344,910,949
2345,909,947
2346,903,947
2347,902,947
2348,898,948
2349,897,946
2350,893,946
2351,894,947
2352,894,945
2353,894,947
2354,896,949
2355,897,949
2356,898,953
2357,902,951
2358,898,948
2359,900,947
2360,898,947
2361,902,944
2362,901,944
2363,899,944
2364,903,944
2365,905,946
2366,907,949
2367,910,949
2368,917,949
2369,924,948
2370,933,947
2371,945,944
2372,960,943
2373,980,944
2374,1005,941
2375,1032,941
2376,1066,936
2377,1104,931
2378,1149,921
2379,1187,909
2380,1222,888
2381,1248,865
2382,1267,836
2383,1281,814
2384,1293,790
2385,1290,766
2386,1267,742
2387,1231,721
2388,1172,707
2389,1103,697
2390,1034,697
2391,974,704
2392,924,717
2393,896,735
2394,878,756
2395,872,778
2396,873,799
2397,874,818
2398,874,834
2399,873,849
2400,874,865
2401,876,879
2402,879,896
2403,881,913
2404,881,927
2405,883,938
2406,881,945
2407,880,948
2408,874,951
2409,876,947
2410,873,950
2411,871,951
2412,872,952
2413,873,953
2414,872,955
2415,872,958
2416,871,959
2417,875,959
2418,872,959
2419,873,960
2420,870,956
2421,872,955
2422,871,956
2423,870,955
2424,870,957
2425,870,959
2426,869,960
2427,870,961
2428,871,962
2429,871,961
2430,869,960
2431,870,961
2432,866,961
2433,864,958
2434,864,958
2435,863,958
2436,863,961
2437,864,962
2438,864,965
2439,862,963
2440,864,964
2441,864,966
2442,861,965
2443,861,963
2444,860,963
2445,855,964
2446,854,959
2447,855,963
2448,857,961
2449,856,966
2450,856,968
2451,858,968
2452,858,970
2453,858,972
2454,856,968
2455,853,970
2456,852,968
2457,851,968
2458,845,970
2459,843,967
2460,844,970
2461,844,972
2462,844,976
2463,846,978
2464,845,980
2465,846,981
2466,846,981
2467,842,979
2468,840,981
2469,840,980
2470,841,979
2471,840,981
2472,840,985
2473,841,987
2474,844,990
2475,846,991
2476,845,993
2477,850,997
2478,851,992
2479,852,995
2480,850,992
2481,854,992
2482,853,990
2483,857,993
2484,860,992
2485,865,993
2486,870,994
2487,875,994
2488,876,994
2489,884,994
2490,886,989
2491,888,988
2492,888,986
2493,890,982
2494,890,981
2495,892,978
2496,894,978
2497,894,978
2498,898,976
2499,900,974
2500,901,977
2501,904,975
2502,905,971
2503,904,971
2504,904,968
2505,903,966
2506,902,965
2507,901,962
2508,902,963
2509,902,964
2510,901,964
2511,903,966
2512,904,966
2513,904,965
2514,907,963
2515,906,960
2516,906,962
2517,905,956
2518,901,956
2519,900,956
2520,901,959
2521,900,960
2522,903,961
2523,903,963
2524,905,961
2525,905,964
2526,907,960
2527,905,963
2528,903,959
2529,902,957
2530,901,958
2531,898,957
2532,899,958
2533,899,961
2534,899,962
2535,900,963
2536,902,964
2537,901,963
2538,903,962
2539,902,962
2540,900,963
2541,898,961
2542,898,961
2543,899,960
2544,897,961
2545,896,964
2546,898,966
2547,898,967
2548,898,968
2549,898,968
2550,900,968
2551,899,966
2552,898,964
2553,898,964
2554,898,962
2555,897,964
2556,897,966
2557,899,966
2558,900,968
2559,901,968
2560,903,970
2561,905,970
2562,907,967
2563,906,968
2564,907,968
2565,906,966
2566,904,964
2567,905,965
2568,907,967
2569,908,969
2570,911,970
2571,913,970
2572,915,973
2573,917,973
2574,919,973
2575,918,972
2576,917,969
2577,916,967
2578,918,970
2579,918,970
2580,921,971
2581,920,972
2582,923,975
2583,928,976
2584,928,978
2585,931,978
2586,937,975
2587,941,975
2588,942,972
2589,943,970
2590,943,966
2591,940,964
2592,941,963
2593,938,962
2594,939,960
2595,939,958
2596,937,958
2597,939,960
2598,936,962
2599,934,962
2600,929,960
2601,927,963
2602,923,964
2603,919,963
2604,916,965
2605,915,967
2606,917,971
2607,914,972
2608,913,972
2609,912,975
2610,909,972
2611,907,971
2612,905,971
2613,903,970
2614,901,969
2615,901,968
2616,903,971
2617,902,970
2618,903,975
2619,905,973
2620,905,976
2621,906,974
2622,908,973
2623,909,970
2624,907,970
2625,909,967
2626,909,968
2627,907,965
2628,908,968
2629,913,967
2630,912,967
2631,917,970
2632,927,970
2633,938,971
2634,951,970
2635,969,972
2636,992,967
2637,1019,966
2638,1048,963
2639,1081,961
2640,1120,956
2641,1157,948
2642,1193,932
2643,1223,915
2644,1246,893
2645,1264,868
2646,1278,847
2647,1291,825
2648,1296,805
2649,1282,784
2650,1245,760
2651,1187,742
2652,1113,731
2653,1039,727
2654,969,732
2655,918,745
2656,886,768
2657,874,791
2658,870,814
2659,872,835
2660,875,850
2661,880,862
2662,880,874
2663,880,886
2664,882,897
2665,883,911
2666,887,925
2667,886,938
2668,887,950
2669,890,961
2670,889,966
2671,888,970
2672,883,970
2673,883,971
2674,881,967
2675,881,968
2676,880,974
2677,880,973
2678,881,976
2679,881,979
2680,881,981
2681,885,982
2682,881,978
2683,880,979
2684,878,980
2685,880,978
2686,876,978
2687,874,978
2688,875,980
2689,874,981
2690,876,985
2691,877,984
2692,877,986
2693,877,986
2694,878,984
2695,875,987
2696,873,984
2697,871,982
2698,871,982
2699,870,985
2700,869,985
2701,868,986
2702,868,987
2703,871,989
2704,873,993
2705,873,991
2706,871,988
2707,871,990
2708,869,988
2709,866,989
2710,863,985
2711,861,987
2712,862,990
2713,860,989
2714,860,994
2715,861,994
2716,863,996
2717,861,999
2718,861,995
2719,858,996
2720,856,994
2721,855,994
2722,855,995
2723,852,995
2724,851,997
2725,851,1000
2726,850,1004
2727,853,1004
2728,854,1005
2729,851,1009
2730,850,1006
2731,849,1006
2732,848,1007
2733,847,1008
2734,847,1009
2735,846,1009
2736,846,1009
2737,846,1014
2738,850,1014
2739,852,1018
2740,853,1018
2741,856,1020
2742,857,1019
2743,857,1017
2744,859,1017
2745,857,1017
2746,857,1014
2747,860,1015
2748,859,1017
2749,861,1017
2750,866,1016
2751,870,1022
2752,875,1023
2753,879,1022
2754,880,1018
2755,885,1017
2756,884,1013
2757,886,1014
2758,887,1012
2759,888,1010
2760,889,1010
2761,891,1011
2762,897,1011
2763,898,1010
2764,901,1010
2765,903,1008
2766,905,1006
2767,905,1005
2768,904,1001
2769,904,997
2770,904,996
2771,904,994
2772,903,996
2773,903,994
2774,904,996
2775,905,997
2776,908,994
2777,911,995
2778,911,994
2779,907,991
2780,906,987
2781,906,986
2782,906,986
2783,903,985
2784,902,989
2785,901,986
2786,900,987
2787,902,990
2788,904,988
2789,908,990
2790,906,986
2791,906,985
2792,903,983
2793,903,984
2794,902,984
2795,900,982
2796,899,984
2797,898,983
2798,901,987
2799,899,987
2800,902,988
2801,901,989
2802,901,988
2803,899,988
2804,897,984
2805,899,984
2806,892,985
2807,894,984
2808,893,986
2809,891,985
2810,893,987
2811,894,988
2812,895,988
2813,899,991
2814,901,988
2815,899,988
2816,898,986
2817,899,985
2818,896,982
2819,894,983
2820,894,986
2821,894,983
2822,895,986
2823,896,987
2824,895,987
2825,902,987
2826,901,985
2827,902,987
2828,901,984
2829,897,986
2830,901,982
2831,897,981
2832,899,984
2833,901,981
2834,902,985
2835,903,987
2836,907,988
2837,907,989
2838,910,987
2839,911,987
2840,911,987
2841,910,982
2842,909,981
2843,913,982
2844,910,984
2845,912,983
2846,913,986
2847,916,988
2848,919,989
2849,923,992
2850,929,989
2851,930,987
2852,934,983
2853,935,980
2854,935,979
2855,934,973
2856,934,971
2857,933,968
2858,932,967
2859,930,968
2860,929,973
2861,930,973
2862,925,977
2863,921,974
2864,917,976
2865,914,976
2866,910,978
2867,906,978
2868,905,981
2869,902,978
2870,901,982
2871,899,983
2872,897,985
2873,898,985
2874,899,982
2875,899,983
2876,899,982
2877,899,980
2878,899,978
2879,896,978
2880,896,978
2881,892,979
2882,895,979
2883,896,983
2884,901,985
2885,904,982
2886,905,979
2887,907,980
2888,907,979
2889,907,977
2890,907,977
2891,909,975
2892,913,977
2893,920,980
2894,925,980
2895,937,979
2896,950,980
2897,967,982
2898,986,980
2899,1009,980
2900,1031,979
2901,1066,974
2902,1102,970
2903,1140,964
2904,1180,949
2905,1213,931
2906,1242,912
2907,1261,888
2908,1283,868
2909,1296,846
2910,1299,821
2911,1278,799
2912,1225,774
2913,1148,758
2914,1053,747
2915,966,749
2916,901,763
2917,859,784
2918,843,812
2919,843,838
2920,852,858
2921,862,879
2922,871,892
2923,876,904
2924,878,917
2925,881,931
2926,877,945
2927,876,956
2928,874,968
2929,873,974
2930,875,981
2931,876,982
2932,874,984
2933,872,984
2934,873,981
2935,873,987
2936,872,984
2937,874,983
2938,870,984
2939,868,983
2940,868,986
2941,869,987
2942,869,987
2943,869,990
2944,868,993
2945,871,994
2946,868,992
2947,870,989
2948,868,989
2949,865,988
2950,865,989
2951,864,988
2952,862,990
2953,861,991
2954,863,994
2955,864,994
2956,866,996
2957,866,996
2958,865,994
2959,865,994
2960,861,990
2961,857,992
2962,855,991
2963,855,992
2964,856,991
2965,855,993
2966,860,997
2967,858,995
2968,861,997
2969,862,999
2970,859,997
2971,859,997
2972,859,998
2973,855,995
2974,853,996
2975,852,996
2976,849,996
2977,849,1000
2978,851,999
2979,851,1000
2980,850,1004
2981,850,1006
2982,850,1004
2983,846,1004
2984,846,1004
2985,846,1004
2986,841,1001
2987,841,1004
2988,841,1006
2989,841,1007
2990,839,1010
2991,843,1014
2992,842,1015
2993,843,1016
2994,843,1016
2995,842,1016
2996,838,1016
2997,842,1017
2998,842,1016
2999,841,1015
3000,842,1018
3001,844,1022
3002,848,1023
3003,851,1022
3004,854,1024
3005,858,1027
3006,859,1024
3007,863,1023
3008,864,1022
3009,864,1021
3010,866,1018
3011,867,1018
3012,870,1019
3013,872,1017
3014,877,1018
3015,880,1020
3016,881,1020
3017,884,1019
3018,886,1016
3019,887,1013
3020,892,1011
3021,891,1008
3022,890,1008
3023,891,1004
3024,892,1007
3025,891,1006
3026,893,1007
3027,895,1006
3028,898,1004
3029,898,1007
3030,900,1004
3031,898,1002
3032,901,998
3033,899,997
3034,896,996
3035,896,995
3036,894,997
3037,894,996
3038,891,996
3039,894,999
3040,897,997
3041,895,998
3042,897,996
3043,896,995
3044,896,994
3045,895,992
3046,893,990
3047,891,988
3048,890,989
3049,893,991
3050,893,991
3051,892,992
3052,895,995
3053,895,995
3054,893,992
3055,892,991
3056,891,991
3057,889,990
3058,887,987
3059,886,986
3060,887,987
3061,885,990
3062,888,990
3063,888,991
3064,887,991
3065,889,991
3066,889,991
3067,890,991
3068,888,987
3069,887,987
3070,884,986
3071,885,987
3072,883,987
3073,881,989
3074,883,988
3075,882,988
3076,886,989
3077,886,991
3078,887,989
3079,886,990
3080,887,987
3081,885,986
3082,884,986
3083,884,986
3084,886,985
3085,887,987
3086,888,989
3087,890,987
3088,887,991
3089,892,991
3090,893,988
3091,890,987
3092,890,987
3093,890,985
3094,891,982
3095,890,983
3096,890,985
3097,892,985
3098,895,987
3099,897,986
3100,900,989
3101,900,989
3102,902,988
3103,901,986
3104,904,984
3105,904,982
3106,904,983
3107,902,982
3108,904,985
3109,908,986
3110,910,987
3111,911,989
3112,915,988
3113,919,989
3114,921,988
3115,922,986
3116,924,983
3117,925,983
3118,927,978
3119,925,976
3120,926,974
3121,925,974
3122,925,972
3123,925,971
3124,926,970
3125,927,969
3126,925,967
3127,924,966
3128,920,968
3129,917,966
3130,911,966
3131,908,969
3132,904,972
3133,902,973
3134,900,976
3135,901,978
3136,899,978
3137,897,982
3138,893,977
3139,892,978
3140,891,978
3141,890,977
3142,887,973
3143,889,974
3144,888,975
3145,888,976
3146,890,976
3147,893,976
3148,893,978
3149,896,979
3150,896,977
3151,895,975
3152,895,975
3153,897,974
3154,898,970
3155,897,971
3156,899,971
3157,901,972
3158,907,972
3159,912,974
3160,918,972
3161,926,973
3162,936,972
3163,953,971
3164,969,973
3165,993,971
3166,1018,970
3167,1045,967
3168,1084,963
3169,1127,956
3170,1170,945
3171,1207,928
3172,1238,906
3173,1259,885
3174,1282,863
3175,1299,839
3176,1313,818
3177,1308,797
3178,1278,777
3179,1217,759
3180,1140,746
3181,1051,740
3182,971,741
3183,911,754
3184,874,773
3185,858,794
3186,857,816
3187,862,833
3188,869,849
3189,875,864
3190,877,873
3191,877,887
3192,877,899
3193,880,911
3194,882,926
3195,882,940
3196,883,951
3197,885,959
3198,882,964
3199,880,965
3200,880,966
3201,875,962
3202,875,963
3203,871,964
3204,875,964
3205,874,969
3206,872,970
3207,874,972
3208,877,972
3209,878,975
3210,877,974
3211,878,971
3212,876,972
3213,873,971
3214,874,968
3215,873,969
3216,871,970
3217,871,972
3218,872,974
3219,871,976
3220,872,977
3221,874,975
3222,872,977
3223,871,974
3224,869,975
3225,865,973
3226,866,972
3227,864,972
3228,863,975
3229,865,973
3230,864,976
3231,864,978
3232,864,982
3233,865,980
3234,865,980
3235,864,977
3236,863,979
3237,860,977
3238,859,974
3239,853,974
3240,852,976
3241,855,978
3242,856,979
3243,856,979
3244,856,984
3245,857,986
3246,857,984
3247,857,983
3248,853,983
3249,852,984
3250,852,984
3251,849,983
3252,850,985
3253,846,988
3254,849,993
3255,849,993
3256,851,994
3257,851,995
3258,851,992
3259,850,996
3260,848,995
3261,849,992
3262,847,994
3263,846,994
3264,847,994
3265,849,995
3266,851,997
3267,851,998
3268,855,999
3269,859,1001
3270,861,1000
3271,863,998
3272,863,998
3273,866,998
3274,866,995
3275,869,993
3276,870,997
3277,873,996
3278,879,996
3279,883,997
3280,887,1000
3281,891,997
3282,895,992
3283,897,992
3284,898,989
3285,899,987
3286,900,984
3287,903,981
3288,904,981
3289,906,980
3290,909,979
3291,908,980
3292,912,979
3293,913,979
3294,914,977
3295,913,974
3296,912,969
3297,911,969
3298,910,966
3299,909,966
3300,911,967
3301,910,966
3302,911,968
3303,912,968
3304,914,969
3305,914,967
3306,914,964
3307,913,965
3308,911,963
3309,910,962
3310,908,959
3311,908,958
3312,905,958
3313,904,958
3314,906,961
3315,906,961
3316,911,961
3317,911,965
3318,912,961
3319,910,961
3320,909,959
3321,908,960
3322,904,957
3323,905,955
3324,903,958
3325,902,958
3326,905,960
3327,903,960
3328,906,962
3329,908,963
3330,905,962
3331,901,960
3332,904,959
3333,902,957
3334,899,956
3335,901,956
3336,899,958
3337,897,961
3338,900,961
3339,901,961
3340,905,964
3341,904,965
3342,905,962
3343,905,960
3344,905,960
3345,904,958
3346,902,957
3347,900,955
3348,900,957
3349,901,957
3350,903,960
3351,903,962
3352,905,963
3353,907,962
3354,907,961
3355,909,962
3356,909,958
3357,906,956
3358,906,956
3359,905,957
3360,903,955
3361,904,957
3362,909,958
3363,911,959
3364,913,959
3365,916,961
3366,917,960
3367,915,959
3368,915,957
3369,919,957
3370,919,959
3371,919,956
3372,920,957
3373,922,960
3374,921,961
3375,924,963
3376,926,963
3377,929,963
3378,931,962
3379,932,964
3380,934,961
3381,934,960
3382,937,958
3383,938,957
3384,939,955
3385,940,955
3386,942,956
3387,943,953
3388,945,953
3389,946,951
3390,945,947
3391,943,944
3392,940,944
3393,938,941
3394,937,942
3395,933,942
3396,928,945
3397,926,947
3398,924,952
3399,925,954
3400,921,955
3401,918,957
3402,918,956
3403,918,956
3404,915,953
3405,910,952
3406,907,953
3407,903,954
3408,900,953
3409,901,957
3410,899,956
3411,903,957
3412,905,958
3413,906,957
3414,907,960
3415,906,956
3416,904,954
3417,904,954
3418,901,954
3419,902,953
3420,903,955
3421,903,952
3422,906,954
3423,905,954
3424,910,956
3425,913,957
3426,914,955
3427,914,955
3428,912,952
3429,914,952
3430,918,951
3431,925,948
3432,935,949
3433,952,950
3434,969,951
3435,995,951
3436,1025,952
3437,1061,950
3438,1104,940
3439,1150,930
3440,1192,916
3441,1229,893
3442,1257,866
3443,1279,845
3444,1298,822
3445,1318,801
3446,1326,781
3447,1313,762
3448,1267,743
3449,1199,728
3450,1117,716
3451,1032,717
3452,963,719
3453,911,733
3454,881,751
3455,869,772
3456,867,797
3457,874,818
3458,879,836
3459,880,848
3460,882,866
3461,889,880
3462,890,893
3463,890,905
3464,890,916
3465,888,929
3466,883,936
3467,883,943
3468,880,948
3469,880,951
3470,879,953
3471,884,955
3472,883,955
3473,886,960
3474,885,959
3475,881,959
3476,879,959
3477,883,959
3478,880,956
3479,877,956
3480,877,960
3481,874,960
3482,878,962
3483,878,965
3484,880,963
3485,881,965
3486,879,967
3487,878,964
3488,877,964
3489,876,963
3490,874,961
3491,873,961
3492,870,962
3493,868,962
3494,868,964
3495,871,966
3496,872,967
3497,873,970
3498,874,969
3499,872,970
3500,872,969
3501,867,966
3502,867,966
3503,866,966
3504,864,964
3505,861,968
3506,860,969
3507,860,971
3508,863,973
3509,863,973
3510,861,972
3511,859,973
3512,859,972
3513,855,972
3514,854,970
3515,854,972
3516,851,974
3517,851,976
3518,848,976
3519,851,980
3520,850,982
3521,851,984
3522,853,984
3523,850,986
3524,848,985
3525,849,983
3526,846,984
3527,846,985
3528,844,988
3529,846,988
3530,848,992
3531,849,994
3532,850,996
3533,852,997
3534,854,997
3535,853,996
3536,857,996
3537,856,994
3538,857,995
3539,859,993
3540,860,995
3541,863,996
3542,866,996
3543,872,996
3544,874,999
3545,879,997
3546,885,998
3547,888,995
3548,888,993
3549,888,988
3550,891,987
3551,891,984
3552,891,984
3553,893,983
3554,896,983
3555,900,982
3556,902,985
3557,904,981
3558,905,979
3559,908,976
3560,908,973
3561,904,971
3562,905,970
3563,905,965
3564,906,965
3565,906,966
3566,907,969
3567,908,968
3568,910,969
3569,910,968
3570,910,968
3571,909,965
3572,911,964
3573,909,962
3574,908,960
3575,904,959
3576,900,958
3577,904,960
3578,903,961
3579,902,961
3580,905,963
3581,905,963
3582,907,961
3583,905,960
3584,903,959
3585,899,956
3586,900,954
3587,900,955
3588,898,954
3589,898,958
3590,898,959
3591,898,960
3592,897,962
3593,901,963
3594,900,960
3595,902,961
3596,899,959
3597,898,955
3598,896,956
3599,896,957
3600,895,957
3601,893,960
3602,895,961
3603,897,961
3604,897,963
3605,897,964
3606,898,964
3607,897,962
3608,896,961
3609,894,960
3610,894,961
3611,892,958
3612,894,960
3613,896,960
3614,894,964
3615,897,963
3616,897,966
3617,899,966
3618,900,964
3619,900,964
3620,897,963
3621,901,962
3622,900,962
3623,899,960
3624,901,959
3625,902,961
3626,901,962
3627,903,963
3628,904,964
3629,908,966
3630,909,965
3631,910,963
3632,910,962
3633,911,960
3634,909,959
3635,909,957
3636,911,960
3637,912,961
3638,915,964
3639,915,965
3640,918,966
3641,920,967
3642,921,967
3643,922,964
3644,924,965
3645,924,964
3646,923,963
3647,926,963
3648,925,965
3649,927,962
3650,933,964
3651,936,964
3652,938,963
3653,940,963
3654,941,959
3655,942,955
3656,940,949
3657,939,947
3658,934,942
3659,932,941
3660,929,940
3661,926,947
3662,923,950
3663,922,952
3664,920,957
3665,918,959
3666,916,958
3667,914,959
3668,912,955
3669,907,956
3670,903,956
3671,900,957
3672,897,957
3673,898,958
3674,898,960
3675,899,962
3676,901,963
3677,903,964
3678,904,961
3679,902,963
3680,903,960
3681,900,958
3682,900,956
3683,900,958
3684,900,960
3685,900,958
3686,900,958
3687,904,961
3688,906,962
3689,908,962
3690,908,961
3691,908,961
3692,910,960
3693,913,958
3694,914,956
3695,918,956
3696,923,954
3697,935,955
3698,950,957
3699,970,958
3700,992,959
3701,1019,960
3702,1049,956
3703,1082,951
3704,1120,943
3705,1159,931
3706,1196,916
3707,1226,897
3708,1249,877
3709,1268,854
3710,1288,831
3711,1307,811
3712,1316,790
3713,1307,767
3714,1272,744
3715,1209,724
3716,1127,711
3717,1041,707
3718,967,712
3719,909,726
3720,877,749
3721,862,771
3722,862,797
3723,869,821
3724,875,841
3725,880,857
3726,883,871
3727,885,886
3728,886,898
3729,886,912
3730,885,925
3731,880,938
3732,879,948
3733,881,953
3734,878,957
3735,879,957
3736,880,960
3737,880,961
3738,881,958
3739,878,964
3740,875,962
3741,876,962
3742,876,964
3743,874,962
3744,873,963
3745,873,964
3746,873,965
3747,876,967
3748,875,969
3749,877,970
3750,877,968
3751,875,971
3752,874,966
3753,873,967
3754,873,967
3755,871,964
3756,869,967
3757,868,967
3758,869,969
3759,872,973
3760,871,971
3761,872,974
3762,873,969
3763,871,972
3764,870,971
3765,869,972
3766,870,967
3767,864,969
3768,863,970
3769,861,971
3770,863,974
3771,862,976
3772,863,974
3773,860,976
3774,859,974
3775,860,977
3776,859,975
3777,856,975
3778,855,975
3779,854,974
3780,850,976
3781,850,977
3782,850,978
3783,851,983
3784,850,982
3785,850,984
3786,849,987
3787,848,986
3788,847,987
3789,847,987
3790,844,985
3791,844,986
3792,842,987
3793,842,991
3794,840,994
3795,844,996
3796,844,995
3797,846,1002
3798,848,999
3799,848,1001
3800,848,999
3801,852,1000
3802,853,998
3803,854,998
3804,856,999
3805,860,998
3806,863,1001
3807,870,1001
3808,873,1004
3809,877,1000
3810,882,997
3811,884,998
3812,885,997
3813,889,990
3814,892,988
3815,891,988
3816,894,988
3817,897,987
3818,897,985
3819,897,985
3820,901,982
3821,903,984
3822,904,982
3823,903,978
3824,905,977
3825,904,975
3826,904,971
3827,901,972
3828,905,969
3829,900,969
3830,901,973
3831,903,973
3832,906,971
3833,906,972
3834,907,971
3835,905,968
3836,908,967
3837,905,965
3838,906,964
3839,904,963
3840,902,966
3841,904,965
3842,904,965
3843,903,968
3844,906,969
3845,905,968
3846,907,967
3847,906,966
3848,905,965
3849,902,963
3850,901,959
3851,897,960
3852,895,964
3853,896,962
3854,899,964
3855,899,963
3856,902,965
3857,901,966
3858,900,965
3859,900,967
3860,900,966
3861,899,964
3862,896,963
3863,893,962
3864,893,961
3865,894,964
3866,895,964
3867,896,966
3868,893,969
3869,898,968
3870,897,970
3871,895,968
3872,895,966
3873,895,967
3874,894,963
3875,895,964
3876,894,965
3877,894,965
3878,896,967
3879,899,970
3880,900,968
3881,901,970
3882,902,969
3883,903,967
3884,901,967
3885,902,966
3886,902,964
3887,902,963
3888,902,965
3889,904,965
3890,903,967
3891,906,967
3892,909,971
3893,913,971
3894,917,970
3895,913,970
3896,916,969
3897,916,967
3898,914,967
3899,914,966
3900,917,968
3901,918,971
3902,916,972
3903,921,972
3904,921,978
3905,927,977
3906,928,975
3907,933,974
3908,935,973
3909,935,969
3910,934,971
3911,936,966
3912,938,964
3913,938,963
3914,939,963
3915,938,960
3916,938,961
3917,937,959
3918,938,955
3919,935,953
3920,934,953
3921,931,955
3922,928,953
3923,926,954
3924,919,956
3925,918,958
3926,913,961
3927,915,964
3928,914,965
3929,913,969
3930,911,966
3931,907,966
3932,906,966
3933,898,965
3934,899,964
3935,897,962
3936,894,965
3937,895,968
3938,896,965
3939,900,967
3940,902,968
3941,904,968
3942,904,966
3943,905,966
3944,904,965
3945,901,963
3946,903,962
3947,902,960
3948,905,962
3949,908,962
3950,910,963
3951,913,963
3952,916,964
3953,923,964
3954,931,965
3955,941,964
3956,957,961
3957,975,959
3958,1000,957
3959,1028,954
3960,1061,954
3961,1101,949
3962,1142,942
3963,1183,930
3964,1219,913
3965,1247,895
3966,1270,868
3967,1286,845
3968,1300,822
3969,1304,798
3970,1293,772
3971,1255,750
3972,1189,732
3973,1108,720
3974,1025,716
3975,952,724
3976,900,745
3977,871,768
3978,864,794
3979,866,816
3980,873,835
3981,878,849
3982,881,861
3983,882,870
3984,882,883
3985,881,894
3986,882,910
3987,886,922
3988,888,937
3989,888,950
3990,889,955
3991,887,960
3992,885,963
3993,884,963
3994,882,962
3995,880,961
3996,880,961
3997,880,964
3998,881,969
3999,879,970
4000,882,973
4001,882,975
4002,883,975
4003,880,975
4004,879,972
4005,877,972
4006,875,970
4007,874,970
4008,871,973
4009,870,973
4010,871,974
4011,872,974
4012,872,974
4013,875,977
4014,875,976
4015,874,976
4016,872,977
4017,871,975
4018,870,974
4019,868,972
4020,866,974
4021,867,976
4022,868,976
4023,868,978
4024,869,979
4025,870,984
4026,867,980
4027,866,980
4028,866,980
4029,864,978
4030,861,980
4031,857,977
4032,859,979
4033,858,979
4034,858,983
4035,858,984
4036,857,986
4037,859,986
4038,858,989
4039,860,988
4040,857,986
4041,854,987
4042,853,986
4043,849,988
4044,848,987
4045,847,987
4046,847,992
4047,848,994
4048,848,997
4049,849,999
4050,850,1001
4051,850,999
4052,849,998
4053,846,1000
4054,846,999
4055,844,1000
4056,844,1002
4057,846,1004
4058,849,1007
4059,851,1009
4060,853,1010
4061,856,1011
4062,861,1012
4063,859,1011
4064,862,1009
4065,862,1008
4066,863,1010
4067,865,1007
4068,869,1008
4069,873,1010
4070,876,1008
4071,879,1010
4072,884,1011
4073,888,1012
4074,892,1010
4075,894,1009
4076,896,1008
4077,896,1004
4078,900,999
4079,901,1000
4080,901,998
4081,903,997
4082,903,998
4083,906,995
4084,909,998
4085,910,996
4086,912,994
4087,913,993
4088,913,991
4089,912,987
4090,911,987
4091,911,984
4092,907,984
4093,908,983
4094,909,986
4095,910,984
4096,910,986
4097,911,987
4098,914,986
4099,911,983
4100,912,982
4101,911,983
4102,909,982
4103,906,978
4104,903,978
4105,904,978
4106,905,981
4107,907,982
4108,907,983
4109,909,985
4110,908,982
4111,909,982
4112,907,979
4113,909,979
4114,904,980
4115,903,976
4116,901,977
4117,903,978
4118,904,981
4119,903,981
4120,904,982
4121,905,983
4122,904,985
4123,903,983
4124,901,982
4125,902,982
4126,902,980
4127,901,978
4128,898,979
4129,899,981
4130,897,984
4131,899,984
4132,901,986
4133,902,987
4134,904,986
4135,906,985
4136,904,986
4137,903,983
4138,903,982
4139,901,983
4140,899,984
4141,897,984
4142,898,987
4143,902,988
4144,902,988
4145,903,989
4146,905,990
4147,906,990
4148,903,985
4149,905,985
4150,905,982
4151,903,983
4152,906,984
4153,906,984
4154,908,985
4155,909,986
4156,911,989
4157,915,990
4158,916,990
4159,917,986
4160,919,985
4161,918,984
4162,918,982
4163,918,983
4164,920,983
4165,920,987
4166,921,986
4167,924,987
4168,922,990
4169,927,994
4170,927,993
4171,932,991
4172,936,990
4173,936,988
4174,938,987
4175,937,985
4176,941,982
4177,943,982
4178,942,980
4179,943,980
4180,943,981
4181,945,979
4182,943,976
4183,941,973
4184,937,973
4185,934,971
4186,934,972
4187,927,974
4188,924,973
4189,922,977
4190,920,979
4191,920,981
4192,919,984
4193,920,984
4194,919,983
4195,912,983
4196,913,985
4197,910,983
4198,907,982
4199,902,984
4200,903,984
4201,903,985
4202,904,985
4203,907,986
4204,906,986
4205,908,988
4206,909,989
4207,909,987
4208,908,986
4209,907,981
4210,907,982
4211,906,979
4212,903,983
4213,905,981
4214,907,982
4215,907,983
4216,907,986
4217,911,983
4218,914,983
4219,915,982
4220,919,982
4221,917,980
4222,919,977
4223,924,977
4224,927,979
4225,934,976
4226,949,976
4227,966,979
4228,984,979
4229,1007,982
4230,1037,980
4231,1069,975
4232,1110,966
4233,1152,957
4234,1194,942
4235,1227,922
4236,1254,903
4237,1276,881
4238,1295,860
4239,1309,836
4240,1305,815
4241,1273,794
4242,1205,773
4243,1117,763
4244,1024,758
4245,940,765
4246,885,781
4247,854,803
4248,845,824
4249,851,845
4250,863,864
4251,875,880
4252,881,895
4253,887,907
4254,892,917
4255,892,926
4256,889,938
4257,891,950
4258,886,957
4259,880,965
4260,879,973
4261,879,978
4262,881,979
4263,881,983
4264,883,984
4265,882,987
4266,882,987
4267,884,985
4268,882,987
4269,882,987
4270,881,984
4271,878,985
4272,879,985
4273,877,986
4274,878,989
4275,877,992
4276,878,994
4277,878,993
4278,879,994
4279,878,995
4280,878,995
4281,878,991
4282,875,991
4283,873,992
4284,871,990
4285,872,991
4286,870,995
4287,872,994
4288,871,996
4289,872,999
4290,873,997
4291,872,998
4292,873,997
4293,871,993
4294,868,993
4295,867,992
4296,867,994
4297,867,994
4298,866,997
4299,866,998
4300,864,999
4301,867,1000
4302,865,1002
4303,863,1000
4304,862,998
4305,861,999
4306,858,998
4307,856,997
4308,856,998
4309,857,998
4310,854,998
4311,857,1002
4312,856,1004
4313,856,1007
4314,856,1008
4315,855,1008
4316,855,1009
4317,852,1006
4318,851,1007
4319,847,1005
4320,846,1008
4321,845,1009
4322,846,1012
4323,846,1012
4324,846,1015
4325,847,1019
4326,849,1017
4327,848,1019
4328,848,1018
4329,845,1019
4330,847,1017
4331,845,1017
4332,847,1018
4333,845,1021
4334,849,1021
4335,851,1023
4336,853,1026
4337,857,1025
4338,860,1025
4339,862,1025
4340,865,1023
4341,865,1025
4342,869,1022
4343,870,1022
4344,871,1020
4345,875,1021
4346,879,1021
4347,883,1023
4348,887,1025
4349,893,1024
4350,892,1022
4351,895,1019
4352,897,1016
4353,897,1014
4354,900,1011
4355,900,1009
4356,901,1009
4357,902,1009
4358,902,1008
4359,902,1008
4360,906,1009
4361,908,1008
4362,909,1006
4363,910,1004
4364,909,1001
4365,909,1000
4366,909,999
4367,908,997
4368,906,997
4369,905,996
4370,905,996
4371,906,998
4372,907,998
4373,911,998
4374,910,997
4375,908,996
4376,908,994
4377,908,992
4378,905,991
4379,905,989
4380,903,989
4381,903,989
4382,901,991
4383,905,991
4384,903,992
4385,904,994
4386,903,993
4387,904,990
4388,904,990
4389,902,988
4390,901,988
4391,899,987
4392,897,986
4393,897,988
4394,896,989
4395,897,992
4396,895,990
4397,898,994
4398,900,992
4399,897,991
4400,899,988
4401,896,990
4402,898,987
4403,896,987
4404,892,987
4405,891,987
4406,892,988
4407,892,990
4408,895,992
4409,895,992
4410,896,991
4411,892,991
4412,896,991
4413,894,990
4414,894,986
4415,894,987
4416,893,987
4417,893,987
4418,895,988
4419,897,986
4420,895,992
4421,894,994
4422,899,991
4423,901,989
4424,901,986
4425,897,986
4426,899,984
4427,899,986
4428,898,985
4429,898,986
4430,898,986
4431,899,989
4432,902,988
4433,906,989
4434,909,989
4435,909,988
4436,909,986
4437,909,985
4438,910,983
4439,907,984
4440,909,984
4441,908,985
4442,911,986
4443,912,986
4444,915,991
4445,917,991
4446,918,992
4447,918,990
4448,919,990
4449,918,989
4450,921,987
4451,919,988
4452,921,988
4453,924,985
4454,926,987
4455,927,985
4456,931,986
4457,935,984
4458,938,981
4459,937,976
4460,937,975
4461,932,968
4462,931,966
4463,926,967
4464,925,967
4465,920,967
4466,919,973
4467,917,974
4468,916,978
4469,914,980
4470,912,980
4471,910,980
4472,907,980
4473,904,979
4474,900,978
4475,897,976
4476,896,976
4477,893,977
4478,891,978
4479,896,980
4480,899,982
4481,902,985
4482,902,985
4483,902,982
4484,899,981
4485,896,979
4486,898,978
4487,895,978
4488,894,975
4489,896,975
4490,898,977
4491,899,979
4492,904,979
4493,905,981
4494,908,980
4495,907,976
4496,912,978
4497,913,975
4498,915,972
4499,921,973
4500,929,972
4501,939,974
4502,957,974
4503,981,974
4504,1003,976
4505,1031,974
4506,1067,974
4507,1105,970
4508,1146,959
4509,1185,947
4510,1216,929
4511,1240,909
4512,1256,888
4513,1271,867
4514,1290,847
4515,1307,832
4516,1308,812
4517,1291,791
4518,1240,773
4519,1167,758
4520,1082,744
4521,1000,742
4522,933,749
4523,885,760
4524,862,781
4525,856,802
4526,858,827
4527,865,848
4528,871,867
4529,875,880
4530,878,896
4531,880,910
4532,882,925
4533,883,939
4534,881,952
4535,880,962
4536,876,969
4537,875,971
4538,875,975
4539,877,975
4540,877,979
4541,878,981
4542,879,982
4543,878,981
4544,877,982
4545,873,979
4546,874,979
4547,873,981
4548,871,980
4549,868,981
4550,867,984
4551,868,982
4552,870,984
4553,873,986
4554,872,988
4555,873,987
4556,871,987
4557,871,985
4558,871,985
4559,870,983
4560,867,984
4561,867,986
4562,864,987
4563,864,988
4564,864,991
4565,866,992
4566,866,991
4567,864,990
4568,866,989
4569,863,989
4570,861,989
4571,859,987
4572,859,988
4573,858,991
4574,855,991
4575,856,992
4576,856,995
4577,859,995
4578,857,994
4579,854,994
4580,854,994
4581,851,991
4582,849,993
4583,850,991
4584,849,993
4585,846,994
4586,847,995
4587,846,998
4588,846,999
4589,846,1003
4590,845,1002
4591,844,1003
4592,843,1000
4593,844,1003
4594,843,1003
4595,842,1000
4596,842,1004
4597,842,1006
4598,840,1005
4599,842,1007
4600,843,1010
4601,842,1014
4602,844,1014
4603,844,1012
4604,844,1011
4605,844,1013
4606,846,1016
4607,846,1014
4608,847,1015
4609,850,1014
4610,851,1014
4611,854,1018
4612,859,1019
4613,862,1020
4614,866,1018
4615,870,1017
4616,871,1015
4617,876,1012
4618,875,1013
4619,875,1014
4620,879,1011
4621,881,1011
4622,885,1011
4623,890,1008
4624,891,1008
4625,895,1009
4626,896,1006
4627,899,1003
4628,899,1001
4629,900,999
4630,899,995
4631,896,995
4632,898,993
4633,900,994
4634,901,991
4635,900,992
4636,902,994
4637,905,993
4638,904,992
4639,904,992
4640,905,990
4641,903,987
4642,903,986
4643,902,985
4644,900,982
4645,900,984
4646,901,987
4647,902,985
4648,902,985
4649,903,987
4650,903,988
4651,903,985
4652,902,982
4653,900,980
4654,897,981
4655,896,979
4656,896,980
4657,895,981
4658,897,982
4659,897,983
4660,898,985
4661,899,986
4662,900,984
4663,898,984
4664,896,983
4665,896,980
4666,894,981
4667,892,982
4668,888,979
4669,891,980
4670,890,982
4671,892,982
4672,891,984
4673,893,984
4674,893,983
4675,893,984
4676,893,981
4677,889,984
4678,888,982
4679,888,979
4680,886,979
4681,886,979
4682,887,981
4683,890,982
4684,894,985
4685,893,986
4686,895,984
4687,895,984
4688,896,984
4689,894,982
4690,892,979
4691,891,979
4692,888,978
4693,888,981
4694,889,982
4695,893,981
4696,892,982
4697,895,985
4698,897,984
4699,897,981
4700,899,983
4701,899,982
4702,899,983
4703,900,977
4704,900,979
4705,902,979
4706,903,979
4707,906,982
4708,910,982
4709,910,984
4710,911,984
4711,912,983
4712,911,985
4713,914,980
4714,915,980
4715,913,979
4716,914,981
4717,914,983
4718,919,982
4719,923,984
4720,926,985
4721,930,985
4722,933,983
4723,935,980
4724,935,977
4725,935,972
4726,934,966
4727,931,966
4728,927,963
4729,927,962
4730,925,962
4731,925,965
4732,922,966
4733,919,969
4734,918,970
4735,916,971
4736,913,972
4737,909,971
4738,903,974
4739,902,973
4740,899,973
4741,896,972
4742,894,976
4743,892,977
4744,892,978
4745,894,978
4746,893,982
4747,894,978
4748,896,977
4749,897,975
4750,894,975
4751,892,974
4752,892,972
4753,894,972
4754,893,975
4755,894,975
4756,898,976
4757,899,977
4758,902,977
4759,903,972
4760,902,973
4761,905,972
4762,905,969
4763,907,967
4764,913,967
4765,921,968
4766,932,971
4767,949,972
4768,970,971
4769,995,973
4770,1021,975
4771,1050,972
4772,1087,968
4773,1126,960
4774,1164,950
4775,1203,933
4776,1234,912
4777,1259,892
4778,1280,868
4779,1304,847
4780,1323,821
4781,1320,800
4782,1288,779
4783,1220,755
4784,1128,743
4785,1028,738
4786,946,743
4787,888,756
4788,856,777
4789,846,802
4790,848,825
4791,859,845
4792,869,862
4793,876,878
4794,880,891
4795,882,904
4796,883,918
4797,883,929
4798,882,938
4799,877,952
4800,876,959
4801,875,964
4802,878,968
4803,875,969
4804,877,970
4805,878,972
4806,877,972
4807,879,973
4808,878,972
4809,877,971
4810,874,970
4811,871,972
4812,873,971
4813,874,970
4814,872,972
4815,871,973
4816,872,975
4817,874,978
4818,875,978
4819,875,975
4820,874,976
4821,874,972
4822,869,972
4823,870,972
4824,867,971
4825,867,974
4826,866,973
4827,866,973
4828,868,979
4829,868,980
4830,867,979
4831,867,979
4832,865,979
4833,865,978
4834,865,976
4835,862,976
4836,861,976
4837,860,977
4838,861,979
4839,859,980
4840,859,983
4841,857,984
4842,862,984
4843,858,984
4844,861,985
4845,855,983
4846,854,982
4847,852,980
4848,850,982
4849,851,983
4850,848,985
4851,850,990
4852,850,992
4853,851,994
4854,852,993
4855,852,993
4856,852,993
4857,851,992
4858,847,993
4859,848,995
4860,849,995
4861,848,997
4862,849,997
4863,852,999
4864,853,1002
4865,856,1003
4866,861,1006
4867,862,1003
4868,866,1003
4869,868,1002
4870,867,1001
4871,868,1000
4872,870,997
4873,872,998
4874,875,998
4875,877,1000
4876,881,1002
4877,886,1001
4878,893,999
4879,895,997
4880,899,995
4881,901,992
4882,900,990
4883,898,988
4884,901,986
4885,901,987
4886,903,986
4887,906,989
4888,908,984
4889,909,988
4890,912,982
4891,912,979
4892,915,980
4893,911,975
4894,911,973
4895,907,971
4896,908,968
4897,909,971
4898,907,970
4899,906,971
4900,909,973
4901,912,974
4902,913,973
4903,912,971
4904,910,971
4905,909,967
4906,908,965
4907,906,964
4908,906,964
4909,903,964
4910,903,966
4911,905,966
4912,908,967
4913,907,968
4914,907,968
4915,907,966
4916,908,966
4917,906,965
4918,904,967
4919,901,966
4920,899,962
4921,902,964
4922,901,965
4923,902,966
4924,903,969
4925,904,969
4926,906,970
4927,906,967
4928,906,968
4929,904,968
4930,901,966
4931,901,963
4932,898,964
4933,898,967
4934,899,967
4935,902,968
4936,902,969
4937,904,970
4938,904,972
4939,903,968
4940,904,967
4941,904,964
4942,903,965
4943,902,964
4944,902,962
4945,900,961
4946,900,966
4947,903,965
4948,903,967
4949,907,968
4950,907,967
4951,906,967
4952,907,969
4953,907,966
4954,906,964
4955,905,965
4956,908,963
4957,909,962
4958,907,964
4959,910,965
4960,913,969
4961,914,968
4962,916,969
4963,915,968
4964,920,967
4965,920,966
4966,920,966
4967,920,965
4968,921,967
4969,920,968
4970,923,966
4971,923,970
4972,926,971
4973,930,974
4974,932,976
4975,937,969
4976,939,969
4977,940,967
4978,942,964
4979,942,959
4980,942,959
4981,941,955
4982,939,953
4983,940,951
4984,937,950
4985,935,950
4986,933,953
4987,934,951
4988,931,952
4989,927,954
4990,924,956
4991,919,955
4992,919,954
4993,917,958
4994,914,958
4995,914,960
4996,908,962
4997,908,963
4998,907,965
4999,906,962
5000,905,962
5001,905,960
5002,902,961
5003,903,960
5004,902,959
5005,905,960
5006,904,960
5007,905,962
5008,909,961
5009,908,964
5010,910,963
5011,910,962
5012,911,959
5013,908,959
5014,908,957
5015,909,954
5016,906,956
5017,910,956
5018,913,956
5019,915,958
5020,920,959
5021,923,960
5022,929,960
5023,935,956
5024,947,956
5025,957,955
5026,973,954
5027,993,951
5028,1015,950
5029,1043,950
5030,1076,947
5031,1118,939
5032,1164,927
5033,1205,915
5034,1239,892
5035,1269,867
5036,1290,840
5037,1309,814
5038,1317,786
5039,1301,760
5040,1253,736
5041,1172,719
5042,1074,713
5043,983,720
5044,907,742
5045,867,767
5046,851,797
5047,854,825
5048,864,847
5049,877,863
5050,885,878
5051,893,886
5052,892,900
5053,892,915
5054,890,929
5055,887,941
5056,885,948
5057,886,953
5058,885,956
5059,886,956
5060,885,955
5061,885,954
5062,883,952
5063,879,954
5064,878,954
5065,877,956
5066,878,959
5067,880,960
5068,880,962
5069,882,963
5070,881,964
5071,879,962
5072,878,962
5073,879,958
5074,877,960
5075,875,957
5076,871,961
5077,870,961
5078,874,963
5079,875,964
5080,876,965
5081,877,967
5082,876,966
5083,875,966
5084,875,964
5085,870,964
5086,868,963
5087,866,962
5088,867,961
5089,866,962
5090,867,962
5091,866,966
5092,868,967
5093,870,967
5094,871,970
5095,869,968
5096,867,968
5097,864,967
5098,861,966
5099,860,963
5100,859,961
5101,858,968
5102,858,970
5103,858,970
5104,859,972
5105,857,972
5106,860,975
5107,858,972
5108,859,972
5109,855,972
5110,853,972
5111,849,971
5112,848,972
5113,845,974
5114,846,976
5115,845,980
5116,843,983
5117,847,983
5118,849,985
5119,852,987
5120,850,989
5121,847,988
5122,844,988
5123,847,986
5124,848,987
5125,848,989
5126,850,993
5127,855,995
5128,854,996
5129,859,993
5130,863,996
5131,866,994
5132,867,993
5133,869,991
5134,871,990
5135,872,989
5136,877,987
5137,878,987
5138,881,989
5139,886,986
5140,891,987
5141,896,988
5142,896,985
5143,897,984
5144,901,983
5145,902,979
5146,901,974
5147,902,972
5148,902,970
5149,903,970
5150,904,972
5151,903,968
5152,907,971
5153,909,969
5154,911,968
5155,910,965
5156,910,966
5157,910,963
5158,906,960
5159,908,958
5160,904,958
5161,904,959
5162,903,957
5163,903,959
5164,905,960
5165,906,959
5166,908,962
5167,909,959
5168,907,959
5169,908,959
5170,906,956
5171,904,954
5172,903,954
5173,901,953
5174,902,953
5175,902,957
5176,902,955
5177,903,956
5178,904,958
5179,906,954
5180,904,954
5181,902,954
5182,900,951
5183,900,953
5184,898,951
5185,897,953
5186,896,951
5187,897,955
5188,896,956
5189,898,955
5190,899,959
5191,899,954
5192,898,956
5193,897,955
5194,897,950
5195,896,949
5196,895,951
5197,894,954
5198,893,954
5199,892,954
5200,897,956
5201,896,958
5202,897,958
5203,898,959
5204,896,956
5205,895,955
5206,896,954
5207,896,953
5208,893,954
5209,893,955
5210,896,955
5211,896,956
5212,899,957
5213,900,959
5214,899,960
5215,903,959
5216,903,957
5217,903,954
5218,903,955
5219,902,951
5220,903,955
5221,904,953
5222,906,953
5223,910,955
5224,912,956
5225,914,957
5226,915,960
5227,917,959
5228,916,958
5229,916,955
5230,915,954
5231,916,953
5232,912,953
5233,916,954
5234,914,957
5235,918,960
5236,922,959
5237,924,963
5238,926,962
5239,928,961
5240,931,958
5241,932,957
5242,934,956
5243,935,953
5244,934,951
5245,935,952
5246,935,948
5247,933,948
5248,933,945
5249,934,945
5250,936,940
5251,934,940
5252,931,941
5253,929,941
5254,923,942
5255,920,942
5256,916,943
5257,913,946
5258,912,949
5259,911,950
5260,908,953
5261,907,953
5262,908,956
5263,906,955
5264,902,955
5265,899,952
5266,898,951
5267,899,948
5268,898,947
5269,897,949
5270,899,951
5271,900,954
5272,902,952
5273,903,952
5274,905,953
5275,905,953
5276,904,950
5277,905,949
5278,902,948
5279,904,945
5280,903,944
5281,904,948
5282,905,947
5283,910,948
5284,914,948
5285,918,949
5286,926,950
5287,934,948
5288,943,948
5289,958,944
5290,973,944
5291,998,943
5292,1026,940
5293,1057,939
5294,1100,933
5295,1149,925
5296,1189,910
5297,1226,894
5298,1253,872
5299,1274,847
5300,1287,826
5301,1301,802
5302,1310,778
5303,1300,756
5304,1261,732
5305,1197,716
5306,1120,705
5307,1039,702
5308,965,711
5309,912,725
5310,882,750
5311,869,773
5312,870,795
5313,874,813
5314,874,829
5315,878,845
5316,879,854
5317,881,866
5318,879,881
5319,883,892
5320,884,907
5321,887,923
5322,886,935
5323,889,938
5324,886,945
5325,884,945
5326,882,944
5327,879,946
5328,878,943
5329,877,947
5330,878,946
5331,876,950
5332,877,952
5333,878,955
5334,879,956
5335,880,954
5336,878,954
5337,876,954
5338,875,954
5339,873,952
5340,872,952
5341,868,953
5342,870,954
5343,869,956
5344,871,954
5345,871,958
5346,873,960
5347,872,961
5348,872,960
5349,872,959
5350,869,956
5351,867,957
5352,865,958
5353,864,958
5354,863,956
5355,864,959
5356,863,962
5357,864,963
5358,865,965
5359,867,964
5360,865,962
5361,862,962
5362,861,962
5363,857,961
5364,853,962
5365,854,963
5366,852,965
5367,853,966
5368,853,968
5369,853,969
5370,854,970
5371,854,972
5372,852,969
5373,849,969
5374,848,971
5375,848,969
5376,845,972
5377,843,972
5378,843,973
5379,844,977
5380,846,981
5381,846,984
5382,848,982
5383,848,985
5384,848,983
5385,847,985
5386,847,983
5387,847,982
5388,847,984
5389,848,985
5390,847,985
5391,851,988
5392,853,990
5393,855,994
5394,857,992
5395,861,990
5396,861,990
5397,865,988
5398,867,986
5399,870,986
5400,869,982
5401,873,983
5402,878,983
5403,881,985
5404,887,985
5405,890,983
5406,895,985
5407,898,982
5408,896,977
5409,899,974
5410,899,971
5411,901,969
5412,899,966
5413,899,965
5414,901,965
5415,903,965
5416,904,964
5417,905,966
5418,906,966
5419,908,962
5420,910,962
5421,908,958
5422,905,957
5423,907,956
5424,905,954
5425,904,955
5426,903,956
5427,906,956
5428,907,958
5429,907,957
5430,909,957
5431,909,954
5432,906,954
5433,904,953
5434,901,952
5435,900,950
5436,896,949
5437,898,951
5438,898,948
5439,896,952
5440,899,954
5441,903,951
5442,904,954
5443,902,950
5444,902,952
5445,902,951
5446,900,948
5447,896,948
5448,897,947
5449,893,950
5450,893,949
5451,893,954
5452,896,953
5453,897,956
5454,897,956
5455,896,954
5456,898,952
5457,896,950
5458,895,951
5459,892,950
5460,894,950
5461,892,952
5462,889,955
5463,895,955
5464,894,956
5465,894,956
5466,896,955
5467,897,956
5468,894,956
5469,897,953
5470,897,953
5471,894,951
5472,895,951
5473,896,953
5474,895,953
5475,897,954
5476,900,956
5477,899,957
5478,903,958
5479,903,958
5480,903,957
5481,903,956
5482,902,955
5483,898,953
5484,899,951
5485,900,952
5486,903,952
5487,905,955
5488,907,957
5489,909,957
5490,911,959
5491,913,955
5492,916,957
5493,915,955
5494,912,954
5495,911,953
5496,912,954
5497,914,955
5498,914,957
5499,914,957
5500,917,958
5501,921,963
5502,924,963
5503,928,961
5504,930,963
5505,933,959
5506,931,959
5507,934,954
5508,932,953
5509,932,953
5510,935,949
5511,935,949
5512,937,949
5513,935,947
5514,936,945
5515,935,944
5516,932,942
5517,929,942
5518,927,943
5519,924,943
5520,918,943
5521,916,945
5522,914,947
5523,914,949
5524,913,952
5525,911,953
5526,911,955
5527,908,955
5528,906,955
5529,900,951
5530,899,953
5531,897,952
5532,894,950
5533,892,953
5534,893,955
5535,896,955
5536,897,955
5537,897,958
5538,900,959
5539,902,957
5540,902,956
5541,899,955
5542,899,954
5543,898,952
5544,899,950
5545,898,952
5546,896,952
5547,898,954
5548,903,952
5549,903,957
5550,906,954
5551,909,955
5552,911,954
5553,913,952
5554,917,950
5555,921,948
5556,929,948
5557,945,950
5558,968,948
5559,997,950
5560,1029,951
5561,1068,948
5562,1111,940
5563,1153,927
5564,1192,912
5565,1225,889
5566,1251,863
5567,1268,839
5568,1286,817
5569,1296,795
5570,1300,775
5571,1283,756
5572,1243,736
5573,1180,721
5574,1109,711
5575,1034,706
5576,968,711
5577,919,722
5578,890,738
5579,875,759
5580,873,778
5581,872,801
5582,875,819
5583,876,837
5584,874,851
5585,877,865
5586,879,881
5587,880,891
5588,883,906
5589,884,919
5590,885,929
5591,882,938
5592,881,943
5593,877,946
5594,878,951
5595,878,951
5596,879,955
5597,878,954
5598,880,958
5599,879,955
5600,878,957
5601,879,958
5602,876,957
5603,876,957
5604,874,955
5605,871,958
5606,870,959
5607,869,961
5608,872,962
5609,871,963
5610,874,963
5611,872,961
5612,873,960
5613,871,961
5614,868,958
5615,869,957
5616,865,957
5617,866,960
5618,867,962
5619,866,962
5620,866,962
5621,868,965
5622,865,966
5623,866,965
5624,868,966
5625,866,965
5626,863,963
5627,861,962
5628,859,962
5629,858,964
5630,859,966
5631,857,966
5632,859,968
5633,858,970
5634,860,971
5635,861,972
5636,858,970
5637,858,969
5638,854,970
5639,850,971
5640,849,969
5641,848,970
5642,847,972
5643,848,974
5644,846,976
5645,847,981
5646,848,982
5647,848,981
5648,847,984
5649,846,981
5650,842,980
5651,844,981
5652,843,981
5653,841,983
5654,844,986
5655,844,989
5656,845,991
5657,846,992
5658,849,995
5659,849,994
5660,851,995
5661,851,994
5662,851,993
5663,853,992
5664,852,991
5665,854,991
5666,857,993
5667,860,995
5668,865,996
5669,869,995
5670,874,996
5671,876,992
5672,879,993
5673,880,988
5674,882,987
5675,885,984
5676,884,981
5677,886,984
5678,888,980
5679,890,981
5680,894,980
5681,895,982
5682,896,980
5683,899,976
5684,899,977
5685,901,973
5686,899,970
5687,896,969
5688,897,967
5689,900,969
5690,899,967
5691,898,968
5692,902,968
5693,902,968
5694,904,970
5695,905,967
5696,904,965
5697,902,963
5698,901,960
5699,899,958
5700,898,957
5701,899,959
5702,900,959
5703,902,960
5704,901,959
5705,901,960
5706,900,964
5707,897,961
5708,899,961
5709,900,957
5710,899,955
5711,896,954
5712,896,954
5713,894,954
5714,894,957
5715,891,956
5716,893,959
5717,893,959
5718,892,960
5719,894,960
5720,894,960
5721,893,957
5722,893,957
5723,889,956
5724,886,955
5725,885,956
5726,884,958
5727,888,958
5728,888,959
5729,892,961
5730,889,962
5731,893,963
5732,892,961
5733,891,961
5734,889,960
5735,887,958
5736,888,957
5737,889,957
5738,889,960
5739,889,959
5740,892,961
5741,892,961
5742,895,964
5743,894,964
5744,893,963
5745,893,960
5746,893,961
5747,891,960
5748,891,957
5749,889,959
5750,890,962
5751,892,962
5752,896,963
5753,896,966
5754,900,966
5755,899,965
5756,898,963
5757,900,963
5758,897,961
5759,898,958
5760,898,957
5761,900,960
5762,901,959
5763,902,961
5764,905,961
5765,906,964
5766,911,965
5767,912,965
5768,911,963
5769,911,964
5770,912,962
5771,911,962
5772,910,961
5773,910,964
5774,912,964
5775,913,966
5776,916,965
5777,921,968
5778,923,970
5779,926,969
5780,930,964
5781,932,961
5782,932,960
5783,931,956
5784,931,951
5785,928,951
5786,927,948
5787,927,945
5788,927,946
5789,930,948
5790,929,950
5791,927,950
5792,922,951
5793,917,951
5794,915,952
5795,912,951
5796,908,951
5797,906,953
5798,904,954
5799,903,958
5800,900,959
5801,900,960
5802,899,963
5803,897,960
5804,897,961
5805,898,957
5806,895,957
5807,894,957
5808,893,956
5809,893,954
5810,893,956
5811,894,956
5812,897,960
5813,897,959
5814,900,963
5815,898,959
5816,900,958
5817,900,957
5818,901,954
5819,899,955
5820,900,954
5821,901,956
5822,904,954
5823,904,956
5824,909,955
5825,913,956
5826,921,960
5827,929,957
5828,942,956
5829,954,954
5830,969,952
5831,991,951
5832,1013,949
5833,1038,952
5834,1069,947
5835,1102,943
5836,1140,936
5837,1179,925
5838,1213,909
5839,1239,888
5840,1260,864
5841,1274,840
5842,1287,818
5843,1299,794
5844,1295,773
5845,1271,749
5846,1220,731
5847,1148,714
5848,1064,707
5849,985,708
5850,921,723
5851,882,744
5852,862,769
5853,859,794
5854,864,816
5855,868,831
5856,875,847
5857,877,860
5858,879,876
5859,882,891
5860,881,906
5861,883,919
5862,885,933
5863,883,940
5864,882,946
5865,880,948
5866,877,950
5867,876,950
5868,876,950
5869,874,953
5870,873,954
5871,871,954
5872,874,957
5873,876,961
5874,877,962
5875,875,961
5876,875,962
5877,873,960
5878,873,958
5879,872,959
5880,871,956
5881,869,957
5882,869,960
5883,868,963
5884,870,964
5885,868,966
5886,869,965
5887,869,964
5888,869,965
5889,865,962
5890,864,961
5891,864,960
5892,862,958
5893,860,960
5894,862,962
5895,863,961
5896,863,963
5897,863,965
5898,864,966
5899,862,967
5900,862,963
5901,860,965
5902,859,964
5903,856,962
5904,855,962
5905,854,963
5906,853,965
5907,855,966
5908,853,966
5909,855,968
5910,856,970
5911,855,969
5912,854,970
5913,853,970
5914,851,969
5915,849,967
5916,847,967
5917,844,969
5918,843,970
5919,841,974
5920,843,976
5921,843,976
5922,843,979
5923,844,979
5924,842,980
5925,841,979
5926,840,980
5927,839,981
5928,838,980
5929,837,982
5930,838,985
5931,838,988
5932,842,990
5933,845,992
5934,849,992
5935,848,993
5936,850,995
5937,850,995
5938,851,992
5939,849,991
5940,852,990
5941,854,991
5942,856,992
5943,860,993
5944,865,996
5945,870,994
5946,875,994
5947,877,994
5948,880,993
5949,883,989
5950,884,988
5951,888,983
5952,886,981
5953,888,982
5954,892,981
5955,893,982
5956,894,980
5957,895,982
5958,901,978
5959,898,976
5960,898,975
5961,899,972
5962,897,971
5963,898,969
5964,896,966
5965,896,964
5966,896,964
5967,894,967
5968,898,967
5969,901,968
5970,901,969
5971,903,966
5972,901,966
5973,901,964
5974,899,960
5975,895,958
5976,893,960
5977,894,959
5978,893,960
5979,894,960
5980,896,961
5981,895,962
5982,896,964
5983,897,962
5984,896,961
5985,895,960
5986,893,958
5987,890,957
5988,889,955
5989,889,956
5990,889,958
5991,887,959
5992,891,961
5993,892,963
5994,893,962
5995,893,965
5996,893,963
5997,894,959
5998,890,960
5999,888,959
6000,885,959
6001,885,961
6002,885,962
6003,886,964
6004,888,964
6005,889,964
6006,892,967
6007,894,965
6008,893,964
6009,892,963
6010,891,962
6011,890,960
6012,888,959
6013,888,961
6014,889,963
6015,892,963
6016,892,964
6017,897,967
6018,899,967
6019,900,967
6020,899,968
6021,900,965
6022,896,961
6023,896,961
6024,895,960
6025,895,959
6026,898,961
6027,898,961
6028,899,963
6029,903,965
6030,904,968
6031,907,967
6032,906,963
6033,906,962
6034,907,961
6035,905,960
6036,903,959
6037,906,962
6038,905,964
6039,908,965
6040,910,967
6041,912,969
6042,916,970
6043,918,969
6044,918,969
6045,922,967
6046,922,967
6047,923,966
6048,923,963
6049,923,963
6050,928,962
6051,929,962
6052,930,961
6053,934,960
6054,935,959
6055,934,956
6056,933,953
6057,929,949
6058,929,947
6059,924,942
6060,924,945
6061,918,948
6062,915,949
6063,912,953
6064,910,956
6065,911,960
6066,910,963
6067,910,961
6068,904,960
6069,901,961
6070,898,959
6071,893,959
6072,891,958
6073,891,960
6074,890,959
6075,892,959
6076,895,962
6077,894,962
6078,896,963
6079,900,961
6080,899,962
6081,897,960
6082,895,959
6083,898,956
6084,895,958
6085,892,957
6086,895,958
6087,898,960
6088,902,959
6089,906,961
6090,910,962
6091,914,963
6092,916,959
6093,923,958
6094,928,955
6095,938,956
6096,952,953
6097,970,956
6098,994,955
6099,1022,958
6100,1055,954
6101,1096,951
6102,1137,942
6103,1178,929
6104,1214,911
6105,1238,888
6106,1259,864
6107,1277,837
6108,1287,816
6109,1295,793
6110,1289,771
6111,1258,751
6112,1201,731
6113,1124,718
6114,1043,714
6115,970,716
6116,914,730
6117,877,750
6118,860,772
6119,861,792
6120,867,811
6121,870,830
6122,875,845
6123,877,860
6124,878,874
6125,880,886
6126,882,899
6127,886,913
6128,886,923
6129,886,937
6130,884,945
6131,883,950
6132,879,956
6133,876,960
6134,876,962
6135,875,963
6136,875,964
6137,877,967
6138,880,968
6139,880,969
6140,879,969
6141,876,969
6142,876,967
6143,874,970
6144,872,968
6145,873,968
6146,873,969
6147,874,972
6148,873,974
6149,870,976
6150,873,979
6151,875,977
6152,871,976
6153,871,975
6154,869,972
6155,868,972
6156,866,972
6157,865,974
6158,866,974
6159,865,978
6160,865,977
6161,865,981
6162,867,980
6163,869,979
6164,867,979
6165,867,976
6166,865,974
6167,865,976
6168,861,978
6169,858,977
6170,860,979
6171,859,981
6172,860,982
6173,862,982
6174,861,987
6175,861,984
6176,858,984
6177,857,982
6178,856,981
6179,854,983
6180,853,981
6181,851,983
6182,851,985
6183,850,986
6184,850,988
6185,849,991
6186,851,991
6187,849,994
6188,847,994
6189,848,993
6190,846,993
6191,843,995
6192,842,994
6193,844,995
6194,842,998
6195,843,1001
6196,846,1003
6197,846,1005
6198,851,1008
6199,850,1007
6200,850,1008
6201,852,1008
6202,852,1006
6203,852,1005
6204,852,1006
6205,853,1006
6206,856,1007
6207,859,1009
6208,864,1009
6209,865,1011
6210,871,1011
6211,874,1009
6212,876,1009
6213,880,1007
6214,883,1004
6215,885,1001
6216,888,996
6217,889,998
6218,894,997
6219,895,998
6220,900,995
6221,901,995
6222,904,994
6223,907,993
6224,907,991
6225,907,987
6226,905,984
6227,905,984
6228,905,983
6229,902,981
6230,905,979
6231,903,982
6232,902,982
6233,904,984
6234,904,985
6235,904,981
6236,906,983
6237,905,979
6238,902,977
6239,901,977
6240,901,972
6241,899,972
6242,900,974
6243,898,974
6244,896,975
6245,900,978
6246,899,979
6247,902,977
6248,902,976
6249,902,974
6250,900,972
6251,898,970
6252,898,971
6253,896,970
6254,896,972
6255,897,973
6256,896,973
6257,899,975
6258,899,975
6259,900,974
6260,900,973
6261,898,973
6262,896,974
6263,895,971
6264,892,969
6265,891,969
6266,892,971
6267,895,973
6268,895,973
6269,896,977
6270,895,977
6271,897,975
6272,897,973
6273,895,974
6274,895,974
6275,893,970
6276,893,970
6277,890,971
6278,893,969
6279,894,973
6280,895,977
6281,894,974
6282,899,977
6283,900,975
6284,900,973
6285,896,973
6286,896,973
6287,898,971
6288,896,969
6289,895,970
6290,896,970
6291,898,970
6292,901,974
6293,899,974
6294,903,976
6295,907,975
6296,904,974
6297,905,971
6298,909,971
6299,908,967
6300,907,968
6301,907,968
6302,909,971
6303,912,972
6304,912,972
6305,914,976
6306,914,978
6307,918,978
6308,917,976
6309,922,976
6310,921,975
6311,921,974
6312,925,974
6313,924,971
6314,928,973
6315,926,972
6316,933,974
6317,934,972
6318,938,971
6319,938,967
6320,939,966
6321,937,961
6322,932,959
6323,931,955
6324,928,954
6325,926,954
6326,924,958
6327,918,959
6328,914,960
6329,913,965
6330,914,970
6331,913,970
6332,911,969
6333,909,969
6334,906,967
6335,901,964
6336,895,967
6337,891,966
6338,892,968
6339,892,969
6340,893,971
6341,895,973
6342,898,973
6343,900,972
6344,900,969
6345,900,968
6346,897,969
6347,895,965
6348,895,963
6349,896,964
6350,898,964
6351,896,965
6352,900,968
6353,902,968
6354,906,969
6355,910,968
6356,910,967
6357,913,966
6358,916,962
6359,925,960
6360,937,960
6361,954,960
6362,980,962
6363,1011,962
6364,1048,959
6365,1095,959
6366,1144,950
6367,1186,935
6368,1221,913
6369,1250,888
6370,1270,863
6371,1286,838
6372,1294,815
6373,1290,795
6374,1260,772
6375,1209,754
6376,1133,739
6377,1048,731
6378,971,734
6379,913,743
6380,875,758
6381,860,779
6382,858,799
6383,864,816
6384,869,835
6385,870,847
6386,873,863
6387,873,878
6388,875,897
6389,878,910
6390,881,926
6391,885,934
6392,879,946
6393,878,954
6394,878,959
6395,876,963
6396,874,960
6397,871,963
6398,872,966
6399,872,965
6400,875,968
6401,874,972
6402,876,974
6403,875,977
6404,873,976
6405,871,973
6406,870,974
6407,871,973
6408,867,970
6409,867,972
6410,867,974
6411,867,975
6412,867,975
6413,866,975
6414,868,980
6415,867,978
6416,868,978
6417,869,975
6418,867,975
6419,865,975
6420,862,975
6421,860,976
6422,859,976
6423,857,977
6424,861,982
6425,863,982
6426,863,983
6427,864,984
6428,862,980
6429,860,980
6430,860,981
6431,857,981
6432,851,981
6433,851,980
6434,850,982
6435,849,983
6436,850,984
6437,851,985
6438,852,987
6439,851,988
6440,851,986
6441,852,987
6442,850,984
6443,848,985
6444,844,983
6445,841,983
6446,842,987
6447,840,990
6448,839,992
6449,840,994
6450,842,995
6451,842,998
6452,843,997
6453,844,996
6454,841,998
6455,842,998
6456,839,997
6457,840,996
6458,838,999
6459,837,1002
6460,841,1004
6461,841,1004
6462,841,1008
6463,845,1009
6464,847,1005
6465,845,1005
6466,846,1005
6467,846,1005
6468,847,1006
6469,850,1005
6470,853,1007
6471,857,1008
6472,859,1007
6473,864,1006
6474,867,1008
6475,871,1008
6476,874,1007
6477,875,1005
6478,875,1001
6479,876,1000
6480,878,999
6481,879,997
6482,884,996
6483,888,996
6484,889,998
6485,889,998
6486,892,996
6487,895,993
6488,892,993
6489,896,992
6490,897,990
6491,894,986
6492,896,982
6493,895,978
6494,892,980
6495,897,981
6496,897,981
6497,897,982
6498,898,984
6499,899,979
6500,899,977
6501,898,978
6502,898,975
6503,898,971
6504,898,971
6505,895,971
6506,895,971
6507,895,972
6508,894,974
6509,892,976
6510,894,976
6511,894,975
6512,892,974
6513,892,974
6514,893,971
6515,890,971
6516,887,969
6517,888,972
6518,889,970
6519,889,972
6520,890,974
6521,888,976
6522,889,975
6523,890,977
6524,890,974
6525,891,972
6526,889,972
6527,886,968
6528,886,970
6529,886,971
6530,886,971
6531,887,972
6532,888,973
6533,888,974
6534,890,974
6535,890,977
6536,890,973
6537,891,974
6538,890,971
6539,888,970
6540,887,968
6541,887,970
6542,887,972
6543,887,970
6544,887,970
6545,888,974
6546,887,973
6547,890,973
6548,890,971
6549,889,970
6550,888,970
6551,890,967
6552,886,967
6553,887,967
6554,887,969
6555,888,969
6556,890,973
6557,892,973
6558,894,971
6559,896,972
6560,895,972
6561,893,971
6562,894,969
6563,893,970
6564,895,967
6565,894,967
6566,895,968
6567,897,971
6568,900,971
6569,901,969
6570,906,972
6571,906,973
6572,907,971
6573,908,970
6574,908,971
6575,908,970
6576,908,970
6577,906,968
6578,907,970
6579,909,971
6580,915,973
6581,922,976
6582,922,973
6583,927,973
6584,926,968
6585,927,963
6586,926,959
6587,927,956
6588,922,953
6589,920,951
6590,921,952
6591,920,950
6592,921,956
6593,919,955
6594,914,960
6595,914,960
6596,908,961
6597,908,962
6598,905,960
6599,901,963
6600,897,962
6601,893,962
6602,890,962
6603,888,965
6604,888,966
6605,889,966
6606,892,971
6607,892,970
6608,895,968
6609,894,969
6610,895,966
6611,894,962
6612,892,964
6613,892,964
6614,892,964
6615,892,965
6616,893,965
6617,895,968
6618,896,968
6619,898,968
6620,899,965
6621,900,965
6622,900,963
6623,901,961
6624,899,963
6625,901,961
6626,903,961
6627,907,963
6628,912,965
6629,920,964
6630,930,965
6631,942,965
6632,955,965
6633,971,964
6634,987,961
6635,1007,960
6636,1029,960
6637,1059,959
6638,1093,955
6639,1130,949
6640,1169,943
6641,1205,928
6642,1229,908
6643,1252,889
6644,1271,867
6645,1290,845
6646,1302,822
6647,1298,798
6648,1256,773
6649,1186,753
6650,1096,741
6651,1005,737
6652,926,743
6653,875,762
6654,850,785
6655,845,809
6656,851,831
6657,861,850
6658,869,864
6659,874,877
6660,877,890
6661,876,903
6662,873,918
6663,872,932
6664,875,945
6665,874,953
6666,875,960
6667,876,962
6668,873,962
6669,871,961
6670,873,959
6671,869,962
6672,866,962
6673,865,961
6674,864,964
6675,863,964
6676,865,968
6677,867,971
6678,867,970
6679,870,972
6680,868,970
6681,868,968
6682,866,970
6683,865,969
6684,866,969
6685,863,968
6686,862,967
6687,863,970
6688,863,969
6689,863,972
6690,862,973
6691,863,975
6692,863,974
6693,863,973
6694,863,970
6695,861,969
6696,860,969
6697,858,969
6698,857,971
6699,857,972
6700,857,974
6701,858,976
6702,859,975
6703,860,978
6704,859,977
6705,858,976
6706,857,977
6707,854,975
6708,853,975
6709,853,974
6710,851,977
6711,852,977
6712,852,979
6713,852,980
6714,853,980
6715,851,981
6716,852,981
6717,850,980
6718,847,981
6719,846,978
6720,845,978
6721,840,980
6722,841,981
6723,840,984
6724,840,984
6725,842,987
6726,845,990
6727,846,992
6728,844,991
6729,842,993
6730,841,991
6731,841,991
6732,842,991
6733,839,992
6734,839,996
6735,843,998
6736,844,1000
6737,846,1001
6738,849,1003
6739,850,1002
6740,853,1001
6741,854,999
6742,853,1000
6743,856,997
6744,858,997
6745,859,997
6746,864,996
6747,865,997
6748,870,999
6749,872,998
6750,878,999
6751,881,998
6752,884,997
6753,887,996
6754,887,990
6755,892,991
6756,892,987
6757,892,986
6758,895,984
6759,897,984
6760,899,986
6761,901,984
6762,902,986
6763,904,985
6764,904,981
6765,905,978
6766,905,977
6767,903,975
6768,902,972
6769,903,973
6770,902,970
6771,902,972
6772,901,971
6773,904,972
6774,905,973
6775,906,974
6776,904,971
6777,906,968
6778,903,965
6779,902,965
6780,901,963
6781,899,963
6782,899,964
6783,900,965
6784,900,968
6785,899,967
6786,900,966
6787,901,968
6788,902,967
6789,903,965
6790,902,961
6791,900,959
6792,899,961
6793,898,958
6794,897,960
6795,898,960
6796,899,964
6797,897,963
6798,897,965
6799,899,965
6800,898,962
6801,896,963
6802,895,961
6803,895,960
6804,893,961
6805,896,958
6806,896,962
6807,894,960
6808,894,962
6809,896,964
6810,897,967
6811,897,965
6812,898,963
6813,897,964
6814,898,960
6815,899,960
6816,894,960
6817,895,960
6818,893,961
6819,895,962
6820,898,963
6821,897,963
6822,899,964
6823,899,966
6824,901,962
6825,900,962
6826,899,962
6827,899,959
6828,897,959
6829,898,960
6830,895,960
6831,897,960
6832,901,962
6833,902,962
6834,902,964
6835,906,964
6836,907,963
6837,905,961
6838,906,959
6839,905,958
6840,904,957
6841,903,958
6842,903,961
6843,906,960
6844,908,962
6845,911,964
6846,911,963
6847,915,966
6848,912,963
6849,914,961
6850,915,962
6851,914,961
6852,914,961
6853,913,960
6854,914,962
6855,917,963
6856,918,966
6857,924,967
6858,928,968
6859,930,967
6860,933,965
6861,933,962
6862,932,960
6863,933,956
6864,932,953
6865,932,950
6866,930,950
6867,928,949
6868,929,949
6869,929,947
6870,930,946
6871,930,947
6872,928,948
6873,923,949
6874,920,949
6875,916,952
6876,911,953
6877,908,951
6878,905,954
6879,903,955
6880,903,958
6881,902,960
6882,901,962
6883,900,963
6884,900,961
6885,900,960
6886,897,956
6887,897,956
6888,896,955
6889,898,952
6890,896,957
6891,896,958
6892,897,960
6893,899,958
6894,901,960
6895,903,960
6896,905,959
6897,903,959
6898,903,956
6899,903,956
6900,902,954
6901,903,952
6902,904,955
6903,908,953
6904,911,955
6905,919,956
6906,931,955
6907,944,959
6908,963,957
6909,983,957
6910,1006,957
6911,1034,951
6912,1064,946
6913,1101,943
6914,1143,934
6915,1184,919
6916,1219,906
6917,1247,883
6918,1270,860
6919,1293,835
6920,1313,813
6921,1320,791
6922,1305,771
6923,1266,747
6924,1196,730
6925,1112,718
6926,1027,715
6927,954,722
6928,905,735
6929,877,760
6930,865,782
6931,868,806
6932,872,822
6933,874,839
6934,876,853
6935,876,865
6936,876,878
6937,878,887
6938,878,903
6939,879,918
6940,879,934
6941,879,946
6942,879,954
6943,876,960
6944,877,958
6945,874,960
6946,873,959
6947,872,956
6948,871,959
6949,872,960
6950,869,961
6951,868,964
6952,871,966
6953,871,967
6954,871,970
6955,873,971
6956,874,970
6957,872,971
6958,869,967
6959,867,967
6960,866,965
6961,867,965
6962,864,968
6963,865,969
6964,865,970
6965,866,971
6966,866,970
6967,867,974
6968,868,972
6969,866,972
6970,863,969
6971,863,970
6972,861,969
6973,859,967
6974,859,971
6975,861,974
6976,859,973
6977,859,974
6978,858,978
6979,858,976
6980,859,976
6981,855,974
6982,857,975
6983,855,975
6984,853,975
6985,852,974
6986,848,974
6987,847,976
6988,847,978
6989,849,980
6990,850,983
6991,849,982
6992,846,984
6993,847,984
6994,844,982
6995,843,982
6996,840,981
6997,838,980
6998,839,983
6999,840,986
7000,840,985
7001,839,988
7002,842,993
7003,845,992
7004,843,992
7005,843,995
7006,840,995
7007,840,993
7008,839,994
7009,841,992
7010,841,995
7011,843,997
7012,846,998
7013,847,1001
7014,851,1002
7015,853,1004
7016,854,1003
7017,857,1001
7018,858,998
7019,862,995
7020,862,995
7021,866,995
7022,867,997
7023,873,995
7024,878,996
7025,883,997
7026,887,996
7027,890,992
7028,890,992
7029,891,990
7030,893,986
7031,893,985
7032,893,982
7033,894,980
7034,893,976
7035,898,979
7036,897,977
7037,899,978
7038,901,977
7039,903,978
7040,903,974
7041,900,973
7042,899,973
7043,896,970
7044,896,968
7045,895,967
7046,895,968
7047,893,969
7048,895,968
7049,897,969
7050,900,970
7051,899,969
7052,900,968
7053,898,968
7054,897,966
7055,897,964
7056,895,964
7057,894,962
7058,893,963
7059,894,962
7060,895,964
7061,896,965
7062,895,968
7063,895,968
7064,897,965
7065,895,964
7066,892,965
7067,890,961
7068,891,959
7069,889,959
7070,888,961
7071,888,961
7072,889,963
7073,890,964
7074,890,966
7075,890,967
7076,890,965
7077,887,962
7078,890,962
7079,888,961
7080,888,961
7081,886,961
7082,886,963
7083,886,963
7084,889,964
7085,890,964
7086,891,967
7087,892,965
7088,893,962
7089,894,961
7090,891,961
7091,890,960
7092,889,958
7093,888,959
7094,891,961
7095,891,962
7096,894,963
7097,894,966
7098,896,968
7099,895,967
7100,898,965
7101,900,964
7102,898,961
7103,898,960
7104,897,959
7105,900,957
7106,897,958
7107,901,961
7108,903,963
7109,906,964
7110,909,965
7111,910,967
7112,910,964
7113,910,964
7114,909,962
7115,909,964
7116,910,961
7117,910,962
7118,907,964
7119,912,965
7120,916,967
7121,914,970
7122,921,969
7123,926,970
7124,926,967
7125,928,966
7126,932,963
7127,931,958
7128,930,955
7129,928,951
7130,929,950
7131,928,948
7132,927,949
7133,927,948
7134,926,948
7135,926,950
7136,925,949
7137,921,952
7138,917,951
7139,915,952
7140,909,952
7141,908,953
7142,906,955
7143,904,956
7144,901,958
7145,900,960
7146,898,961
7147,897,961
7148,895,960
7149,895,960
7150,894,957
7151,895,957
7152,894,955
7153,893,952
7154,891,957
7155,891,956
7156,894,957
7157,892,958
7158,894,959
7159,897,957
7160,898,956
7161,897,956
7162,899,954
7163,898,955
7164,894,951
7165,896,950
7166,896,951
7167,900,953
7168,905,953
7169,907,954
7170,917,954
7171,928,955
7172,941,954
7173,960,952
7174,979,951
7175,1010,948
7176,1040,946
7177,1076,942
7178,1114,938
7179,1154,921
7180,1193,910
7181,1220,892
7182,1245,869
7183,1264,849
7184,1281,826
7185,1297,805
7186,1297,780
7187,1287,760
7188,1250,740
7189,1190,720
7190,1114,708
7191,1038,704
7192,968,710
7193,914,725
7194,882,746
7195,868,771
7196,865,797
7197,869,816
7198,871,834
7199,874,850
7200,877,862
7201,879,874
7202,878,889
7203,879,904
7204,877,916
7205,879,932
7206,880,941
7207,878,951
7208,881,955
7209,878,953
7210,876,952
7211,877,953
7212,873,954
7213,873,953
7214,870,956
7215,869,957
7216,871,960
7217,873,962
7218,869,962
7219,871,964
7220,870,961
7221,871,962
7222,870,962
7223,870,961
7224,871,961
7225,870,959
7226,868,961
7227,868,959
7228,867,965
7229,867,964
7230,867,966
7231,868,967
7232,868,965
7233,868,961
7234,865,963
7235,864,962
7236,861,962
7237,861,961
7238,859,963
7239,860,963
7240,860,966
7241,861,968
7242,858,968
7243,863,970
7244,861,969
7245,860,969
7246,858,967
7247,854,967
7248,852,967
7249,854,966
7250,851,967
7251,848,969
7252,848,972
7253,848,973
7254,849,973
7255,848,975
7256,849,973
7257,845,976
7258,844,975
7259,841,977
7260,842,976
7261,841,974
7262,839,977
7263,841,979
7264,839,981
7265,841,984
7266,842,987
7267,843,989
7268,841,987
7269,841,988
7270,843,990
7271,841,990
7272,840,990
7273,842,990
7274,841,990
7275,845,991
7276,849,993
7277,850,993
7278,855,998
7279,857,998
7280,860,997
7281,861,997
7282,865,994
7283,867,991
7284,873,990
7285,874,986
7286,877,987
7287,881,987
7288,884,988
7289,889,985
7290,891,985
7291,893,985
7292,893,982
7293,894,979
7294,893,976
7295,892,974
7296,891,969
7297,893,968
7298,893,968
7299,895,967
7300,897,968
7301,899,968
7302,897,969
7303,897,969
7304,901,965
7305,900,966
7306,900,964
7307,899,961
7308,898,958
7309,894,958
7310,895,956
7311,895,959
7312,896,959
7313,900,960
7314,895,961
7315,896,962
7316,901,956
7317,897,955
7318,897,957
7319,896,955
7320,893,952
7321,892,954
7322,893,955
7323,892,953
7324,890,955
7325,893,958
7326,893,957
7327,894,960
7328,893,960
7329,896,957
7330,892,957
7331,889,955
7332,893,952
7333,892,954
7334,890,954
7335,887,952
7336,890,956
7337,890,958
7338,891,960
7339,891,962
7340,890,960
7341,890,961
7342,889,960
7343,891,957
7344,888,957
7345,886,957
7346,884,957
7347,886,957
7348,888,961
7349,891,963
7350,893,963
7351,891,964
7352,892,960
7353,894,963
7354,892,960
7355,892,959
7356,891,960
7357,893,957
7358,894,958
7359,895,958
7360,894,960
7361,897,961
7362,898,962
7363,902,965
7364,903,963
7365,905,961
7366,906,961
7367,904,960
7368,905,958
7369,906,956
7370,906,958
7371,906,961
7372,908,961
7373,910,964
7374,913,965
7375,912,968
7376,914,965
7377,918,965
7378,918,964
7379,919,963
7380,920,962
7381,921,962
7382,924,964
7383,926,964
7384,926,964
7385,929,960
7386,931,961
7387,935,960
7388,935,953
7389,933,949
7390,930,944
7391,928,943
7392,923,941
7393,919,943
7394,917,944
7395,913,947
7396,911,949
7397,911,953
7398,910,956
7399,911,959
7400,909,959
7401,906,955
7402,903,954
7403,899,956
7404,896,954
7405,894,953
7406,892,956
7407,893,957
7408,895,959
7409,896,960
7410,898,959
7411,896,962
7412,897,959
7413,898,958
7414,898,955
7415,898,954
7416,896,953
7417,895,953
7418,893,956
7419,895,954
7420,898,954
7421,903,956
7422,903,956
7423,906,960
7424,907,958
7425,912,956
7426,911,956
7427,912,954
7428,920,953
7429,928,951
7430,938,951
7431,952,954
7432,975,954
7433,995,954
7434,1021,957
7435,1052,954
7436,1088,951
7437,1122,942
7438,1156,927
7439,1186,912
7440,1216,894
7441,1236,869
7442,1255,846
7443,1270,824
7444,1283,806
7445,1289,787
7446,1278,767
7447,1247,747
7448,1192,728
7449,1119,712
7450,1046,702
7451,977,704
7452,924,717
7453,889,734
7454,873,756
7455,867,786
7456,868,808
7457,872,829
7458,878,848
7459,878,867
7460,879,882
7461,882,898
7462,883,912
7463,877,924
7464,880,938
7465,880,946
7466,877,953
7467,876,956
7468,875,956
7469,876,957
7470,875,958
7471,879,958
7472,876,960
7473,877,961
7474,877,961
7475,874,960
7476,872,959
7477,869,957
7478,869,959
7479,869,961
7480,868,963
7481,870,966
7482,872,966
7483,871,965
7484,873,967
7485,872,962
7486,867,963
7487,868,962
7488,868,962
7489,866,960
7490,864,963
7491,864,963
7492,865,966
7493,863,966
7494,864,968
7495,864,971
7496,869,967
7497,865,969
7498,864,967
7499,862,964
7500,859,966
7501,857,965
7502,857,964
7503,855,965
7504,855,971
7505,857,970
7506,857,974
7507,858,974
7508,857,972
7509,857,975
7510,856,973
7511,856,970
7512,852,970
7513,851,970
7514,849,972
7515,850,975
7516,850,978
7517,848,981
7518,848,980
7519,847,983
7520,847,985
7521,846,984
7522,844,984
7523,844,984
7524,845,985
7525,843,985
7526,843,985
7527,843,988
7528,843,991
7529,844,996
7530,845,998
7531,849,999
7532,849,999
7533,851,1000
7534,853,998
7535,854,1000
7536,857,999
7537,858,997
7538,860,998
7539,864,998
7540,868,1001
7541,875,1001
7542,877,1001
7543,885,1001
7544,885,1001
7545,889,998
7546,892,992
7547,891,994
7548,895,991
7549,894,986
7550,896,985
7551,896,986
7552,898,990
7553,903,985
7554,903,986
7555,907,986
7556,906,984
7557,907,981
7558,906,979
7559,905,977
7560,904,974
7561,903,971
7562,902,973
7563,902,972
7564,901,970
7565,904,975
7566,906,975
7567,907,973
7568,905,974
7569,908,971
7570,906,968
7571,903,967
7572,901,966
7573,901,964
7574,900,966
7575,900,967
7576,899,966
7577,900,969
7578,900,969
7579,903,971
7580,901,970
7581,902,967
7582,900,967
7583,904,966
7584,899,963
7585,899,963
7586,899,965
7587,897,964
7588,898,967
7589,898,966
7590,901,968
7591,901,969
7592,901,970
7593,900,968
7594,900,968
7595,899,966
7596,898,966
7597,896,964
7598,895,965
7599,895,967
7600,894,970
7601,897,969
7602,896,973
7603,897,973
7604,900,970
7605,898,971
7606,900,970
7607,897,967
7608,898,966
7609,895,966
7610,893,965
7611,895,967
7612,898,969
7613,899,971
7614,898,971
7615,901,973
7616,902,972
7617,901,970
7618,898,969
7619,901,971
7620,902,967
7621,901,966
7622,901,967
7623,901,967
7624,904,969
7625,907,966
7626,907,971
7627,909,972
7628,913,971
7629,914,971
7630,913,968
7631,915,967
7632,914,969
7633,913,966
7634,914,969
7635,914,968
7636,917,970
7637,919,971
7638,920,974
7639,923,976
7640,923,973
7641,924,975
7642,929,971
7643,928,972
7644,929,969
7645,928,969
7646,933,968
7647,932,966
7648,934,968
7649,935,966
7650,936,965
7651,939,964
7652,937,960
7653,934,957
7654,936,956
7655,933,952
7656,933,951
7657,930,951
7658,926,953
7659,925,957
7660,921,958
7661,919,961
7662,919,965
7663,918,965
7664,918,964
7665,915,966
7666,913,964
7667,908,963
7668,905,963
7669,900,963
7670,898,965
7671,898,963
7672,899,966
7673,901,965
7674,903,966
7675,903,969
7676,906,966
7677,906,966
7678,902,964
7679,902,962
7680,902,962
7681,901,960
7682,903,960
7683,905,963
7684,908,963
7685,907,964
7686,912,967
7687,914,964
7688,915,964
7689,919,964
7690,922,961
7691,925,960
7692,930,960
7693,941,958
7694,956,959
7695,973,960
7696,995,960
7697,1017,962
7698,1043,964
7699,1073,965
7700,1105,959
7701,1139,952
7702,1173,943
7703,1205,928
7704,1229,909
7705,1248,888
7706,1264,866
7707,1281,846
7708,1299,826
7709,1305,806
7710,1294,785
7711,1257,765
7712,1194,746
7713,1116,732
7714,1035,727
7715,964,725
7716,912,736
7717,880,753
7718,866,774
7719,864,797
7720,869,817
7721,872,839
7722,877,855
7723,880,867
7724,883,878
7725,884,888
7726,886,901
7727,885,911
7728,886,921
7729,883,931
7730,881,939
7731,878,948
7732,878,956
7733,879,959
7734,879,964
7735,881,964
7736,881,966
7737,880,964
7738,876,965
7739,876,966
7740,876,963
7741,875,964
7742,875,968
7743,875,968
7744,874,970
7745,875,969
7746,873,972
7747,877,974
7748,877,973
7749,874,974
7750,871,972
7751,872,972
7752,871,971
7753,871,972
7754,871,972
7755,869,972
7756,867,975
7757,870,976
7758,869,979
7759,869,979
7760,870,978
7761,869,981
7762,869,979
7763,866,976
7764,865,974
7765,863,974
7766,862,976
7767,862,976
7768,860,977
7769,860,978
7770,860,981
7771,860,984
7772,861,984
7773,860,981
7774,859,982
7775,858,982
7776,857,981
7777,856,978
7778,850,979
7779,851,980
7780,850,983
7781,850,985
7782,851,986
7783,848,990
7784,850,990
7785,850,990
7786,848,989
7787,847,989
7788,844,988
7789,844,989
7790,843,990
7791,840,991
7792,840,996
7793,844,1000
7794,845,1002
7795,846,1004
7796,848,1004
7797,845,1003
7798,845,1003
7799,846,1002
7800,843,1002
7801,845,1002
7802,845,1000
7803,848,1006
7804,848,1008
7805,851,1012
7806,853,1008
7807,860,1009
7808,862,1010
7809,866,1007
7810,869,1007
7811,872,1006
7812,869,1003
7813,870,1002
7814,876,1001
7815,881,1001
7816,885,1003
7817,888,1002
7818,892,1003
7819,895,1001
7820,896,1000
7821,898,997
7822,901,993
7823,898,990
7824,898,986
7825,899,986
7826,899,983
7827,899,984
7828,901,984
7829,904,983
7830,905,982
7831,906,983
7832,906,981
7833,906,981
7834,905,977
7835,903,976
7836,901,974
7837,900,972
7838,899,971
7839,897,974
7840,897,976
7841,901,975
7842,902,976
7843,904,978
7844,901,975
7845,902,976
7846,901,972
7847,902,974
7848,900,970
7849,898,969
7850,896,970
7851,895,972
7852,897,973
7853,896,975
7854,898,973
7855,898,975
7856,898,974
7857,895,973
7858,896,971
7859,895,970
7860,895,970
7861,894,967
7862,892,970
7863,891,969
7864,894,969
7865,894,971
7866,894,972
7867,895,973
7868,896,974
7869,894,973
7870,894,972
7871,895,971
7872,895,968
7873,895,968
7874,893,969
7875,892,971
7876,893,973
7877,894,971
7878,894,974
7879,896,976
7880,898,974
7881,898,972
7882,898,971
7883,898,970
7884,895,966
7885,895,968
7886,893,969
7887,892,966
7888,895,970
7889,898,971
7890,898,971
7891,901,972
7892,901,973
7893,900,972
7894,903,969
7895,903,966
7896,903,965
7897,903,966
7898,902,965
7899,905,966
7900,909,967
7901,910,972
7902,914,970
7903,917,972
7904,919,972
7905,919,972
7906,919,972
7907,917,971
7908,919,969
7909,918,968
7910,919,970
7911,920,972
7912,923,971
7913,926,972
7914,932,971
7915,935,970
7916,938,970
7917,937,965
7918,938,962
7919,935,960
7920,932,956
7921,931,952
7922,929,950
7923,926,950
7924,927,950
7925,924,955
7926,925,957
7927,920,959
7928,920,961
7929,915,961
7930,914,964
7931,909,960
7932,907,963
7933,905,960
7934,902,962
7935,901,964
7936,898,965
7937,899,969
7938,898,969
7939,899,971
7940,898,972
7941,899,968
7942,901,967
7943,899,965
7944,898,964
7945,897,962
7946,895,964
7947,896,964
7948,897,966
7949,898,970
7950,899,971
7951,903,969
7952,904,968
7953,903,968
7954,904,965
7955,903,964
7956,904,961
7957,902,961
7958,903,962
7959,905,963
7960,908,963
7961,911,966
7962,919,965
7963,931,965
7964,943,965
7965,959,965
7966,979,964
7967,1004,963
7968,1030,962
7969,1062,958
7970,1095,957
7971,1138,950
7972,1175,941
7973,1212,927
7974,1238,908
7975,1260,883
7976,1281,860
7977,1298,836
7978,1303,814
7979,1284,790
7980,1235,769
7981,1160,751
7982,1076,741
7983,992,740
7984,925,744
7985,881,757
7986,860,776
7987,856,795
7988,861,815
7989,867,831
7990,873,844
7991,873,856
7992,870,868
7993,873,879
7994,873,890
7995,875,900
7996,877,915
7997,880,930
7998,882,943
7999,882,953
8000,883,962
8001,880,963
8002,878,965
8003,877,964
8004,872,962
8005,870,961
8006,874,963
8007,876,967
8008,874,969
8009,874,970
8010,872,973
8011,875,974
8012,874,976
8013,872,972
8014,874,974
8015,871,972
8016,869,971
8017,869,970
8018,867,969
8019,867,972
8020,867,974
8021,868,976
8022,868,977
8023,870,979
8024,870,977
8025,867,975
8026,869,976
8027,866,973
8028,864,972
8029,862,974
8030,859,974
8031,860,973
8032,862,976
8033,863,976
8034,865,979
8035,864,983
8036,862,979
8037,863,977
8038,859,977
8039,857,976
8040,859,976
8041,858,975
8042,855,975
8043,853,978
8044,853,979
8045,854,981
8046,854,983
8047,856,986
8048,855,985
8049,854,983
8050,853,982
8051,851,982
8052,851,982
8053,847,981
8054,847,983
8055,845,985
8056,845,988
8057,845,990
8058,845,990
8059,845,993
8060,846,993
8061,844,993
8062,844,994
8063,843,993
8064,845,989
8065,842,992
8066,843,994
8067,843,996
8068,844,996
8069,847,1000
8070,848,999
8071,850,1002
8072,852,1004
8073,854,1003
8074,855,1001
8075,853,1000
8076,856,999
8077,857,999
8078,858,1000
8079,861,999
8080,865,1003
8081,869,1000
8082,871,1006
8083,878,1004
8084,884,1004
8085,886,1000
8086,889,999
8087,891,994
8088,892,992
8089,894,993
8090,895,989
8091,896,989
8092,897,990
8093,902,991
8094,902,987
8095,905,987
8096,907,986
8097,908,982
8098,908,982
8099,907,977
8100,905,975
8101,904,976
8102,903,974
8103,903,973
8104,904,973
8105,905,973
8106,904,975
8107,904,976
8108,908,974
8109,906,971
8110,906,967
8111,905,968
8112,905,967
8113,902,967
8114,903,963
8115,902,967
8116,901,965
8117,902,966
8118,905,968
8119,907,968
8120,907,968
8121,905,966
8122,905,965
8123,904,963
8124,903,962
8125,901,961
8126,899,961
8127,900,961
8128,898,963
8129,901,965
8130,902,966
8131,904,967
8132,904,967
8133,902,964
8134,903,964
8135,901,962
8136,900,960
8137,899,959
8138,897,961
8139,896,961
8140,898,962
8141,900,964
8142,899,966
8143,901,968
8144,903,967
8145,902,963
8146,902,962
8147,903,961
8148,902,961
8149,899,959
8150,898,960
8151,898,959
8152,900,962
8153,901,963
8154,905,965
8155,906,967
8156,907,966
8157,905,964
8158,905,962
8159,906,960
8160,906,958
8161,902,960
8162,904,959
8163,906,959
8164,906,960
8165,908,961
8166,908,961
8167,908,962
8168,914,961
8169,913,963
8170,913,962
8171,917,958
8172,916,958
8173,915,955
8174,915,958
8175,915,958
8176,919,958
8177,921,960
8178,923,961
8179,923,964
8180,927,964
8181,927,962
8182,928,962
8183,929,961
8184,931,960
8185,928,959
8186,931,958
8187,933,957
8188,934,961
8189,937,960
8190,942,960
8191,944,958
8192,945,953
8193,945,949
8194,941,945
8195,941,942
8196,939,940
8197,934,939
8198,930,938
8199,930,943
8200,925,946
8201,924,948
8202,921,953
8203,921,956
8204,919,954
8205,918,957
8206,916,954
8207,913,954
8208,907,953
8209,905,953
8210,904,953
8211,902,952
8212,903,953
8213,904,955
8214,906,958
8215,908,959
8216,909,958
8217,909,957
8218,909,954
8219,908,951
8220,908,953
8221,907,950
8222,908,952
8223,909,953
8224,913,953
8225,916,954
8226,914,957
8227,914,957
8228,918,957
8229,922,955
8230,922,954
8231,925,950
8232,928,951
8233,932,946
8234,941,947
8235,952,951
8236,968,950
8237,988,953
8238,1011,954
8239,1039,955
8240,1072,952
8241,1102,947
8242,1138,938
8243,1175,927
8244,1208,915
8245,1233,896
8246,1255,876
8247,1273,858
8248,1290,838
8249,1307,824
8250,1324,804
8251,1328,787
8252,1310,770
8253,1266,748
8254,1199,731
8255,1124,718
8256,1044,711
8257,977,714
8258,925,723
8259,894,742
8260,880,763
8261,875,787
8262,878,806
8263,883,829
8264,887,844
8265,889,860
8266,889,872
8267,890,887
8268,892,901
8269,890,916
8270,888,930
8271,887,940
8272,883,949
8273,884,950
8274,884,951
8275,888,954
8276,887,954
8277,885,954
8278,885,954
8279,884,954
8280,883,952
8281,879,952
8282,878,955
8283,879,954
8284,877,955
8285,881,958
8286,883,961
8287,883,960
8288,883,960
8289,882,961
8290,880,960
8291,877,957
8292,879,957
8293,876,958
8294,873,959
8295,874,960
8296,876,961
8297,875,963
8298,874,965
8299,874,966
8300,875,963
8301,876,963
8302,877,961
8303,875,961
8304,874,961
8305,872,960
8306,871,958
8307,871,962
8308,870,962
8309,869,964
8310,868,968
8311,869,968
8312,870,967
8313,870,967
8314,868,967
8315,867,966
8316,864,964
8317,862,964
8318,861,964
8319,860,965
8320,858,968
8321,859,969
8322,860,973
8323,861,975
8324,861,975
8325,859,974
8326,860,973
8327,857,972
8328,855,971
8329,852,971
8330,853,972
8331,850,975
8332,850,978
8333,852,978
8334,853,980
8335,850,983
8336,852,984
8337,850,983
8338,852,983
8339,851,982
8340,850,985
8341,851,982
8342,852,983
8343,854,988
8344,856,987
8345,857,992
8346,860,993
8347,864,995
8348,868,994
8349,869,994
8350,870,993
8351,871,991
8352,873,989
8353,875,987
8354,878,988
8355,882,990
8356,884,987
8357,888,988
8358,892,988
8359,895,991
8360,899,989
8361,902,985
8362,902,983
8363,902,982
8364,901,979
8365,903,975
8366,903,975
8367,908,974
8368,907,972
8369,912,972
8370,912,973
8371,912,972
8372,915,970
8373,916,967
8374,915,967
8375,912,966
8376,915,963
8377,913,959
8378,911,961
8379,910,960
8380,909,959
8381,911,960
8382,912,961
8383,910,963
8384,914,961
8385,914,958
8386,913,961
8387,911,956
8388,909,956
8389,908,953
8390,907,956
8391,906,955
8392,906,955
8393,908,957
8394,910,959
8395,910,960
8396,910,958
8397,910,956
8398,909,956
8399,907,954
8400,906,952
8401,905,954
8402,901,953
8403,901,953
8404,901,957
8405,905,957
8406,902,955
8407,903,958
8408,907,958
8409,904,956
8410,904,955
8411,901,954
8412,898,952
8413,900,954
8414,899,953
8415,899,954
8416,896,955
8417,899,958
8418,901,958
8419,901,961
8420,903,961
8421,904,956
8422,903,958
8423,903,956
8424,902,953
8425,900,951
8426,899,954
8427,900,954
8428,900,954
8429,902,958
8430,907,958
8431,906,957
8432,908,958
8433,909,957
8434,909,956
8435,907,957
8436,907,956
8437,905,953
8438,908,954
8439,905,955
8440,909,957
8441,910,958
8442,916,958
8443,920,960
8444,921,960
8445,922,959
8446,923,959
8447,926,958
8448,928,955
8449,930,954
8450,935,954
8451,938,956
8452,943,954
8453,946,956
8454,952,958
8455,959,955
8456,966,952
8457,972,949
8458,986,945
8459,994,940
8460,1002,932
8461,1016,926
8462,1025,916
8463,1035,907
8464,1045,897
8465,1053,885
8466,1062,878
8467,1074,874
8468,1081,866
8469,1088,859
8470,1096,854
8471,1104,845
8472,1113,838
8473,1122,831
8474,1126,825
8475,1129,820
8476,1130,816
8477,1126,813
8478,1114,812
8479,1099,810
8480,1087,809
8481,1072,816
8482,1057,818
8483,1043,824
8484,1031,830
8485,1031,833
8486,1045,831
8487,1069,831
8488,1097,827
8489,1125,826
8490,1143,823
8491,1140,821
8492,1115,820
8493,1070,816
8494,1015,822
8495,961,828
8496,918,840
8497,886,850
8498,871,864
8499,865,881
8500,868,897
8501,871,917
8502,877,933
8503,878,948
8504,878,960
8505,874,963
8506,871,964
8507,866,964
8508,863,964
8509,861,964
8510,857,966
8511,857,968
8512,856,970
8513,856,973
8514,855,976
8515,854,976
8516,856,978
8517,854,979
8518,851,978
8519,851,977
8520,850,975
8521,847,976
8522,841,977
8523,840,977
8524,843,979
8525,842,978
8526,842,983
8527,843,985
8528,843,985
8529,842,983
8530,839,985
8531,836,982
8532,830,982
8533,830,981
8534,827,984
8535,826,983
8536,823,985
8537,826,987
8538,820,990
8539,821,990
8540,824,994
8541,822,992
8542,820,991
8543,816,993
8544,812,991
8545,808,993
8546,807,992
8547,806,995
8548,805,997
8549,805,999
8550,805,1001
8551,805,1004
8552,804,1007
8553,802,1007
8554,799,1007
8555,799,1005
8556,796,1007
8557,793,1006
8558,790,1007
8559,790,1010
8560,789,1011
8561,791,1016
8562,794,1018
8563,793,1019
8564,796,1018
8565,797,1017
8566,795,1020
8567,796,1018
8568,796,1017
8569,799,1014
8570,799,1016
8571,802,1017
8572,807,1014
8573,811,1016
8574,816,1016
8575,820,1016
8576,826,1015
8577,831,1012
8578,834,1010
8579,836,1007
8580,839,1004
8581,839,1000
8582,843,999
8583,846,996
8584,847,995
8585,857,996
8586,863,996
8587,868,995
8588,870,991
8589,874,989
8590,878,987
8591,878,982
8592,879,978
8593,879,979
8594,881,975
8595,881,974
8596,884,974
8597,887,975
8598,888,973
8599,892,976
8600,893,972
8601,895,969
8602,895,968
8603,894,966
8604,894,966
8605,893,964
8606,890,963
8607,893,962
8608,893,963
8609,893,962
8610,894,966
8611,895,967
8612,897,965
8613,896,964
8614,897,964
8615,897,962
8616,896,962
8617,895,959
8618,892,958
8619,892,959
8620,894,959
8621,893,962
8622,893,963
8623,895,962
8624,894,963
8625,895,961
8626,896,962
8627,893,960
8628,891,959
8629,891,958
8630,888,956
8631,888,959
8632,887,960
8633,886,962
8634,889,963
8635,892,963
8636,893,962
8637,893,960
8638,895,959
8639,892,959
8640,891,957
8641,891,956
8642,892,956
8643,890,959
8644,888,960
8645,892,962
8646,893,962
8647,895,961
8648,896,964
8649,899,961
8650,898,961
8651,898,957
8652,896,955
8653,897,955
8654,896,955
8655,898,957
8656,898,958
8657,898,961
8658,900,962
8659,903,963
8660,903,964
8661,902,961
8662,905,961
8663,903,958
8664,902,955
8665,902,957
8666,902,956
8667,901,958
8668,903,958
8669,903,958
8670,905,961
8671,906,960
8672,907,962
8673,905,958
8674,905,959
8675,904,956
8676,903,955
8677,901,955
8678,902,954
8679,903,955
8680,902,958
8681,902,960
8682,904,959
8683,904,962
8684,906,962
8685,906,961
8686,907,960
8687,905,957
8688,904,954
8689,903,954
8690,902,956
8691,903,957
8692,903,956
8693,904,958
8694,906,960
8695,907,959
8696,909,960
8697,910,959
8698,905,957
8699,907,956
8700,907,956
8701,908,954
8702,906,951
8703,908,955
8704,910,956
8705,911,955
8706,913,957
8707,918,960
8708,919,961
8709,922,961
8710,923,959
8711,923,960
8712,921,960
8713,924,958
8714,923,958
8715,924,961
8716,928,961
8717,932,961
8718,937,963
8719,940,963
8720,943,962
8721,944,958
8722,942,954
8723,943,951
8724,940,948
8725,936,941
8726,935,941
8727,934,941
8728,932,943
8729,932,944
8730,930,950
8731,928,951
8732,925,952
8733,921,952
8734,919,952
8735,916,951
8736,912,953
8737,910,951
8738,905,952
8739,902,955
8740,902,955
8741,902,955
8742,903,958
8743,905,958
8744,907,960
8745,906,957
8746,906,958
8747,904,956
8748,904,956
8749,903,952
8750,903,952
8751,903,954
8752,904,956
8753,905,957
8754,907,956
8755,911,957
8756,912,958
8757,915,957
8758,914,956
8759,913,954
8760,916,951
8761,916,950
8762,919,949
8763,922,952
8764,930,953
8765,946,954
8766,961,955
8767,984,955
8768,1010,955
8769,1040,955
8770,1074,950
8771,1114,943
8772,1156,933
8773,1192,916
8774,1226,893
8775,1256,870
8776,1276,841
8777,1293,816
8778,1298,787
8779,1282,762
8780,1240,734
8781,1170,713
8782,1088,700
8783,1004,700
8784,937,712
8785,888,730
8786,869,760
8787,864,787
8788,868,810
8789,878,830
8790,885,846
8791,890,861
8792,892,873
8793,892,884
8794,893,896
8795,891,908
8796,890,917
8797,887,927
8798,885,937
8799,887,946
8800,881,951
8801,885,954
8802,885,957
8803,889,958
8804,887,961
8805,887,958
8806,886,959
8807,882,960
8808,882,960
8809,879,960
8810,880,958
8811,879,960
8812,879,963
8813,878,965
8814,882,964
8815,882,966
8816,882,967
8817,882,968
8818,880,967
8819,878,966
8820,878,966
8821,877,966
8822,873,964
8823,877,966
8824,876,966
8825,877,970
8826,878,969
8827,877,971
8828,877,972
8829,876,971
8830,876,970
8831,872,970
8832,871,968
8833,871,968
8834,872,968
8835,868,968
8836,866,973
8837,866,972
8838,867,973
8839,868,974
8840,866,976
8841,870,975
8842,865,974
8843,863,974
8844,861,974
8845,858,972
8846,860,972
8847,858,976
8848,857,979
8849,857,979
8850,858,981
8851,859,983
8852,857,984
8853,857,984
8854,854,986
8855,854,984
8856,853,986
8857,852,986
8858,845,986
8859,848,988
8860,845,991
8861,846,995
8862,847,995
8863,853,999
8864,853,1002
8865,855,1000
8866,856,1000
8867,857,997
8868,856,998
8869,856,999
8870,857,998
8871,858,1000
8872,857,1002
8873,863,1005
8874,864,1005
8875,870,1006
8876,873,1006
8877,875,1003
8878,878,1004
8879,879,999
8880,883,1000
8881,885,998
8882,884,997
8883,887,997
8884,891,997
8885,893,997
8886,897,998
8887,901,997
8888,902,995
8889,904,993
8890,903,992
8891,903,988
8892,904,987
8893,904,986
8894,904,983
8895,904,981
8896,903,982
8897,906,981
8898,909,982
8899,911,982
8900,914,980
8901,912,980
8902,914,976
8903,914,976
8904,912,974
8905,912,970
8906,909,971
8907,911,970
8908,910,970
8909,911,970
8910,911,972
8911,913,973
8912,911,972
8913,914,970
8914,914,970
8915,910,967
8916,910,966
8917,910,966
8918,908,967
8919,905,967
8920,908,965
8921,907,968
8922,908,968
8923,908,970
8924,908,970
8925,909,968
8926,908,968
8927,904,964
8928,902,967
8929,903,965
8930,901,965
8931,904,966
8932,902,966
8933,901,970
8934,902,970
8935,904,970
8936,905,974
8937,903,972
8938,906,972
8939,905,970
8940,900,970
8941,897,969
8942,895,966
8943,899,970
8944,899,971
8945,900,971
8946,902,973
8947,903,975
8948,906,977
8949,905,976
8950,905,974
8951,904,972
8952,904,972
8953,907,971
8954,905,972
8955,907,973
8956,907,971
8957,909,975
8958,912,976
8959,912,977
8960,914,977
8961,915,976
8962,914,974
8963,914,975
8964,913,972
8965,913,974
8966,912,973
8967,916,971
8968,916,973
8969,920,976
8970,920,976
8971,926,978
8972,925,980
8973,927,976
8974,926,978
8975,928,978
8976,928,976
8977,929,978
8978,927,974
8979,930,976
8980,932,979
8981,936,982
8982,940,981
8983,945,984
8984,950,985
8985,952,979
8986,953,979
8987,952,977
8988,952,973
8989,951,968
8990,949,965
8991,946,962
8992,947,962
8993,944,961
8994,945,964
8995,946,966
8996,945,967
8997,938,968
8998,934,969
8999,931,972
9000,928,969
9001,923,969
9002,920,970
9003,918,971
9004,917,973
9005,916,976
9006,914,978
9007,917,978
9008,918,981
9009,918,979
9010,918,979
9011,917,977
9012,914,977
9013,914,973
9014,913,973
9015,915,973
9016,918,973
9017,916,977
9018,918,977
9019,920,977
9020,921,978
9021,922,976
9022,921,978
9023,923,975
9024,922,974
9025,921,972
9026,923,971
9027,926,972
9028,928,975
9029,935,974
9030,942,977
9031,952,976
9032,965,975
9033,983,975
9034,997,976
9035,1018,973
9036,1041,973
9037,1066,970
9038,1095,967
9039,1132,964
9040,1165,958
9041,1201,946
9042,1231,930
9043,1255,915
9044,1275,896
9045,1284,872
9046,1296,852
9047,1308,829
9048,1308,807
9049,1289,782
9050,1243,759
9051,1175,743
9052,1097,730
9053,1019,731
9054,955,740
9055,909,757
9056,889,780
9057,881,804
9058,882,829
9059,887,848
9060,895,869
9061,900,886
9062,900,898
9063,905,913
9064,904,928
9065,904,943
9066,905,957
9067,903,968
9068,907,975
9069,905,974
9070,902,977
9071,900,975
9072,899,974
9073,898,975
9074,896,975
9075,895,976
9076,895,980
9077,894,981
9078,896,984
9079,897,987
9080,897,985
9081,899,985
9082,898,985
9083,897,984
9084,894,982
9085,891,982
9086,890,981
9087,891,983
9088,889,984
9089,890,984
9090,891,989
9091,891,986
9092,892,991
9093,891,988
9094,894,988
9095,891,988
9096,890,983
9097,887,983
9098,888,983
9099,886,986
9100,887,987
9101,888,989
9102,888,990
9103,891,991
9104,889,994
9105,890,991
9106,887,991
9107,883,990
9108,881,989
9109,881,989
9110,879,989
9111,878,992
9112,878,995
9113,878,994
9114,880,995
9115,878,995
9116,881,999
9117,879,996
9118,875,995
9119,872,995
9120,874,996
9121,870,996
9122,870,995
9123,870,998
9124,872,999
9125,870,1001
9126,868,1002
9127,870,1002
9128,871,1008
9129,871,1006
9130,868,1006
9131,869,1007
9132,866,1009
9133,865,1008
9134,865,1010
9135,865,1011
9136,865,1013
9137,869,1014
9138,872,1018
9139,872,1021
9140,876,1021
9141,878,1021
9142,880,1020
9143,882,1019
9144,881,1016
9145,883,1016
9146,885,1014
9147,889,1016
9148,895,1016
9149,900,1017
9150,903,1017
9151,906,1018
9152,912,1019
9153,914,1014
9154,916,1014
9155,915,1011
9156,915,1008
9157,915,1006
9158,917,1006
9159,916,1005
9160,917,1006
9161,920,1004
9162,923,1006
9163,922,1005
9164,924,1004
9165,924,1002
9166,925,1000
9167,924,998
9168,923,997
9169,922,994
9170,919,991
9171,918,992
9172,919,994
9173,919,991
9174,922,996
9175,924,996
9176,923,997
9177,925,993
9178,924,991
9179,923,991
9180,921,987
9181,920,987
9182,917,987
9183,915,987
9184,915,986
9185,918,989
9186,918,991
9187,919,992
9188,922,990
9189,921,988
9190,918,987
9191,919,987
9192,916,983
9193,915,983
9194,912,984
9195,913,984
9196,913,986
9197,913,988
9198,914,986
9199,914,990
9200,917,991
9201,914,988
9202,915,988
9203,914,986
9204,912,985
9205,911,986
9206,908,986
9207,911,986
9208,907,985
9209,908,986
9210,911,988
9211,913,987
9212,912,990
9213,915,988
9214,914,988
9215,912,986
9216,911,984
9217,914,984
9218,911,982
9219,912,984
9220,912,984
9221,913,986
9222,915,989
9223,913,988
9224,914,987
9225,915,987
9226,912,986
9227,913,986
9228,915,985
9229,912,981
9230,910,984
