'sample #','MLII','V1'
0,993,1005
1,993,1005
2,993,1005
3,993,1005
4,993,1005
5,993,1005
6,993,1005
7,993,1005
8,990,1003
9,989,998
10,985,996
11,980,999
12,982,1007
13,981,1013
14,976,1018
15,972,1018
16,971,1017
17,970,1013
18,968,1011
19,966,1010
20,967,1012
21,964,1015
22,963,1014
23,960,1012
24,955,1021
25,956,1027
26,959,1036
27,963,1039
28,963,1034
29,962,1027
30,960,1024
31,960,1032
32,962,1040
33,961,1044
34,956,1043
35,952,1036
36,949,1038
37,953,1040
38,954,1044
39,957,1043
40,955,1036
41,951,1033
42,944,1034
43,944,1039
44,951,1038
45,950,1035
46,956,1033
47,953,1033
48,954,1033
49,953,1032
50,950,1031
51,950,1029
52,953,1028
53,954,1024
54,953,1024
55,953,1025
56,949,1025
57,947,1028
58,943,1027
59,937,1029
60,941,1025
61,953,1023
62,964,1022
63,969,1023
64,969,1023
65,970,1026
66,970,1031
67,971,1039
68,971,1041
69,972,1041
70,974,1037
71,977,1029
72,982,1027
73,988,1026
74,991,1030
75,988,1035
76,986,1038
77,986,1037
78,989,1035
79,991,1031
80,992,1021
81,988,1003
82,978,990
83,968,988
84,962,995
85,958,999
86,959,999
87,958,999
88,957,990
89,956,985
90,955,981
91,958,980
92,954,982
93,953,984
94,947,980
95,943,982
96,938,985
97,938,992
98,944,995
99,944,990
100,946,987
101,948,984
102,950,982
103,953,978
104,951,981
105,955,985
106,955,978
107,946,970
108,942,966
109,941,969
110,939,973
111,946,976
112,947,975
113,945,976
114,942,974
115,943,973
116,937,976
117,937,976
118,942,981
119,948,984
120,950,989
121,952,993
122,952,998
123,946,998
124,946,999
125,949,1005
126,955,1010
127,959,1010
128,958,1009
129,957,1006
130,957,1001
131,952,1007
132,950,1011
133,954,1016
134,966,1014
135,978,1008
136,987,1009
137,983,1007
138,971,1013
139,967,1021
140,970,1023
141,968,1018
142,961,1012
143,951,1010
144,943,1010
145,938,987
146,935,928
147,934,851
148,941,773
149,949,686
150,966,592
151,979,510
152,991,454
153,996,435
154,998,436
155,1001,458
156,1016,520
157,1059,639
158,1109,766
159,1137,893
160,1134,1008
161,1112,1028
162,1090,1032
163,1069,1037
164,1045,1042
165,1023,1048
166,1007,1054
167,989,1058
168,982,1060
169,979,1063
170,980,1056
171,977,1050
172,977,1051
173,977,1057
174,982,1071
175,988,1079
176,984,1074
177,987,1068
178,979,1064
179,975,1061
180,973,1062
181,972,1066
182,975,1067
183,977,1068
184,978,1066
185,979,1062
186,979,1060
187,976,1062
188,979,1059
189,982,1059
190,982,1065
191,984,1069
192,986,1068
193,991,1067
194,994,1064
195,990,1061
196,985,1059
197,984,1055
198,983,1057
199,989,1062
200,994,1063
201,998,1064
202,1000,1064
203,1000,1065
204,995,1065
205,996,1066
206,1001,1066
207,1001,1064
208,1003,1060
209,1002,1056
210,1002,1060
211,1004,1059
212,1004,1056
213,1001,1054
214,1001,1050
215,1003,1051
216,1009,1051
217,1015,1052
218,1018,1044
219,1020,1040
220,1019,1031
221,1012,1023
222,1009,1018
223,1011,1023
224,1012,1020
225,1013,1021
226,1022,1017
227,1026,1018
228,1025,1019
229,1022,1020
230,1023,1017
231,1021,1014
232,1022,1009
233,1020,1000
234,1023,994
235,1026,994
236,1022,995
237,1022,992
238,1024,988
239,1019,982
240,1015,986
241,1013,989
242,1019,987
243,1024,983
244,1026,979
245,1024,977
246,1017,976
247,1015,977
248,1009,984
249,998,985
250,997,985
251,1002,981
252,1003,983
253,1005,986
254,998,991
255,989,990
256,984,987
257,980,980
258,975,983
259,976,990
260,979,995
261,978,997
262,977,997
263,975,995
264,971,997
265,966,998
266,962,1003
267,963,1003
268,960,1002
269,962,1005
270,965,1009
271,969,1015
272,966,1019
273,960,1018
274,954,1012
275,954,1009
276,953,1012
277,956,1017
278,955,1023
279,960,1023
280,956,1022
281,949,1021
282,949,1023
283,949,1030
284,955,1032
285,956,1032
286,956,1031
287,951,1029
288,948,1030
289,943,1036
290,941,1039
291,942,1042
292,942,1037
293,937,1031
294,937,1032
295,941,1040
296,944,1045
297,947,1048
298,944,1045
299,940,1037
300,934,1030
301,933,1034
302,931,1039
303,932,1043
304,934,1038
305,939,1033
306,941,1035
307,944,1038
308,945,1040
309,942,1039
310,939,1032
311,934,1028
312,933,1029
313,936,1029
314,939,1028
315,941,1028
316,944,1026
317,938,1027
318,938,1029
319,938,1031
320,940,1032
321,940,1031
322,940,1024
323,945,1019
324,947,1023
325,955,1023
326,960,1021
327,962,1018
328,962,1020
329,961,1017
330,959,1023
331,955,1030
332,956,1038
333,961,1038
334,968,1039
335,963,1039
336,958,1040
337,947,1043
338,945,1047
339,947,1046
340,952,1036
341,953,1021
342,950,1015
343,949,1011
344,945,1006
345,946,1001
346,946,993
347,943,987
348,941,989
349,937,993
350,940,994
351,936,993
352,930,988
353,923,985
354,918,985
355,923,989
356,928,990
357,926,989
358,926,986
359,922,980
360,920,979
361,922,978
362,924,984
363,923,986
364,921,986
365,918,981
366,920,979
367,922,979
368,921,981
369,923,980
370,923,976
371,919,968
372,914,966
373,913,966
374,913,968
375,917,967
376,913,964
377,914,968
378,914,969
379,913,972
380,914,975
381,916,974
382,918,973
383,915,970
384,919,971
385,921,975
386,927,976
387,929,983
388,934,988
389,933,993
390,931,996
391,930,998
392,932,998
393,931,1001
394,930,1006
395,930,1007
396,929,1009
397,932,1013
398,938,1016
399,939,1016
400,940,1013
401,939,1009
402,934,1007
403,935,1010
404,938,1010
405,943,1011
406,946,1011
407,949,1012
408,948,1011
409,944,1019
410,939,1020
411,934,1014
412,932,1007
413,927,1004
414,920,1014
415,913,1011
416,907,977
417,902,906
418,906,818
419,912,730
420,918,639
421,928,555
422,934,489
423,941,445
424,947,424
425,947,419
426,946,427
427,958,460
428,975,525
429,1007,638
430,1049,765
431,1079,892
432,1090,999
433,1087,1038
434,1075,1055
435,1056,1059
436,1030,1054
437,1006,1050
438,989,1056
439,979,1064
440,971,1069
441,966,1071
442,960,1069
443,958,1067
444,953,1068
445,953,1072
446,955,1075
447,959,1072
448,960,1075
449,957,1076
450,963,1079
451,974,1082
452,978,1084
453,974,1084
454,968,1084
455,965,1079
456,963,1077
457,964,1077
458,968,1080
459,968,1082
460,966,1083
461,969,1088
462,968,1089
463,970,1090
464,974,1085
465,975,1082
466,973,1079
467,972,1080
468,972,1085
469,975,1087
470,977,1090
471,981,1089
472,982,1087
473,985,1085
474,981,1082
475,978,1081
476,981,1080
477,984,1082
478,983,1083
479,987,1082
480,988,1084
481,990,1088
482,991,1087
483,992,1089
484,990,1083
485,990,1079
486,990,1076
487,997,1080
488,1002,1082
489,1000,1079
490,998,1074
491,997,1068
492,999,1065
493,1003,1068
494,1005,1069
495,1008,1066
496,1006,1066
497,1006,1065
498,1012,1066
499,1016,1067
500,1020,1064
501,1017,1056
502,1012,1045
503,1012,1039
504,1012,1034
505,1014,1033
506,1019,1033
507,1021,1034
508,1013,1032
509,1014,1032
510,1016,1028
511,1023,1028
512,1032,1026
513,1035,1023
514,1036,1016
515,1035,1012
516,1032,1012
517,1028,1011
518,1026,1012
519,1026,1011
520,1026,1002
521,1023,997
522,1020,996
523,1020,996
524,1021,996
525,1021,994
526,1018,991
527,1011,992
528,1006,990
529,1007,995
530,1012,995
531,1013,996
532,1009,995
533,1004,995
534,999,997
535,997,998
536,996,1002
537,989,1004
538,990,1002
539,984,1002
540,988,1002
541,986,1006
542,983,1004
543,978,1004
544,976,1002
545,971,1003
546,967,1010
547,968,1013
548,966,1012
549,966,1009
550,965,1007
551,967,1015
552,969,1025
553,971,1030
554,969,1033
555,974,1030
556,973,1026
557,969,1026
558,963,1033
559,963,1038
560,970,1040
561,973,1038
562,975,1034
563,972,1035
564,966,1039
565,963,1042
566,962,1043
567,961,1045
568,961,1043
569,961,1040
570,961,1040
571,957,1046
572,953,1052
573,955,1055
574,953,1053
575,952,1049
576,949,1045
577,948,1047
578,952,1047
579,954,1047
580,952,1048
581,949,1047
582,945,1045
583,947,1044
584,946,1044
585,948,1043
586,949,1041
587,949,1037
588,946,1035
589,946,1038
590,945,1040
591,947,1038
592,947,1035
593,947,1029
594,945,1030
595,944,1031
596,947,1029
597,947,1029
598,947,1025
599,942,1026
600,942,1028
601,948,1032
602,950,1034
603,952,1035
604,951,1029
605,948,1026
606,947,1025
607,949,1029
608,950,1033
609,955,1033
610,954,1033
611,953,1031
612,956,1034
613,961,1036
614,963,1036
615,965,1037
616,966,1034
617,966,1032
618,968,1031
619,973,1033
620,974,1036
621,976,1037
622,979,1037
623,978,1037
624,975,1037
625,977,1036
626,979,1032
627,978,1023
628,975,1010
629,969,999
630,965,997
631,969,995
632,971,992
633,970,988
634,964,984
635,955,986
636,951,983
637,949,984
638,946,990
639,945,990
640,942,992
641,945,992
642,946,990
643,949,988
644,948,991
645,949,990
646,945,984
647,940,982
648,937,981
649,941,981
650,944,985
651,944,981
652,942,975
653,938,971
654,935,972
655,939,975
656,934,975
657,934,976
658,937,974
659,939,971
660,935,969
661,935,969
662,938,967
663,936,967
664,933,965
665,929,968
666,925,966
667,926,972
668,925,972
669,926,971
670,930,972
671,934,972
672,932,975
673,938,979
674,945,980
675,950,983
676,951,983
677,950,985
678,948,988
679,950,996
680,952,1001
681,954,1004
682,954,1004
683,953,1007
684,954,1006
685,956,1007
686,956,1009
687,955,1010
688,952,1007
689,952,1008
690,957,1009
691,960,1012
692,963,1014
693,965,1015
694,965,1012
695,962,1009
696,960,1004
697,958,1004
698,960,1005
699,960,1010
700,957,1010
701,956,1011
702,954,1010
703,953,1007
704,949,1008
705,943,1011
706,933,1011
707,920,985
708,914,929
709,919,875
710,927,827
711,934,773
712,941,712
713,952,641
714,963,567
715,970,504
716,981,459
717,983,436
718,985,427
719,985,435
720,995,465
721,1014,524
722,1053,627
723,1091,754
724,1120,881
725,1133,963
726,1123,1007
727,1113,1029
728,1099,1045
729,1079,1048
730,1051,1045
731,1024,1041
732,1008,1044
733,995,1052
734,989,1057
735,987,1062
736,981,1063
737,979,1062
738,974,1061
739,972,1061
740,973,1066
741,974,1070
742,977,1068
743,977,1064
744,977,1068
745,977,1074
746,979,1074
747,981,1072
748,979,1069
749,976,1066
750,976,1065
751,977,1072
752,981,1078
753,982,1084
754,985,1076
755,986,1070
756,982,1069
757,985,1067
758,982,1070
759,983,1073
760,983,1071
761,982,1070
762,976,1073
763,978,1075
764,980,1077
765,982,1073
766,983,1072
767,984,1067
768,986,1064
769,989,1068
770,990,1072
771,989,1068
772,985,1067
773,983,1069
774,979,1071
775,982,1074
776,990,1077
777,996,1077
778,999,1076
779,997,1073
780,997,1072
781,995,1075
782,999,1077
783,998,1077
784,997,1076
785,999,1070
786,1003,1066
787,1001,1069
788,1003,1073
789,1004,1076
790,1004,1073
791,1002,1070
792,1002,1065
793,1005,1068
794,1006,1068
795,1013,1067
796,1016,1063
797,1015,1061
798,1015,1059
799,1013,1057
800,1017,1056
801,1020,1052
802,1017,1046
803,1015,1044
804,1011,1039
805,1014,1045
806,1016,1044
807,1014,1039
808,1012,1037
809,1013,1031
810,1018,1029
811,1023,1027
812,1027,1027
813,1025,1024
814,1028,1017
815,1024,1012
816,1025,1010
817,1025,1011
818,1029,1011
819,1031,1011
820,1032,1008
821,1032,1004
822,1030,999
823,1033,998
824,1033,992
825,1031,986
826,1030,985
827,1025,987
828,1021,988
829,1024,990
830,1025,994
831,1027,990
832,1029,986
833,1026,981
834,1027,979
835,1028,981
836,1026,982
837,1023,981
838,1019,979
839,1017,978
840,1012,978
841,1015,978
842,1018,982
843,1022,982
844,1014,982
845,1016,980
846,1011,979
847,1004,980
848,1001,983
849,995,979
850,994,982
851,989,984
852,988,987
853,991,991
854,996,1000
855,1000,999
856,1002,1000
857,1000,996
858,996,995
859,993,997
860,992,1001
861,987,999
862,986,999
863,982,997
864,980,998
865,981,1000
866,983,1005
867,981,1004
868,979,1006
869,977,1007
870,973,1006
871,974,1007
872,977,1010
873,976,1010
874,977,1010
875,977,1009
876,976,1010
877,978,1018
878,976,1018
879,976,1018
880,971,1018
881,970,1017
882,970,1020
883,970,1023
884,971,1028
885,971,1024
886,972,1024
887,969,1026
888,967,1027
889,967,1029
890,968,1033
891,965,1030
892,965,1031
893,960,1032
894,955,1031
895,958,1035
896,959,1039
897,963,1037
898,964,1034
899,961,1030
900,957,1030
901,958,1034
902,963,1033
903,962,1038
904,956,1036
905,953,1038
906,953,1037
907,958,1039
908,961,1040
909,959,1039
910,963,1038
911,963,1035
912,960,1034
913,959,1034
914,962,1036
915,962,1034
916,959,1032
917,954,1028
918,951,1027
919,952,1029
920,956,1033
921,963,1034
922,964,1031
923,965,1031
924,964,1026
925,963,1027
926,963,1029
927,962,1028
928,960,1023
929,959,1021
930,956,1020
931,960,1025
932,966,1025
933,967,1027
934,965,1023
935,966,1022
936,963,1022
937,963,1021
938,966,1022
939,964,1023
940,964,1023
941,966,1024
942,970,1024
943,975,1028
944,978,1033
945,984,1032
946,984,1025
947,983,1023
948,980,1023
949,985,1027
950,987,1031
951,992,1037
952,995,1037
953,996,1042
954,997,1042
955,997,1043
956,997,1038
957,996,1030
958,992,1024
959,986,1015
960,984,1006
961,984,1001
962,984,997
963,984,995
964,985,992
965,981,987
966,976,982
967,976,984
968,978,988
969,975,986
970,971,982
971,964,982
972,960,985
973,961,991
974,965,994
975,970,992
976,971,989
977,971,987
978,969,987
979,970,990
980,969,987
981,965,985
982,963,980
983,957,976
984,955,976
985,959,979
986,962,980
987,965,980
988,964,978
989,957,975
990,957,971
991,954,972
992,954,971
993,950,966
994,949,961
995,950,962
996,949,962
997,953,965
998,956,966
999,948,959
1000,943,960
1001,943,960
1002,941,969
1003,948,973
1004,953,975
1005,955,975
1006,958,975
1007,964,977
1008,966,979
1009,967,984
1010,966,986
1011,965,988
1012,965,986
1013,963,987
1014,969,993
1015,975,1002
1016,979,1002
1017,983,1006
1018,979,1002
1019,978,1002
1020,978,1004
1021,976,1007
1022,975,1009
1023,976,1005
1024,973,1004
1025,972,1001
1026,974,1003
1027,977,1007
1028,981,1007
1029,982,1007
1030,979,1007
1031,976,1004
1032,975,1003
1033,976,1005
1034,979,1006
1035,978,1006
1036,969,1010
1037,968,1014
1038,969,1017
1039,971,1019
1040,964,1016
1041,954,1015
1042,943,1006
1043,933,973
1044,934,923
1045,941,859
1046,954,794
1047,963,720
1048,970,638
1049,976,554
1050,985,493
1051,990,453
1052,993,429
1053,994,419
1054,998,423
1055,1004,437
1056,1022,482
1057,1052,567
1058,1091,689
1059,1122,816
1060,1137,926
1061,1133,988
1062,1121,1016
1063,1109,1034
1064,1090,1042
1065,1066,1041
1066,1044,1039
1067,1025,1044
1068,1015,1053
1069,1005,1057
1070,995,1059
1071,992,1057
1072,986,1055
1073,982,1053
1074,979,1057
1075,981,1059
1076,989,1061
1077,991,1061
1078,992,1063
1079,989,1061
1080,992,1062
1081,993,1064
1082,993,1064
1083,988,1064
1084,986,1060
1085,983,1062
1086,987,1065
1087,992,1067
1088,995,1073
1089,996,1068
1090,993,1067
1091,992,1063
1092,991,1065
1093,989,1071
1094,990,1071
1095,989,1066
1096,992,1063
1097,992,1063
1098,996,1068
1099,997,1071
1100,999,1072
1101,1000,1071
1102,996,1069
1103,992,1066
1104,992,1067
1105,992,1068
1106,997,1066
1107,995,1063
1108,993,1065
1109,992,1065
1110,994,1070
1111,1000,1075
1112,1004,1079
1113,1008,1074
1114,1006,1068
1115,1004,1066
1116,1005,1070
1117,1007,1070
1118,1008,1069
1119,1008,1065
1120,1007,1067
1121,1003,1065
1122,1005,1069
1123,1007,1066
1124,1009,1063
1125,1007,1057
1126,1004,1054
1127,1002,1053
1128,1005,1054
1129,1009,1055
1130,1012,1050
1131,1013,1048
1132,1010,1043
1133,1010,1044
1134,1011,1048
1135,1018,1045
1136,1019,1042
1137,1023,1038
1138,1023,1037
1139,1022,1033
1140,1018,1034
1141,1023,1032
1142,1026,1029
1143,1026,1022
1144,1025,1011
1145,1023,1010
1146,1023,1008
1147,1027,1005
1148,1030,1003
1149,1028,998
1150,1024,995
1151,1023,995
1152,1020,1002
1153,1022,1004
1154,1021,997
1155,1020,986
1156,1020,978
1157,1021,979
1158,1021,980
1159,1022,982
1160,1024,980
1161,1020,977
1162,1013,975
1163,1011,973
1164,1014,975
1165,1016,975
1166,1013,975
1167,1015,981
1168,1012,980
1169,1008,984
1170,1008,985
1171,1008,987
1172,1008,988
1173,1003,989
1174,995,987
1175,990,984
1176,991,986
1177,986,987
1178,985,990
1179,986,986
1180,980,987
1181,979,989
1182,978,995
1183,978,998
1184,977,996
1185,978,995
1186,975,995
1187,971,994
1188,971,1000
1189,972,1008
1190,971,1011
1191,967,1009
1192,963,1004
1193,961,1002
1194,963,1003
1195,964,1004
1196,969,1005
1197,968,1009
1198,965,1008
1199,957,1008
1200,962,1014
1201,963,1019
1202,964,1023
1203,963,1020
1204,960,1019
1205,960,1014
1206,958,1015
1207,957,1020
1208,962,1028
1209,961,1031
1210,959,1030
1211,954,1032
1212,952,1035
1213,954,1033
1214,955,1032
1215,954,1029
1216,952,1029
1217,952,1028
1218,954,1035
1219,952,1043
1220,951,1044
1221,946,1039
1222,945,1035
1223,944,1031
1224,945,1033
1225,945,1032
1226,948,1035
1227,944,1035
1228,944,1037
1229,941,1036
1230,941,1037
1231,943,1041
1232,947,1036
1233,944,1028
1234,943,1023
1235,943,1025
1236,945,1031
1237,942,1033
1238,945,1029
1239,947,1024
1240,946,1020
1241,943,1018
1242,944,1019
1243,943,1013
1244,943,1013
1245,941,1017
1246,940,1019
1247,940,1020
1248,942,1025
1249,944,1025
1250,947,1026
1251,945,1021
1252,942,1016
1253,940,1017
1254,946,1023
1255,954,1028
1256,958,1031
1257,962,1033
1258,963,1033
1259,964,1031
1260,966,1031
1261,966,1028
1262,971,1028
1263,975,1026
1264,975,1027
1265,973,1031
1266,974,1038
1267,973,1039
1268,975,1028
1269,970,1012
1270,965,997
1271,961,985
1272,962,983
1273,961,988
1274,962,988
1275,959,981
1276,954,979
1277,947,982
1278,946,988
1279,942,993
1280,942,991
1281,941,986
1282,940,984
1283,938,985
1284,937,984
1285,935,983
1286,941,981
1287,942,979
1288,940,974
1289,934,974
1290,929,973
1291,930,976
1292,936,974
1293,940,973
1294,938,973
1295,932,973
1296,931,973
1297,932,972
1298,932,964
1299,931,960
1300,926,958
1301,923,959
1302,925,962
1303,930,963
1304,930,967
1305,927,967
1306,924,966
1307,921,966
1308,923,966
1309,921,967
1310,922,963
1311,921,962
1312,923,956
1313,924,960
1314,928,970
1315,933,978
1316,942,984
1317,946,987
1318,950,989
1319,949,986
1320,946,992
1321,942,999
1322,946,1003
1323,948,1004
1324,950,1004
1325,948,1003
1326,950,1002
1327,951,1003
1328,953,1007
1329,949,1005
1330,949,1002
1331,947,1002
1332,952,1002
1333,957,1003
1334,963,1005
1335,967,1003
1336,965,1003
1337,959,1002
1338,957,1002
1339,963,1006
1340,964,1007
1341,959,1007
1342,954,1008
1343,948,1012
1344,950,1014
1345,948,1013
1346,936,1015
1347,927,1017
1348,916,1008
1349,906,971
1350,905,907
1351,914,838
1352,924,757
1353,929,666
1354,936,576
1355,939,493
1356,940,440
1357,949,410
1358,959,400
1359,968,397
1360,983,412
1361,1008,457
1362,1044,551
1363,1087,678
1364,1117,805
1365,1125,932
1366,1113,1020
1367,1096,1046
1368,1085,1056
1369,1069,1054
1370,1053,1052
1371,1034,1047
1372,1013,1054
1373,994,1057
1374,985,1060
1375,982,1063
1376,979,1069
1377,976,1069
1378,975,1068
1379,978,1068
1380,983,1071
1381,983,1076
1382,983,1073
1383,980,1068
1384,982,1063
1385,977,1064
1386,975,1071
1387,978,1078
1388,984,1074
1389,986,1065
1390,989,1062
1391,983,1061
1392,981,1069
1393,977,1073
1394,977,1078
1395,978,1072
1396,983,1063
1397,982,1060
1398,985,1057
1399,984,1060
1400,988,1060
1401,989,1056
1402,990,1055
1403,987,1056
1404,992,1061
1405,998,1066
1406,1001,1071
1407,1004,1071
1408,1002,1064
1409,1000,1058
1410,994,1060
1411,995,1071
1412,998,1076
1413,996,1080
1414,996,1075
1415,998,1070
1416,1000,1074
1417,1000,1074
1418,1002,1078
1419,1000,1079
1420,997,1075
1421,996,1074
1422,999,1074
1423,1002,1076
1424,1005,1078
1425,1008,1076
1426,1008,1071
1427,1011,1068
1428,1016,1068
1429,1021,1067
1430,1023,1065
1431,1023,1060
1432,1019,1055
1433,1022,1051
1434,1023,1048
1435,1021,1050
1436,1021,1050
1437,1023,1040
1438,1024,1033
1439,1022,1026
1440,1021,1022
1441,1027,1017
1442,1034,1017
1443,1031,1019
1444,1031,1014
1445,1028,1003
1446,1030,999
1447,1030,996
1448,1023,999
1449,1018,998
1450,1014,999
1451,1018,995
1452,1026,994
1453,1035,995
1454,1038,996
1455,1039,985
1456,1041,969
1457,1040,961
1458,1033,968
1459,1023,982
1460,1016,987
1461,1015,984
1462,1017,978
1463,1018,979
1464,1015,976
1465,1014,973
1466,1009,970
1467,1008,971
1468,1004,977
1469,1000,980
1470,1003,990
1471,1004,1000
1472,1009,996
1473,1015,985
1474,1013,974
1475,1003,976
1476,986,988
1477,974,996
1478,973,989
1479,981,984
1480,982,984
1481,974,987
1482,971,995
1483,977,997
1484,989,997
1485,987,994
1486,981,990
1487,970,994
1488,965,1004
1489,966,1008
1490,973,1012
1491,975,1014
1492,974,1002
1493,973,995
1494,972,997
1495,961,1009
1496,956,1020
1497,959,1024
1498,962,1025
1499,970,1026
1500,971,1023
1501,979,1016
1502,981,1009
1503,974,1013
1504,966,1014
1505,962,1013
1506,962,1018
1507,955,1022
1508,953,1014
1509,952,1006
1510,955,1005
1511,947,1011
1512,950,1008
1513,957,996
1514,965,993
1515,968,1006
1516,959,1028
1517,950,1050
1518,951,1061
1519,951,1059
1520,952,1052
1521,951,1036
1522,945,1015
1523,934,1004
1524,933,1007
1525,933,1008
1526,945,1013
1527,951,1018
1528,952,1015
1529,946,1013
1530,942,1016
1531,936,1019
1532,937,1016
1533,937,1013
1534,943,1017
1535,944,1022
1536,952,1028
1537,959,1022
1538,961,1006
1539,960,993
1540,961,985
1541,963,987
1542,959,1002
1543,950,1001
1544,949,985
1545,955,971
1546,961,982
1547,956,1008
1548,955,1035
1549,956,1041
1550,961,1035
1551,967,1022
1552,965,1013
1553,956,1001
1554,959,994
1555,961,999
1556,956,1015
1557,953,1027
1558,956,1025
1559,965,1011
1560,978,1004
1561,980,998
1562,976,994
1563,971,989
1564,967,984
1565,962,979
1566,965,984
1567,965,980
1568,969,967
1569,970,954
1570,967,945
1571,964,947
1572,961,957
1573,953,972
1574,947,977
1575,943,977
1576,935,968
1577,931,962
1578,936,966
1579,945,966
1580,951,963
1581,950,958
1582,946,962
1583,936,972
1584,935,981
1585,935,980
1586,942,968
1587,949,953
1588,953,935
1589,950,925
1590,943,932
1591,933,946
1592,927,965
1593,926,970
1594,930,964
1595,936,945
1596,940,934
1597,932,936
1598,924,938
1599,917,936
1600,924,933
1601,931,936
1602,933,943
1603,939,951
1604,943,962
1605,945,968
1606,941,967
1607,942,971
1608,931,984
1609,929,990
1610,933,984
1611,941,982
1612,938,985
1613,932,998
1614,942,1007
1615,954,1009
1616,966,1002
1617,976,985
1618,977,968
1619,967,960
1620,950,972
1621,939,986
1622,942,993
1623,950,990
1624,951,985
1625,949,986
1626,945,988
1627,948,990
1628,951,1003
1629,954,1014
1630,952,1021
1631,953,1016
1632,953,1007
1633,945,999
1634,928,993
1635,911,982
1636,905,951
1637,903,897
1638,906,843
1639,912,779
1640,924,697
1641,939,604
1642,951,517
1643,959,463
1644,964,440
1645,973,442
1646,987,459
1647,1012,494
1648,1042,568
1649,1077,691
1650,1107,818
1651,1119,945
1652,1117,1016
1653,1105,1024
1654,1081,1021
1655,1054,1020
1656,1029,1024
1657,1009,1035
1658,994,1040
1659,982,1043
1660,976,1042
1661,969,1041
1662,968,1041
1663,968,1043
1664,966,1048
1665,964,1049
1666,971,1053
1667,974,1054
1668,982,1052
1669,985,1048
1670,983,1047
1671,976,1049
1672,967,1048
1673,964,1047
1674,969,1045
1675,974,1046
1676,977,1050
1677,967,1051
1678,958,1054
1679,958,1051
1680,967,1052
1681,979,1046
1682,988,1048
1683,989,1051
1684,979,1055
1685,971,1059
1686,967,1063
1687,971,1061
1688,979,1058
1689,978,1054
1690,979,1046
1691,982,1040
1692,986,1042
1693,982,1047
1694,980,1045
1695,975,1044
1696,971,1046
1697,970,1046
1698,977,1052
1699,987,1052
1700,993,1045
1701,993,1041
1702,984,1041
1703,982,1038
1704,980,1043
1705,983,1044
1706,991,1043
1707,996,1042
1708,1002,1034
1709,999,1031
1710,992,1036
1711,988,1043
1712,988,1046
1713,992,1043
1714,999,1038
1715,1004,1030
1716,1009,1022
1717,1009,1019
1718,1007,1017
1719,1003,1014
1720,999,1011
1721,996,1008
1722,1001,1010
1723,1003,1010
1724,1009,1009
1725,1015,1003
1726,1020,998
1727,1015,994
1728,1012,994
1729,1007,992
1730,1009,993
1731,1011,991
1732,1014,990
1733,1015,985
1734,1019,982
1735,1020,977
1736,1021,972
1737,1018,968
1738,1007,968
1739,996,970
1740,995,972
1741,1000,972
1742,1003,972
1743,1005,968
1744,1004,968
1745,999,966
1746,999,972
1747,996,974
1748,994,977
1749,987,978
1750,987,977
1751,986,977
1752,985,976
1753,986,981
1754,983,980
1755,980,978
1756,973,977
1757,972,980
1758,977,982
1759,977,988
1760,975,992
1761,971,988
1762,966,991
1763,965,989
1764,962,991
1765,963,996
1766,964,998
1767,962,999
1768,955,996
1769,952,993
1770,953,997
1771,954,1000
1772,952,1004
1773,953,1010
1774,954,1009
1775,951,1008
1776,950,1010
1777,946,1013
1778,944,1016
1779,944,1013
1780,946,1013
1781,947,1014
1782,953,1019
1783,953,1022
1784,953,1021
1785,950,1018
1786,943,1014
1787,933,1015
1788,929,1021
1789,928,1025
1790,935,1027
1791,941,1028
1792,940,1027
1793,937,1026
1794,934,1032
1795,933,1035
1796,934,1034
1797,932,1032
1798,931,1025
1799,930,1025
1800,931,1027
1801,928,1031
1802,928,1032
1803,930,1028
1804,926,1024
1805,924,1024
1806,926,1028
1807,931,1031
1808,935,1030
1809,935,1026
1810,937,1019
1811,934,1014
1812,931,1018
1813,926,1023
1814,926,1020
1815,926,1015
1816,927,1011
1817,927,1010
1818,927,1015
1819,925,1019
1820,930,1019
1821,928,1018
1822,925,1021
1823,930,1019
1824,930,1021
1825,936,1020
1826,937,1019
1827,939,1015
1828,934,1016
1829,933,1018
1830,934,1024
1831,934,1025
1832,940,1027
1833,939,1025
1834,942,1023
1835,943,1022
1836,948,1025
1837,952,1027
1838,958,1029
1839,959,1031
1840,956,1029
1841,950,1028
1842,949,1032
1843,952,1032
1844,952,1030
1845,953,1018
1846,951,1006
1847,948,999
1848,947,997
1849,942,994
1850,942,993
1851,939,989
1852,933,988
1853,929,990
1854,930,993
1855,934,995
1856,935,997
1857,934,995
1858,930,989
1859,926,992
1860,928,994
1861,928,993
1862,927,992
1863,925,988
1864,922,985
1865,918,982
1866,916,984
1867,919,987
1868,920,985
1869,919,980
1870,919,976
1871,917,974
1872,916,973
1873,919,977
1874,919,980
1875,917,976
1876,916,973
1877,912,972
1878,909,972
1879,914,970
1880,916,973
1881,915,971
1882,914,976
1883,914,979
1884,917,982
1885,921,983
1886,922,984
1887,927,981
1888,928,982
1889,930,983
1890,937,991
1891,939,994
1892,942,999
1893,943,1003
1894,941,1005
1895,940,1011
1896,942,1017
1897,945,1021
1898,947,1018
1899,949,1014
1900,948,1011
1901,947,1014
1902,947,1020
1903,950,1019
1904,957,1021
1905,957,1018
1906,957,1012
1907,956,1009
1908,955,1009
1909,956,1010
1910,958,1009
1911,959,1012
1912,959,1014
1913,953,1020
1914,949,1028
1915,951,1030
1916,949,1025
1917,944,1018
1918,933,1015
1919,923,997
1920,920,947
1921,927,884
1922,937,816
1923,944,740
1924,953,650
1925,962,569
1926,969,509
1927,975,478
1928,982,468
1929,989,470
1930,999,489
1931,1019,528
1932,1049,605
1933,1084,721
1934,1111,848
1935,1121,944
1936,1109,995
1937,1098,1017
1938,1079,1029
1939,1058,1039
1940,1038,1039
1941,1017,1043
1942,997,1045
1943,978,1049
1944,972,1053
1945,971,1055
1946,973,1056
1947,974,1051
1948,972,1054
1949,967,1056
1950,968,1060
1951,968,1065
1952,968,1063
1953,965,1064
1954,969,1063
1955,970,1062
1956,973,1065
1957,975,1068
1958,978,1072
1959,978,1070
1960,975,1065
1961,973,1063
1962,971,1064
1963,975,1065
1964,979,1065
1965,980,1064
1966,977,1062
1967,979,1062
1968,982,1065
1969,981,1067
1970,986,1067
1971,988,1068
1972,988,1063
1973,989,1061
1974,988,1063
1975,990,1063
1976,992,1065
1977,990,1069
1978,990,1068
1979,987,1069
1980,989,1072
1981,992,1070
1982,994,1071
1983,995,1069
1984,996,1066
1985,991,1065
1986,993,1067
1987,997,1069
1988,1003,1069
1989,1002,1067
1990,1001,1065
1991,1001,1063
1992,1004,1064
1993,1007,1061
1994,1011,1061
1995,1011,1059
1996,1009,1056
1997,1007,1053
1998,1009,1056
1999,1015,1057
2000,1022,1054
2001,1018,1052
2002,1021,1046
2003,1019,1043
2004,1020,1045
2005,1021,1044
2006,1024,1041
2007,1024,1037
2008,1023,1028
2009,1020,1022
2010,1019,1022
2011,1019,1023
2012,1024,1020
2013,1025,1019
2014,1021,1016
2015,1018,1014
2016,1025,1013
2017,1025,1014
2018,1030,1014
2019,1030,1007
2020,1030,999
2021,1026,998
2022,1027,996
2023,1028,999
2024,1026,999
2025,1025,993
2026,1024,992
2027,1020,992
2028,1020,995
2029,1022,995
2030,1024,990
2031,1019,991
2032,1017,986
2033,1011,987
2034,1007,992
2035,1007,994
2036,1007,994
2037,1008,993
2038,1001,989
2039,999,987
2040,997,996
2041,996,1002
2042,999,1005
2043,995,1007
2044,993,1006
2045,989,1008
2046,984,1009
2047,984,1006
2048,984,1007
2049,983,1006
2050,982,1005
2051,978,1007
2052,976,1006
2053,977,1008
2054,975,1008
2055,974,1011
2056,972,1013
2057,967,1011
2058,969,1015
2059,973,1018
2060,975,1013
2061,973,1016
2062,969,1016
2063,962,1019
2064,964,1025
2065,966,1028
2066,970,1028
2067,968,1027
2068,965,1023
2069,961,1021
2070,959,1026
2071,958,1028
2072,958,1032
2073,957,1033
2074,953,1034
2075,951,1031
2076,953,1034
2077,955,1037
2078,956,1038
2079,954,1038
2080,949,1037
2081,944,1037
2082,942,1039
2083,944,1040
2084,945,1039
2085,946,1037
2086,942,1034
2087,940,1037
2088,939,1042
2089,943,1044
2090,942,1041
2091,942,1043
2092,939,1037
2093,936,1041
2094,938,1039
2095,941,1040
2096,943,1036
2097,938,1034
2098,934,1031
2099,930,1030
2100,932,1033
2101,938,1032
2102,942,1031
2103,942,1029
2104,940,1026
2105,935,1024
2106,931,1030
2107,934,1031
2108,939,1033
2109,938,1030
2110,941,1028
2111,938,1025
2112,941,1024
2113,944,1025
2114,945,1028
2115,942,1030
2116,941,1028
2117,940,1026
2118,947,1029
2119,954,1033
2120,957,1034
2121,957,1034
2122,956,1033
2123,954,1031
2124,955,1031
2125,959,1031
2126,963,1038
2127,965,1040
2128,965,1037
2129,965,1035
2130,963,1041
2131,968,1044
2132,969,1037
2133,964,1027
2134,961,1010
2135,956,1001
2136,956,997
2137,957,1000
2138,954,999
2139,952,999
2140,947,991
2141,943,989
2142,941,992
2143,937,994
2144,937,997
2145,938,996
2146,937,993
2147,938,994
2148,940,991
2149,947,991
2150,946,989
2151,943,989
2152,932,983
2153,930,982
2154,929,986
2155,929,989
2156,931,990
2157,935,986
2158,933,980
2159,936,977
2160,932,978
2161,929,975
2162,928,973
2163,926,971
2164,924,968
2165,924,964
2166,928,964
2167,931,971
2168,934,972
2169,930,970
2170,921,964
2171,915,967
2172,916,975
2173,921,979
2174,931,983
2175,939,985
2176,945,985
2177,946,984
2178,946,988
2179,945,993
2180,947,1000
2181,946,1002
2182,947,1004
2183,950,1005
2184,956,1010
2185,962,1013
2186,961,1013
2187,954,1011
2188,951,1009
2189,949,1010
2190,950,1013
2191,953,1014
2192,957,1013
2193,962,1011
2194,962,1011
2195,964,1011
2196,965,1013
2197,963,1015
2198,964,1016
2199,961,1015
2200,955,1018
2201,949,1019
2202,949,1021
2203,948,1021
2204,947,1020
2205,935,1017
2206,926,1008
2207,919,967
2208,921,910
2209,928,849
2210,931,790
2211,936,714
2212,940,629
2213,950,542
2214,957,479
2215,962,442
2216,970,435
2217,975,446
2218,993,489
2219,1024,575
2220,1068,702
2221,1099,829
2222,1109,956
2223,1101,1032
2224,1089,1049
2225,1066,1055
2226,1042,1058
2227,1017,1062
2228,1005,1062
2229,996,1063
2230,987,1064
2231,978,1069
2232,977,1070
2233,977,1064
2234,978,1060
2235,974,1058
2236,976,1061
2237,971,1063
2238,974,1067
2239,976,1070
2240,982,1072
2241,982,1071
2242,978,1068
2243,974,1066
2244,975,1066
2245,972,1067
2246,978,1071
2247,983,1068
2248,982,1063
2249,978,1060
2250,980,1065
2251,988,1071
2252,994,1073
2253,993,1070
2254,991,1069
2255,989,1069
2256,991,1067
2257,994,1068
2258,996,1065
2259,995,1064
2260,994,1058
2261,990,1053
2262,989,1056
2263,992,1061
2264,995,1069
2265,998,1070
2266,1001,1070
2267,999,1067
2268,998,1069
2269,1000,1066
2270,1002,1064
2271,1002,1057
2272,1001,1056
2273,1004,1061
2274,1006,1064
2275,1011,1064
2276,1011,1061
2277,1011,1058
2278,1013,1059
2279,1014,1059
2280,1011,1064
2281,1016,1062
2282,1021,1056
2283,1028,1048
2284,1025,1041
2285,1026,1039
2286,1027,1041
2287,1026,1037
2288,1024,1034
2289,1030,1029
2290,1035,1024
2291,1038,1022
2292,1040,1022
2293,1042,1021
2294,1046,1018
2295,1043,1010
2296,1041,1002
2297,1037,999
2298,1036,1001
2299,1037,1002
2300,1043,1003
2301,1045,996
2302,1045,986
2303,1040,980
2304,1039,982
2305,1039,986
2306,1043,992
2307,1045,990
2308,1041,985
2309,1039,976
2310,1040,974
2311,1041,973
2312,1044,977
2313,1039,974
2314,1037,968
2315,1033,965
2316,1033,970
2317,1030,979
2318,1030,979
2319,1024,982
2320,1018,981
2321,1014,977
2322,1009,973
2323,1008,971
2324,1008,976
2325,1003,978
2326,999,978
2327,995,978
2328,998,979
2329,996,980
2330,996,985
2331,996,984
2332,995,986
2333,993,984
2334,988,987
2335,983,989
2336,986,998
2337,986,998
2338,986,999
2339,983,993
2340,984,992
2341,986,995
2342,989,997
2343,988,999
2344,984,997
2345,976,998
2346,974,999
2347,973,1001
2348,975,1005
2349,978,1007
2350,979,1006
2351,978,1008
2352,977,1013
2353,977,1017
2354,977,1020
2355,975,1017
2356,971,1011
2357,968,1012
2358,969,1016
2359,968,1024
2360,967,1027
2361,965,1028
2362,964,1025
2363,968,1024
2364,967,1019
2365,966,1018
2366,965,1019
2367,964,1021
2368,955,1021
2369,957,1015
2370,959,1016
2371,962,1015
2372,959,1017
2373,955,1021
2374,954,1017
2375,953,1012
2376,956,1009
2377,965,1011
2378,970,1013
2379,971,1013
2380,963,1012
2381,962,1013
2382,957,1009
2383,959,1003
2384,965,1002
2385,965,1001
2386,961,1001
2387,959,996
2388,959,997
2389,960,999
2390,964,998
2391,963,997
2392,962,999
2393,961,1002
2394,968,1010
2395,980,1014
2396,984,1012
2397,985,1016
2398,985,1016
2399,983,1010
2400,985,1004
2401,987,999
2402,995,996
2403,995,1002
2404,993,1011
2405,991,1018
2406,988,1021
2407,990,1020
2408,987,1011
2409,987,995
2410,978,978
2411,969,966
2412,970,965
2413,971,970
2414,975,972
2415,972,971
2416,972,964
2417,972,960
2418,965,961
2419,961,971
2420,958,982
2421,957,984
2422,956,976
2423,961,966
2424,960,967
2425,963,973
2426,965,972
2427,965,964
2428,960,951
2429,955,944
2430,954,947
2431,961,956
2432,968,967
2433,963,968
2434,960,958
2435,952,946
2436,945,944
2437,942,949
2438,940,955
2439,942,957
2440,944,953
2441,947,945
2442,950,944
2443,948,950
2444,940,962
2445,936,959
2446,931,949
2447,927,946
2448,929,945
2449,934,946
2450,942,947
2451,944,953
2452,946,956
2453,948,958
2454,949,960
2455,948,965
2456,951,970
2457,954,972
2458,954,977
2459,954,983
2460,949,987
2461,947,990
2462,950,995
2463,953,993
2464,957,992
2465,962,994
2466,965,997
2467,969,999
2468,968,994
2469,965,988
2470,962,988
2471,962,986
2472,962,986
2473,964,990
2474,966,991
2475,964,987
2476,963,988
2477,959,994
2478,956,998
2479,950,991
2480,944,981
2481,936,979
2482,927,968
2483,930,926
2484,937,868
2485,944,811
2486,953,750
2487,954,673
2488,957,587
2489,963,511
2490,972,458
2491,977,431
2492,984,425
2493,990,429
2494,1003,447
2495,1027,493
2496,1068,587
2497,1107,714
2498,1131,841
2499,1131,963
2500,1118,1005
2501,1102,1022
2502,1079,1031
2503,1050,1034
2504,1024,1025
2505,1002,1024
2506,993,1034
2507,987,1041
2508,983,1041
2509,980,1041
2510,980,1040
2511,976,1035
2512,971,1030
2513,971,1028
2514,971,1033
2515,978,1041
2516,977,1048
2517,976,1049
2518,971,1048
2519,972,1048
2520,972,1045
2521,981,1044
2522,984,1044
2523,985,1044
2524,979,1046
2525,981,1037
2526,978,1036
2527,975,1040
2528,979,1044
2529,976,1043
2530,976,1040
2531,973,1040
2532,975,1042
2533,978,1042
2534,985,1049
2535,986,1052
2536,986,1047
2537,984,1047
2538,984,1049
2539,986,1046
2540,987,1045
2541,985,1044
2542,982,1040
2543,983,1044
2544,988,1048
2545,989,1052
2546,992,1047
2547,992,1044
2548,991,1036
2549,995,1033
2550,996,1042
2551,1003,1048
2552,1005,1051
2553,1005,1047
2554,1000,1043
2555,1000,1040
2556,999,1044
2557,999,1044
2558,1004,1039
2559,1000,1032
2560,1002,1030
2561,1006,1030
2562,1009,1028
2563,1015,1031
2564,1020,1032
2565,1021,1031
2566,1023,1025
2567,1022,1020
2568,1020,1013
2569,1022,1013
2570,1022,1018
2571,1022,1014
2572,1019,1009
2573,1021,1010
2574,1021,1015
2575,1026,1012
2576,1029,1008
2577,1032,1002
2578,1031,997
2579,1031,994
2580,1030,993
2581,1035,992
2582,1037,980
2583,1041,977
2584,1037,970
2585,1031,970
2586,1028,969
2587,1022,970
2588,1019,970
2589,1015,975
2590,1015,971
2591,1014,966
2592,1012,967
2593,1013,970
2594,1014,970
2595,1010,969
2596,1008,963
2597,1003,961
2598,1002,963
2599,1010,969
2600,1015,974
2601,1009,973
2602,1005,973
2603,1001,971
2604,1000,970
2605,998,973
2606,997,975
2607,992,976
2608,989,980
2609,988,982
2610,986,980
2611,982,978
2612,980,980
2613,976,983
2614,975,983
2615,973,985
2616,976,986
2617,979,987
2618,978,989
2619,975,992
2620,967,994
2621,965,992
2622,963,992
2623,968,997
2624,970,997
2625,972,996
2626,974,994
2627,971,997
2628,968,997
2629,966,999
2630,969,1004
2631,967,1008
2632,966,1006
2633,964,1003
2634,961,998
2635,955,1005
2636,962,1012
2637,959,1012
2638,955,1010
2639,955,1006
2640,952,1009
2641,950,1014
2642,954,1024
2643,954,1023
2644,953,1019
2645,952,1013
2646,953,1012
2647,954,1019
2648,957,1023
2649,954,1018
2650,952,1017
2651,947,1019
2652,948,1022
2653,953,1023
2654,955,1026
2655,952,1025
2656,952,1026
2657,950,1022
2658,947,1023
2659,949,1026
2660,956,1034
2661,952,1037
2662,953,1036
2663,953,1035
2664,954,1030
2665,959,1025
2666,957,1017
2667,958,1012
2668,953,1011
2669,953,1017
2670,946,1025
2671,944,1031
2672,942,1029
2673,944,1027
2674,943,1025
2675,946,1024
2676,943,1024
2677,942,1025
2678,940,1023
2679,940,1027
2680,943,1021
2681,946,1016
2682,946,1016
2683,949,1015
2684,950,1020
2685,953,1019
2686,954,1014
2687,954,1009
2688,954,1010
2689,956,1018
2690,956,1023
2691,958,1023
2692,965,1026
2693,965,1022
2694,970,1018
2695,973,1021
2696,978,1027
2697,974,1030
2698,972,1029
2699,972,1027
2700,972,1023
2701,976,1011
2702,976,997
2703,974,992
2704,968,989
2705,962,985
2706,953,982
2707,947,984
2708,948,985
2709,946,985
2710,944,979
2711,942,975
2712,936,974
2713,939,977
2714,938,979
2715,934,984
2716,934,988
2717,937,990
2718,935,986
2719,936,987
2720,943,984
2721,944,979
2722,938,974
2723,936,975
2724,929,969
2725,928,968
2726,930,969
2727,925,971
2728,919,971
2729,918,971
2730,921,969
2731,922,967
2732,926,963
2733,927,962
2734,921,959
2735,917,963
2736,919,965
2737,920,965
2738,929,966
2739,925,968
2740,922,965
2741,917,964
2742,915,967
2743,917,972
2744,926,980
2745,932,981
2746,939,982
2747,942,980
2748,942,985
2749,941,990
2750,941,996
2751,941,999
2752,944,1001
2753,942,1007
2754,943,1008
2755,943,1010
2756,945,1014
2757,945,1012
2758,949,1007
2759,950,1003
2760,954,1005
2761,956,1005
2762,949,1008
2763,944,1011
2764,943,1008
2765,946,1008
2766,949,1002
2767,952,1003
2768,958,1008
2769,951,1016
2770,947,1016
2771,939,1008
2772,934,1006
2773,931,1004
2774,925,1010
2775,916,1012
2776,914,978
2777,914,912
2778,915,847
2779,921,783
2780,927,712
2781,931,642
2782,935,572
2783,940,507
2784,948,456
2785,951,429
2786,959,420
2787,965,431
2788,982,464
2789,1018,545
2790,1059,672
2791,1094,799
2792,1108,926
2793,1100,1043
2794,1091,1062
2795,1072,1063
2796,1045,1063
2797,1018,1063
2798,999,1062
2799,982,1067
2800,971,1073
2801,963,1073
2802,961,1076
2803,966,1078
2804,968,1075
2805,969,1068
2806,967,1065
2807,962,1063
2808,959,1063
2809,962,1066
2810,964,1068
2811,962,1071
2812,962,1072
2813,962,1071
2814,965,1072
2815,965,1072
2816,968,1072
2817,968,1069
2818,968,1071
2819,966,1074
2820,966,1079
2821,970,1084
2822,972,1080
2823,970,1075
2824,967,1070
2825,963,1071
2826,965,1076
2827,968,1076
2828,981,1077
2829,983,1073
2830,979,1071
2831,976,1071
2832,975,1074
2833,978,1075
2834,983,1074
2835,981,1078
2836,979,1076
2837,980,1075
2838,988,1078
2839,993,1077
2840,998,1074
2841,998,1072
2842,993,1070
2843,992,1070
2844,989,1067
2845,993,1063
2846,998,1061
2847,1001,1063
2848,1004,1068
2849,1005,1069
2850,1002,1063
2851,1002,1061
2852,1002,1053
2853,1002,1052
2854,1000,1051
2855,1002,1048
2856,1010,1045
2857,1010,1045
2858,1012,1045
2859,1011,1047
2860,1010,1045
2861,1011,1047
2862,1015,1043
2863,1022,1041
2864,1029,1034
2865,1029,1030
2866,1027,1025
2867,1026,1017
2868,1021,1009
2869,1023,1009
2870,1023,1005
2871,1022,1004
2872,1029,998
2873,1029,996
2874,1026,996
2875,1026,996
2876,1027,997
2877,1025,994
2878,1021,994
2879,1021,989
2880,1019,986
2881,1018,982
2882,1019,978
2883,1018,980
2884,1017,981
2885,1015,982
2886,1013,984
2887,1015,989
2888,1015,987
2889,1008,978
2890,1000,973
2891,995,974
2892,993,981
2893,993,989
2894,994,992
2895,992,995
2896,995,996
2897,996,994
2898,991,998
2899,991,999
2900,991,999
2901,989,997
2902,988,1000
2903,977,998
2904,975,1001
2905,973,1000
2906,972,1000
2907,973,999
2908,969,995
2909,968,997
2910,967,1004
2911,964,1011
2912,968,1012
2913,965,1010
2914,963,1013
2915,959,1016
2916,959,1019
2917,960,1021
2918,960,1020
2919,961,1017
2920,960,1015
2921,964,1017
2922,967,1016
2923,961,1018
2924,959,1017
2925,958,1018
2926,956,1017
2927,950,1018
2928,947,1022
2929,952,1023
2930,951,1024
2931,952,1024
2932,955,1026
2933,952,1028
2934,951,1032
2935,948,1035
2936,945,1035
2937,945,1030
2938,945,1031
2939,939,1031
2940,937,1034
2941,939,1034
2942,943,1036
2943,937,1030
2944,930,1025
2945,930,1025
2946,932,1026
2947,933,1031
2948,938,1034
2949,939,1034
2950,938,1032
2951,936,1026
2952,933,1025
2953,933,1025
2954,932,1029
2955,927,1031
2956,923,1030
2957,928,1025
2958,928,1022
2959,935,1020
2960,933,1021
2961,935,1020
2962,933,1022
2963,932,1023
2964,929,1022
2965,931,1020
2966,933,1020
2967,935,1019
2968,937,1017
2969,938,1018
2970,941,1019
2971,939,1022
2972,939,1021
2973,937,1026
2974,937,1029
2975,938,1022
2976,942,1016
2977,951,1017
2978,957,1024
2979,957,1035
2980,952,1038
2981,952,1033
2982,952,1031
2983,956,1026
2984,957,1028
2985,955,1032
2986,954,1032
2987,954,1033
2988,955,1034
2989,959,1036
2990,961,1038
2991,960,1037
2992,959,1029
2993,959,1015
2994,954,1004
2995,955,997
2996,952,992
2997,946,989
2998,944,985
2999,942,984
3000,940,989
3001,942,994
3002,941,993
3003,933,994
3004,931,993
3005,930,992
3006,927,993
3007,931,991
3008,935,986
3009,933,979
3010,930,977
3011,930,978
3012,931,981
3013,933,983
3014,932,985
3015,930,984
3016,924,980
3017,914,977
3018,914,975
3019,916,974
3020,918,972
3021,920,972
3022,921,973
3023,918,971
3024,917,973
3025,916,974
3026,917,970
3027,914,964
3028,914,966
3029,913,967
3030,913,966
3031,914,967
3032,916,968
3033,916,970
3034,914,969
3035,910,970
3036,908,969
3037,909,967
3038,911,967
3039,909,968
3040,908,965
3041,908,966
3042,911,976
3043,918,985
3044,925,990
3045,925,997
3046,924,1001
3047,921,991
3048,921,989
3049,930,994
3050,936,1003
3051,940,1011
3052,937,1013
3053,936,1011
3054,934,1006
3055,935,1008
3056,933,1011
3057,931,1009
3058,927,1004
3059,926,1001
3060,930,1003
3061,936,1005
3062,939,1011
3063,942,1012
3064,939,1014
3065,938,1012
3066,937,1015
3067,936,1012
3068,935,1015
3069,938,1016
3070,936,1016
3071,930,1012
3072,925,1009
3073,922,1007
3074,917,1004
3075,906,1007
3076,901,990
3077,900,949
3078,907,896
3079,915,848
3080,922,790
3081,927,722
3082,940,643
3083,950,563
3084,952,502
3085,953,463
3086,958,444
3087,959,440
3088,964,445
3089,982,464
3090,1011,512
3091,1048,599
3092,1087,726
3093,1106,853
3094,1109,967
3095,1099,1015
3096,1086,1035
3097,1067,1050
3098,1039,1055
3099,1011,1052
3100,986,1048
3101,970,1050
3102,962,1057
3103,960,1062
3104,959,1065
3105,957,1062
3106,951,1064
3107,948,1057
3108,944,1058
3109,949,1062
3110,955,1068
3111,957,1067
3112,961,1071
3113,957,1072
3114,958,1071
3115,960,1072
3116,959,1067
3117,956,1061
3118,949,1056
3119,949,1058
3120,949,1057
3121,955,1061
3122,961,1063
3123,962,1069
3124,958,1069
3125,954,1067
3126,946,1068
3127,945,1069
3128,950,1069
3129,959,1064
3130,963,1063
3131,966,1060
3132,967,1061
3133,965,1066
3134,965,1068
3135,967,1065
3136,971,1062
3137,970,1061
3138,967,1061
3139,970,1065
3140,973,1070
3141,973,1075
3142,970,1073
3143,969,1071
3144,969,1067
3145,973,1065
3146,974,1064
3147,973,1062
3148,972,1055
3149,974,1048
3150,975,1051
3151,977,1056
3152,981,1059
3153,981,1064
3154,981,1062
3155,981,1059
3156,987,1060
3157,992,1063
3158,997,1061
3159,1000,1056
3160,1003,1046
3161,995,1039
3162,994,1035
3163,995,1037
3164,997,1043
3165,1001,1044
3166,1001,1040
3167,1000,1028
3168,1002,1033
3169,1005,1033
3170,1004,1035
3171,1005,1030
3172,1002,1022
3173,998,1019
3174,995,1017
3175,999,1011
3176,1005,1011
3177,1009,1006
3178,1012,1000
3179,1014,996
3180,1014,996
3181,1012,1001
3182,1014,1000
3183,1011,1000
3184,1009,993
3185,1007,986
3186,1006,980
3187,1007,978
3188,1007,983
3189,1006,987
3190,1003,989
3191,1001,990
3192,998,993
3193,997,995
3194,996,993
3195,990,989
3196,987,982
3197,991,980
3198,995,981
3199,994,984
3200,990,990
3201,982,990
3202,981,988
3203,975,993
3204,971,998
3205,975,997
3206,978,995
3207,978,994
3208,973,986
3209,971,983
3210,964,986
3211,963,993
3212,961,998
3213,962,1006
3214,958,1007
3215,953,1008
3216,952,1012
3217,957,1013
3218,964,1012
3219,966,1009
3220,963,1007
3221,960,1007
3222,957,1011
3223,955,1014
3224,956,1018
3225,953,1018
3226,951,1014
3227,954,1013
3228,952,1012
3229,954,1010
3230,954,1011
3231,952,1017
3232,949,1018
3233,948,1019
3234,945,1024
3235,950,1029
3236,951,1032
3237,959,1030
3238,959,1025
3239,957,1022
3240,958,1024
3241,957,1025
3242,955,1031
3243,948,1031
3244,949,1030
3245,947,1030
3246,945,1033
3247,949,1036
3248,950,1039
3249,950,1040
3250,949,1041
3251,946,1038
3252,940,1035
3253,940,1036
3254,939,1036
3255,944,1037
3256,942,1031
3257,941,1025
3258,939,1027
3259,939,1034
3260,941,1038
3261,944,1040
3262,942,1036
3263,935,1029
3264,931,1027
3265,931,1032
3266,933,1035
3267,939,1031
3268,941,1029
3269,944,1027
3270,941,1034
3271,941,1033
3272,940,1035
3273,941,1037
3274,940,1034
3275,939,1029
3276,941,1025
3277,942,1023
3278,944,1025
3279,943,1028
3280,943,1031
3281,939,1029
3282,936,1030
3283,939,1031
3284,938,1033
3285,945,1031
3286,944,1025
3287,942,1015
3288,947,1016
3289,950,1021
3290,952,1027
3291,958,1031
3292,958,1032
3293,956,1036
3294,957,1039
3295,966,1041
3296,974,1042
3297,975,1042
3298,973,1036
3299,971,1034
3300,969,1033
3301,970,1037
3302,968,1040
3303,966,1032
3304,966,1021
3305,965,1011
3306,961,999
3307,963,994
3308,965,992
3309,961,989
3310,957,984
3311,950,984
3312,942,988
3313,939,991
3314,940,995
3315,941,998
3316,942,997
3317,941,995
3318,942,995
3319,945,996
3320,946,993
3321,942,991
3322,938,985
3323,935,983
3324,932,983
3325,934,988
3326,937,990
3327,939,989
3328,939,988
3329,934,989
3330,932,992
3331,934,990
3332,933,990
3333,932,985
3334,927,972
3335,924,956
3336,925,953
3337,930,961
3338,928,966
3339,929,968
3340,925,964
3341,925,962
3342,925,962
3343,926,966
3344,925,966
3345,921,968
3346,917,967
3347,918,967
3348,919,970
3349,924,975
3350,930,977
3351,936,980
3352,942,982
3353,946,981
3354,950,983
3355,953,993
3356,949,1001
3357,950,1009
3358,949,1009
3359,952,1007
3360,954,1015
3361,956,1020
3362,958,1025
3363,956,1022
3364,954,1019
3365,951,1015
3366,950,1016
3367,953,1012
3368,956,1012
3369,958,1013
3370,961,1010
3371,959,1005
3372,958,1009
3373,963,1017
3374,966,1020
3375,966,1019
3376,966,1015
3377,963,1009
3378,962,1013
3379,962,1020
3380,958,1024
3381,951,1020
3382,940,1015
3383,932,1013
3384,924,1022
3385,920,1024
3386,923,998
3387,932,943
3388,942,882
3389,948,819
3390,959,750
3391,970,674
3392,974,591
3393,977,523
3394,980,475
3395,982,455
3396,987,455
3397,1005,473
3398,1033,516
3399,1073,589
3400,1112,709
3401,1135,836
3402,1138,946
3403,1130,1012
3404,1116,1040
3405,1097,1053
3406,1074,1058
3407,1042,1051
3408,1016,1043
3409,999,1046
3410,991,1060
3411,985,1070
3412,979,1072
3413,978,1065
3414,975,1062
3415,976,1060
3416,980,1061
3417,985,1062
3418,988,1063
3419,983,1060
3420,977,1063
3421,976,1068
3422,974,1073
3423,972,1075
3424,970,1069
3425,971,1068
3426,975,1069
3427,981,1071
3428,981,1075
3429,987,1072
3430,986,1064
3431,985,1061
3432,983,1059
3433,983,1064
3434,987,1065
3435,988,1066
3436,985,1064
3437,986,1064
3438,985,1066
3439,983,1071
3440,986,1067
3441,985,1068
3442,990,1071
3443,990,1069
3444,995,1065
3445,996,1066
3446,1001,1068
3447,1001,1072
3448,998,1065
3449,994,1060
3450,994,1057
3451,991,1057
3452,996,1059
3453,996,1060
3454,1000,1063
3455,1002,1062
3456,1006,1065
3457,1007,1066
3458,1006,1066
3459,1003,1064
3460,999,1063
3461,997,1060
3462,996,1062
3463,996,1063
3464,1001,1066
3465,1003,1067
3466,1004,1068
3467,1006,1068
3468,1010,1062
3469,1014,1058
3470,1015,1055
3471,1022,1055
3472,1019,1051
3473,1019,1049
3474,1021,1048
3475,1025,1045
3476,1025,1042
3477,1030,1041
3478,1030,1038
3479,1027,1036
3480,1023,1035
3481,1021,1032
3482,1023,1031
3483,1026,1029
3484,1031,1024
3485,1037,1019
3486,1041,1017
3487,1040,1016
3488,1036,1016
3489,1033,1011
3490,1031,1002
3491,1031,999
3492,1033,1002
3493,1037,1004
3494,1038,1002
3495,1040,996
3496,1041,995
3497,1035,995
3498,1033,997
3499,1033,999
3500,1032,1001
3501,1031,997
3502,1026,993
3503,1026,992
3504,1028,989
3505,1030,991
3506,1030,995
3507,1028,994
3508,1020,991
3509,1013,984
3510,1007,977
3511,1009,977
3512,1008,981
3513,1009,985
3514,1008,990
3515,1008,996
3516,1003,1003
3517,1000,1002
3518,999,997
3519,996,995
3520,991,997
3521,987,994
3522,983,1002
3523,985,1002
3524,986,1007
3525,983,1010
3526,984,1010
3527,984,1007
3528,981,1008
3529,978,1009
3530,981,1008
3531,979,1007
3532,977,1014
3533,975,1015
3534,970,1012
3535,972,1008
3536,971,1010
3537,972,1013
3538,970,1017
3539,969,1017
3540,967,1021
3541,970,1024
3542,972,1028
3543,974,1031
3544,971,1024
3545,968,1021
3546,967,1028
3547,964,1034
3548,961,1033
3549,960,1026
3550,960,1025
3551,958,1026
3552,961,1035
3553,967,1037
3554,968,1040
3555,968,1043
3556,961,1042
3557,957,1037
3558,955,1039
3559,958,1042
3560,956,1040
3561,954,1040
3562,953,1035
3563,949,1034
3564,946,1032
3565,947,1034
3566,946,1036
3567,947,1038
3568,948,1037
3569,951,1036
3570,946,1038
3571,946,1039
3572,947,1041
3573,948,1039
3574,948,1034
3575,945,1027
3576,946,1025
3577,947,1023
3578,953,1027
3579,953,1027
3580,951,1024
3581,946,1024
3582,943,1031
3583,944,1035
3584,950,1030
3585,955,1027
3586,959,1022
3587,958,1020
3588,954,1030
3589,954,1033
3590,955,1037
3591,958,1033
3592,962,1027
3593,962,1027
3594,964,1035
3595,969,1038
3596,973,1040
3597,978,1043
3598,978,1042
3599,978,1038
3600,974,1038
3601,972,1035
3602,974,1040
3603,977,1040
3604,980,1030
3605,977,1011
3606,974,999
3607,967,991
3608,963,991
3609,958,996
3610,956,997
3611,954,997
3612,949,996
3613,948,994
3614,950,994
3615,948,995
3616,945,993
3617,940,989
3618,937,985
3619,937,987
3620,939,988
3621,940,998
3622,941,996
3623,939,986
3624,942,983
3625,940,984
3626,938,982
3627,935,986
3628,931,983
3629,930,981
3630,930,981
3631,932,981
3632,934,982
3633,932,981
3634,928,975
3635,929,976
3636,925,975
3637,925,975
3638,922,976
3639,925,976
3640,924,976
3641,923,977
3642,923,985
3643,923,990
3644,929,995
3645,932,995
3646,931,995
3647,933,993
3648,935,996
3649,938,1004
3650,942,1008
3651,942,1010
3652,942,1008
3653,938,1012
3654,940,1015
3655,943,1023
3656,946,1027
3657,952,1025
3658,954,1015
3659,951,1012
3660,950,1019
3661,952,1024
3662,953,1023
3663,954,1021
3664,950,1017
3665,949,1014
3666,951,1017
3667,952,1023
3668,953,1025
3669,953,1026
3670,952,1022
3671,948,1027
3672,946,1030
3673,943,1030
3674,941,1025
3675,936,1024
3676,925,1026
3677,921,1018
3678,917,983
3679,923,927
3680,926,872
3681,932,813
3682,936,743
3683,937,663
3684,939,591
3685,945,532
3686,956,486
3687,969,456
3688,978,446
3689,985,456
3690,1002,511
3691,1037,632
3692,1085,759
3693,1108,886
3694,1108,1013
3695,1094,1066
3696,1070,1070
3697,1046,1068
3698,1021,1065
3699,1004,1066
3700,991,1068
3701,982,1070
3702,976,1076
3703,975,1083
3704,978,1085
3705,977,1086
3706,972,1085
3707,969,1079
3708,966,1074
3709,967,1077
3710,968,1081
3711,970,1082
3712,971,1083
3713,971,1080
3714,970,1079
3715,971,1077
3716,974,1077
3717,972,1073
3718,971,1069
3719,971,1063
3720,969,1067
3721,972,1075
3722,977,1083
3723,980,1090
3724,983,1088
3725,981,1080
3726,981,1079
3727,978,1087
3728,984,1090
3729,984,1087
3730,983,1079
3731,985,1076
3732,982,1074
3733,986,1078
3734,990,1080
3735,990,1083
3736,987,1077
3737,985,1075
3738,984,1074
3739,988,1077
3740,994,1079
3741,999,1078
3742,1000,1080
3743,1000,1081
3744,1004,1083
3745,1006,1087
3746,1007,1083
3747,1006,1084
3748,1006,1080
3749,1006,1079
3750,1005,1076
3751,1009,1081
3752,1010,1081
3753,1011,1075
3754,1012,1072
3755,1012,1070
3756,1013,1069
3757,1015,1072
3758,1020,1077
3759,1022,1072
3760,1025,1066
3761,1022,1061
3762,1022,1060
3763,1024,1062
3764,1030,1068
3765,1033,1062
3766,1032,1054
3767,1028,1048
3768,1029,1046
3769,1031,1044
3770,1032,1040
3771,1039,1028
3772,1036,1019
3773,1037,1015
3774,1033,1014
3775,1031,1015
3776,1032,1017
3777,1036,1018
3778,1034,1012
3779,1037,1010
3780,1034,1009
3781,1035,1008
3782,1036,1006
3783,1035,1001
3784,1036,992
3785,1031,988
3786,1027,988
3787,1029,989
3788,1033,992
3789,1031,991
3790,1031,992
3791,1030,995
3792,1026,994
3793,1023,993
3794,1020,994
3795,1019,999
3796,1016,999
3797,1016,997
3798,1012,1001
3799,1012,1004
3800,1010,1005
3801,1005,1000
3802,1004,1000
3803,1000,996
3804,993,1001
3805,995,1005
3806,997,1008
3807,999,1004
3808,996,996
3809,994,999
3810,992,1005
3811,986,1012
3812,989,1014
3813,989,1013
3814,988,1005
3815,987,1004
3816,984,1012
3817,983,1016
3818,979,1019
3819,981,1019
3820,980,1016
3821,976,1016
3822,972,1016
3823,970,1016
3824,975,1019
3825,977,1022
3826,976,1024
3827,977,1022
3828,973,1021
3829,977,1028
3830,976,1035
3831,973,1036
3832,971,1033
3833,965,1028
3834,963,1030
3835,967,1039
3836,973,1041
3837,970,1036
3838,969,1037
3839,964,1038
3840,961,1039
3841,958,1039
3842,955,1039
3843,954,1038
3844,956,1032
3845,956,1027
3846,957,1030
3847,959,1036
3848,961,1038
3849,961,1038
3850,957,1042
3851,954,1041
3852,953,1038
3853,954,1039
3854,956,1041
3855,954,1040
3856,954,1038
3857,951,1033
3858,949,1030
3859,948,1030
3860,952,1032
3861,951,1032
3862,951,1027
3863,949,1026
3864,947,1026
3865,951,1031
3866,955,1034
3867,956,1030
3868,952,1025
3869,951,1027
3870,948,1031
3871,950,1033
3872,948,1030
3873,952,1024
3874,954,1023
3875,951,1020
3876,947,1017
3877,946,1020
3878,946,1032
3879,945,1038
3880,948,1036
3881,950,1030
3882,951,1024
3883,955,1028
3884,962,1038
3885,964,1039
3886,966,1038
3887,967,1035
3888,967,1032
3889,970,1032
3890,974,1034
3891,975,1035
3892,977,1033
3893,974,1034
3894,972,1041
3895,974,1052
3896,976,1052
3897,975,1042
3898,975,1025
3899,969,1009
3900,971,997
3901,970,993
3902,967,992
3903,964,989
3904,959,988
3905,951,992
3906,946,999
3907,947,1007
3908,952,1012
3909,950,1009
3910,947,997
3911,941,986
3912,940,979
3913,940,984
3914,943,996
3915,941,999
3916,938,996
3917,938,992
3918,933,989
3919,933,988
3920,933,987
3921,938,982
3922,939,976
3923,937,977
3924,933,982
3925,929,989
3926,930,995
3927,928,989
3928,928,980
3929,928,976
3930,926,973
3931,928,974
3932,933,976
3933,934,978
3934,930,979
3935,923,982
3936,920,977
3937,922,980
3938,927,985
3939,935,985
3940,936,986
3941,936,988
3942,935,990
3943,941,999
3944,943,1005
3945,945,1006
3946,945,1005
3947,949,1000
3948,948,1004
3949,947,1011
3950,947,1018
3951,948,1020
3952,947,1018
3953,948,1020
3954,947,1020
3955,949,1021
3956,955,1024
3957,960,1025
3958,959,1025
3959,954,1023
3960,951,1018
3961,952,1017
3962,952,1016
3963,956,1019
3964,952,1019
3965,952,1023
3966,945,1020
3967,942,1015
3968,937,1012
3969,932,1016
3970,921,1016
3971,915,986
3972,923,926
3973,931,865
3974,943,806
3975,946,734
3976,954,647
3977,963,566
3978,971,507
3979,976,477
3980,980,471
3981,988,479
3982,1001,506
3983,1030,575
3984,1066,700
3985,1097,827
3986,1110,954
3987,1105,1034
3988,1093,1055
3989,1070,1065
3990,1041,1062
3991,1020,1057
3992,1002,1054
3993,991,1064
3994,980,1066
3995,970,1066
3996,965,1070
3997,960,1074
3998,962,1078
3999,965,1078
4000,965,1073
4001,967,1069
4002,967,1069
4003,969,1075
4004,971,1079
4005,973,1076
4006,968,1070
4007,967,1069
4008,967,1071
4009,975,1078
4010,980,1081
4011,977,1079
4012,974,1078
4013,973,1076
4014,979,1074
4015,983,1072
4016,988,1075
4017,992,1081
4018,993,1083
4019,988,1076
4020,983,1071
4021,981,1076
4022,978,1078
4023,977,1078
4024,975,1081
4025,976,1081
4026,982,1077
4027,985,1082
4028,990,1080
4029,991,1075
4030,991,1072
4031,993,1070
4032,988,1071
4033,989,1081
4034,993,1087
4035,995,1087
4036,999,1079
4037,999,1072
4038,999,1072
4039,1001,1076
4040,1002,1079
4041,999,1080
4042,1001,1078
4043,1001,1075
4044,1008,1075
4045,1014,1075
4046,1019,1075
4047,1023,1071
4048,1017,1063
4049,1016,1058
4050,1013,1055
4051,1012,1059
4052,1016,1062
4053,1019,1055
4054,1020,1052
4055,1022,1047
4056,1020,1043
4057,1020,1044
4058,1021,1040
4059,1023,1036
4060,1022,1035
4061,1022,1034
4062,1023,1030
4063,1027,1030
4064,1031,1030
4065,1036,1020
4066,1034,1018
4067,1029,1018
4068,1029,1015
4069,1028,1013
4070,1029,1014
4071,1029,1016
4072,1031,1012
4073,1030,1008
4074,1028,1001
4075,1026,1004
4076,1026,1004
4077,1026,1001
4078,1024,1000
4079,1021,999
4080,1016,998
4081,1016,995
4082,1022,999
4083,1021,997
4084,1021,1000
4085,1018,999
4086,1012,1002
4087,1008,1007
4088,1005,1012
4089,1005,1012
4090,1005,1005
4091,1002,1003
4092,1000,1005
4093,1001,1014
4094,999,1018
4095,997,1019
4096,990,1020
4097,984,1020
4098,979,1022
4099,975,1023
4100,977,1023
4101,978,1024
4102,978,1024
4103,974,1026
4104,973,1025
4105,971,1023
4106,973,1025
4107,974,1023
4108,978,1022
4109,973,1020
4110,972,1021
4111,973,1029
4112,973,1035
4113,966,1039
4114,965,1038
4115,965,1039
4116,962,1034
4117,967,1040
4118,973,1038
4119,974,1036
4120,973,1034
4121,969,1036
4122,968,1044
4123,967,1049
4124,967,1049
4125,965,1050
4126,963,1049
4127,960,1049
4128,961,1050
4129,964,1052
4130,968,1052
4131,965,1049
4132,963,1048
4133,955,1052
4134,953,1053
4135,955,1056
4136,957,1059
4137,959,1059
4138,958,1057
4139,954,1058
4140,952,1054
4141,952,1051
4142,950,1052
4143,950,1053
4144,948,1049
4145,947,1048
4146,943,1043
4147,947,1048
4148,949,1049
4149,951,1052
4150,948,1051
4151,944,1051
4152,944,1052
4153,942,1053
4154,943,1052
4155,950,1048
4156,953,1042
4157,953,1036
4158,953,1037
4159,953,1042
4160,949,1046
4161,950,1046
4162,948,1040
4163,945,1036
4164,944,1031
4165,948,1037
4166,951,1042
4167,959,1046
4168,957,1045
4169,956,1046
4170,955,1040
4171,960,1042
4172,963,1048
4173,967,1051
4174,972,1053
4175,977,1050
4176,979,1049
4177,982,1050
4178,984,1047
4179,985,1050
4180,980,1051
4181,975,1053
4182,971,1055
4183,973,1056
4184,979,1048
4185,987,1032
4186,986,1017
4187,983,1010
4188,976,1005
4189,967,1006
4190,960,1006
4191,953,1009
4192,953,1006
4193,955,1006
4194,955,1008
4195,957,1007
4196,952,1007
4197,951,1008
4198,945,1003
4199,939,1005
4200,941,1002
4201,944,1010
4202,950,1013
4203,954,1011
4204,954,1009
4205,951,1001
4206,946,994
4207,942,994
4208,939,994
4209,940,995
4210,937,993
4211,932,992
4212,934,989
4213,932,992
4214,933,992
4215,935,993
4216,931,988
4217,929,987
4218,927,983
4219,932,982
4220,938,988
4221,937,993
4222,929,997
4223,926,994
4224,921,990
4225,924,994
4226,931,998
4227,938,1000
4228,942,999
4229,943,997
4230,948,998
4231,950,1005
4232,953,1012
4233,951,1015
4234,946,1010
4235,941,1011
4236,942,1016
4237,944,1026
4238,947,1033
4239,952,1031
4240,953,1024
4241,957,1020
4242,957,1022
4243,964,1025
4244,968,1030
4245,969,1031
4246,965,1031
4247,960,1026
4248,957,1027
4249,958,1032
4250,964,1033
4251,967,1034
4252,968,1030
4253,963,1032
4254,953,1035
4255,955,1046
4256,951,1046
4257,945,1044
4258,937,1044
4259,932,1041
4260,930,1011
4261,934,959
4262,944,899
4263,952,828
4264,960,740
4265,967,643
4266,974,555
4267,987,500
4268,991,475
4269,996,473
4270,1007,489
4271,1032,535
4272,1067,629
4273,1108,756
4274,1131,883
4275,1133,1010
4276,1118,1072
4277,1100,1078
4278,1082,1079
4279,1054,1073
4280,1025,1066
4281,1006,1066
4282,993,1069
4283,982,1074
4284,978,1077
4285,978,1081
4286,977,1085
4287,981,1084
4288,976,1081
4289,974,1077
4290,972,1074
4291,973,1082
4292,976,1089
4293,981,1095
4294,985,1091
4295,986,1083
4296,989,1077
4297,985,1076
4298,984,1082
4299,984,1086
4300,984,1082
4301,985,1078
4302,982,1080
4303,981,1082
4304,982,1086
4305,983,1089
4306,986,1089
4307,984,1084
4308,980,1077
4309,984,1079
4310,988,1080
4311,992,1081
4312,993,1079
4313,991,1082
4314,992,1087
4315,991,1089
4316,989,1087
4317,990,1083
4318,993,1080
4319,992,1078
4320,995,1076
4321,996,1077
4322,1001,1083
4323,1001,1087
4324,998,1087
4325,996,1087
4326,1002,1081
4327,1004,1076
4328,1009,1073
4329,1015,1075
4330,1014,1078
4331,1015,1076
4332,1011,1071
4333,1009,1067
4334,1010,1063
4335,1011,1059
4336,1011,1060
4337,1012,1062
4338,1018,1065
4339,1021,1069
4340,1025,1070
4341,1027,1064
4342,1026,1054
4343,1023,1049
4344,1018,1046
4345,1023,1050
4346,1026,1044
4347,1031,1040
4348,1033,1035
4349,1036,1032
4350,1034,1024
4351,1030,1020
4352,1027,1012
4353,1030,1012
4354,1031,1015
4355,1037,1017
4356,1040,1020
4357,1038,1020
4358,1037,1018
4359,1033,1018
4360,1032,1011
4361,1031,1004
4362,1031,1000
4363,1032,1008
4364,1036,1011
4365,1036,1009
4366,1032,1007
4367,1026,1004
4368,1021,1001
4369,1016,1000
4370,1011,1002
4371,1011,1004
4372,1014,1003
4373,1012,1000
4374,1005,1003
4375,1001,1009
4376,999,1014
4377,996,1012
4378,991,1007
4379,985,1007
4380,986,1014
4381,985,1022
4382,986,1027
4383,982,1027
4384,975,1027
4385,973,1018
4386,975,1013
4387,977,1018
4388,979,1028
4389,979,1027
4390,975,1017
4391,974,1011
4392,976,1014
4393,977,1023
4394,975,1032
4395,971,1033
4396,970,1027
4397,977,1028
4398,979,1033
4399,980,1038
4400,977,1042
4401,977,1043
4402,972,1040
4403,970,1039
4404,966,1040
4405,967,1045
4406,973,1049
4407,971,1051
4408,972,1051
4409,969,1051
4410,963,1054
4411,959,1055
4412,960,1058
4413,963,1057
4414,967,1058
4415,964,1059
4416,962,1057
4417,961,1057
4418,962,1060
4419,963,1057
4420,959,1051
4421,953,1039
4422,953,1039
4423,950,1046
4424,954,1059
4425,955,1065
4426,950,1059
4427,950,1055
4428,949,1054
4429,948,1051
4430,949,1046
4431,950,1044
4432,953,1041
4433,952,1036
4434,950,1036
4435,951,1041
4436,947,1043
4437,943,1041
4438,941,1035
4439,946,1037
4440,951,1041
4441,953,1041
4442,950,1043
4443,950,1046
4444,952,1047
4445,956,1040
4446,966,1041
4447,980,1047
4448,985,1057
4449,983,1061
4450,980,1058
4451,976,1048
4452,981,1044
4453,983,1043
4454,986,1048
4455,990,1051
4456,990,1054
4457,986,1054
4458,977,1059
4459,973,1053
4460,972,1042
4461,974,1026
4462,975,1008
4463,975,1000
4464,972,997
4465,966,1008
4466,959,1016
4467,955,1016
4468,957,1010
4469,955,1004
4470,952,1001
4471,953,1004
4472,955,1007
4473,957,1004
4474,953,1001
4475,946,1001
4476,943,1001
4477,943,1005
4478,946,1004
4479,949,1004
4480,952,1000
4481,948,995
4482,945,987
4483,943,989
4484,945,992
4485,944,988
4486,939,985
4487,933,979
4488,929,979
4489,932,985
4490,934,985
4491,935,987
4492,935,987
4493,931,989
4494,929,994
4495,931,997
4496,938,995
4497,946,993
4498,950,996
4499,950,997
4500,951,1002
4501,950,1011
4502,949,1019
4503,955,1019
4504,954,1018
4505,952,1015
4506,949,1016
4507,949,1023
4508,957,1037
4509,958,1042
4510,955,1039
4511,957,1037
4512,952,1034
4513,958,1034
4514,967,1035
4515,975,1031
4516,978,1028
4517,973,1028
4518,966,1023
4519,965,1028
4520,964,1037
4521,962,1039
4522,960,1037
4523,958,1031
4524,950,1026
4525,942,1030
4526,934,1040
4527,929,1037
4528,928,996
4529,930,926
4530,937,865
4531,949,809
4532,959,745
4533,967,659
4534,971,569
4535,975,500
4536,978,474
4537,982,478
4538,1001,510
4539,1038,584
4540,1085,711
4541,1124,838
4542,1130,965
4543,1112,1064
4544,1094,1081
4545,1077,1082
4546,1047,1081
4547,1021,1077
4548,1002,1082
4549,992,1089
4550,983,1094
4551,980,1091
4552,982,1080
4553,984,1080
4554,986,1083
4555,990,1090
4556,991,1089
4557,992,1088
4558,995,1089
4559,992,1089
4560,987,1086
4561,987,1090
4562,986,1090
4563,989,1091
4564,990,1091
4565,992,1092
4566,990,1091
4567,991,1091
4568,989,1089
4569,990,1088
4570,989,1087
4571,996,1089
4572,1000,1084
4573,1002,1086
4574,1006,1086
4575,1005,1096
4576,1001,1098
4577,1001,1099
4578,1001,1093
4579,1003,1088
4580,1005,1084
4581,1011,1080
4582,1011,1080
4583,1009,1079
4584,1006,1085
4585,1004,1091
4586,1003,1089
4587,1002,1087
4588,1002,1086
4589,1005,1079
4590,1008,1078
4591,1011,1082
4592,1018,1087
4593,1026,1089
4594,1022,1088
4595,1015,1088
4596,1010,1082
4597,1014,1080
4598,1020,1078
4599,1032,1075
4600,1034,1072
4601,1031,1066
4602,1027,1065
4603,1029,1075
4604,1033,1075
4605,1035,1069
4606,1035,1062
4607,1038,1056
4608,1040,1048
4609,1038,1043
4610,1040,1044
4611,1039,1049
4612,1038,1049
4613,1034,1046
4614,1037,1041
4615,1042,1038
4616,1045,1032
4617,1043,1028
4618,1040,1024
4619,1040,1016
4620,1042,1014
4621,1050,1014
4622,1055,1013
4623,1052,1007
4624,1047,1005
4625,1046,1001
4626,1041,1004
4627,1042,1005
4628,1048,1012
4629,1053,1015
4630,1052,1019
4631,1045,1020
4632,1041,1017
4633,1039,1015
4634,1041,1011
4635,1044,1002
4636,1043,994
4637,1037,991
4638,1025,995
4639,1023,1003
4640,1020,1012
4641,1018,1017
4642,1016,1019
4643,1010,1021
4644,1008,1021
4645,1011,1022
4646,1011,1026
4647,1009,1025
4648,1006,1022
4649,1003,1016
4650,998,1011
4651,1001,1018
4652,1003,1025
4653,999,1026
4654,999,1023
4655,997,1021
4656,992,1021
4657,988,1024
4658,983,1025
4659,978,1025
4660,977,1024
4661,981,1024
4662,987,1030
4663,987,1037
4664,990,1043
4665,985,1039
4666,986,1039
4667,981,1036
4668,976,1032
4669,977,1037
4670,978,1039
4671,979,1041
4672,978,1041
4673,973,1041
4674,971,1040
4675,974,1049
4676,979,1051
4677,981,1054
4678,978,1052
4679,970,1052
4680,968,1049
4681,970,1046
4682,975,1049
4683,975,1050
4684,970,1052
4685,969,1051
4686,966,1055
4687,961,1057
4688,962,1055
4689,961,1056
4690,960,1050
4691,960,1046
4692,957,1048
4693,959,1049
4694,960,1048
4695,963,1050
4696,962,1050
4697,957,1051
4698,949,1051
4699,956,1048
4700,961,1049
4701,962,1043
4702,964,1037
4703,963,1036
4704,959,1037
4705,961,1040
4706,959,1045
4707,958,1043
4708,958,1036
4709,955,1035
4710,954,1036
4711,956,1036
4712,957,1035
4713,956,1031
4714,954,1029
4715,957,1027
4716,959,1029
4717,961,1034
4718,961,1038
4719,966,1042
4720,970,1047
4721,973,1048
4722,975,1048
4723,977,1046
4724,984,1041
4725,989,1040
4726,984,1042
4727,980,1049
4728,981,1055
4729,984,1063
4730,988,1069
4731,988,1066
4732,985,1060
4733,984,1045
4734,978,1027
4735,974,1014
4736,972,1008
4737,974,1003
4738,971,1001
4739,967,1001
4740,962,1005
4741,963,1014
4742,964,1019
4743,967,1017
4744,967,1013
4745,968,1010
4746,965,1004
4747,964,1006
4748,967,1010
4749,963,1011
4750,956,1011
4751,950,1005
4752,951,1000
4753,953,1005
4754,952,1009
4755,948,1009
4756,944,1007
4757,945,999
4758,943,997
4759,945,995
4760,945,992
4761,947,986
4762,945,982
4763,942,984
4764,934,983
4765,936,988
4766,940,993
4767,941,999
4768,940,996
4769,938,993
4770,936,994
4771,935,994
4772,938,996
4773,941,998
4774,945,997
4775,949,999
4776,951,1000
4777,954,1004
4778,956,1011
4779,959,1020
4780,960,1023
4781,959,1024
4782,953,1021
4783,948,1020
4784,954,1031
4785,962,1039
4786,968,1039
4787,970,1038
4788,963,1033
4789,962,1033
4790,967,1032
4791,970,1030
4792,970,1029
4793,966,1026
4794,955,1024
4795,955,1029
4796,962,1038
4797,966,1044
4798,962,1047
4799,957,1042
4800,954,1031
4801,948,1024
4802,942,1021
4803,933,1033
4804,926,1035
4805,924,1002
4806,927,936
4807,935,867
4808,946,800
4809,960,724
4810,974,640
4811,982,561
4812,980,514
4813,979,494
4814,983,499
4815,996,520
4816,1022,568
4817,1062,669
4818,1100,796
4819,1121,923
4820,1122,1038
4821,1113,1068
4822,1105,1081
4823,1083,1087
4824,1050,1085
4825,1022,1076
4826,1004,1073
4827,989,1076
4828,980,1080
4829,974,1085
4830,973,1088
4831,974,1088
4832,977,1092
4833,983,1088
4834,981,1084
4835,980,1079
4836,975,1077
4837,973,1084
4838,973,1087
4839,977,1091
4840,980,1090
4841,980,1091
4842,975,1089
4843,978,1088
4844,978,1089
4845,979,1088
4846,978,1085
4847,978,1083
4848,976,1080
4849,979,1084
4850,984,1089
4851,986,1088
4852,987,1090
4853,984,1093
4854,982,1093
4855,982,1088
4856,985,1090
4857,992,1094
4858,997,1093
4859,994,1094
4860,991,1092
4861,987,1091
4862,987,1092
4863,991,1093
4864,992,1098
4865,992,1097
4866,992,1098
4867,997,1095
4868,1004,1092
4869,1007,1091
4870,1011,1091
4871,1009,1091
4872,1000,1088
4873,999,1088
4874,1000,1093
4875,1004,1092
4876,1003,1091
4877,1006,1087
4878,1007,1086
4879,1010,1088
4880,1013,1088
4881,1015,1086
4882,1013,1078
4883,1012,1072
4884,1015,1069
4885,1017,1078
4886,1023,1080
4887,1027,1075
4888,1028,1072
4889,1027,1069
4890,1021,1063
4891,1021,1055
4892,1020,1049
4893,1024,1050
4894,1031,1053
4895,1028,1053
4896,1026,1052
4897,1029,1049
4898,1028,1044
4899,1027,1038
4900,1026,1032
4901,1024,1023
4902,1024,1018
4903,1025,1024
4904,1029,1031
4905,1035,1033
4906,1033,1029
4907,1031,1024
4908,1021,1018
4909,1023,1016
4910,1025,1016
4911,1026,1017
4912,1023,1013
4913,1021,1013
4914,1018,1013
4915,1015,1017
4916,1011,1014
4917,1006,1017
4918,1004,1017
4919,1002,1016
4920,1000,1017
4921,999,1023
4922,998,1031
4923,997,1037
4924,996,1037
4925,993,1030
4926,990,1026
4927,983,1027
4928,978,1034
4929,982,1037
4930,982,1038
4931,985,1040
4932,982,1038
4933,980,1034
4934,975,1034
4935,972,1039
4936,968,1045
4937,967,1047
4938,965,1044
4939,972,1043
4940,972,1044
4941,973,1044
4942,973,1045
4943,971,1044
4944,967,1045
4945,966,1045
4946,969,1049
4947,972,1052
4948,971,1051
4949,967,1048
4950,963,1048
4951,963,1048
4952,968,1051
4953,971,1053
4954,969,1055
4955,964,1056
4956,963,1054
4957,966,1058
4958,971,1060
4959,970,1058
4960,968,1052
4961,966,1054
4962,965,1057
4963,968,1061
4964,967,1065
4965,969,1073
4966,966,1075
4967,962,1071
4968,953,1065
4969,947,1068
4970,944,1069
4971,945,1074
4972,942,1078
4973,945,1079
4974,943,1071
4975,945,1067
4976,943,1068
4977,942,1074
4978,941,1072
4979,941,1066
4980,947,1060
4981,961,1057
4982,976,1057
4983,991,1052
4984,998,1052
4985,989,1054
4986,965,1058
4987,942,1065
4988,925,1071
4989,923,1073
4990,925,1071
4991,934,1060
4992,950,1057
4993,970,1060
4994,975,1064
4995,969,1063
4996,966,1057
4997,958,1053
4998,957,1061
4999,953,1071
5000,954,1075
5001,959,1080
5002,963,1074
5003,968,1067
5004,976,1060
5005,986,1060
5006,998,1058
5007,1003,1057
5008,1005,1062
5009,1003,1073
5010,999,1080
5011,996,1087
5012,992,1080
5013,986,1060
5014,985,1038
5015,987,1025
5016,982,1024
5017,973,1030
5018,963,1028
5019,963,1018
5020,965,1016
5021,962,1017
5022,955,1022
5023,945,1025
5024,936,1028
5025,926,1029
5026,912,1035
5027,907,1035
5028,897,1031
5029,902,1030
5030,906,1029
5031,915,1027
5032,917,1025
5033,917,1023
5034,920,1019
5035,922,1021
5036,927,1017
5037,932,1015
5038,936,1011
5039,934,1008
5040,934,1007
5041,937,1009
5042,943,1004
5043,947,998
5044,946,993
5045,950,987
5046,951,987
5047,953,992
5048,953,995
5049,947,996
5050,934,999
5051,921,998
5052,912,999
5053,911,1009
5054,914,1019
5055,920,1024
5056,919,1027
5057,913,1032
5058,908,1035
5059,912,1036
5060,917,1035
5061,925,1035
5062,934,1036
5063,942,1035
5064,945,1029
5065,953,1026
5066,957,1030
5067,961,1035
5068,958,1038
5069,953,1037
5070,951,1042
5071,952,1048
5072,952,1047
5073,955,1044
5074,959,1039
5075,967,1037
5076,978,1030
5077,992,1026
5078,998,1024
5079,1000,1028
5080,992,1034
5081,976,1040
5082,961,1046
5083,944,1052
5084,932,1052
5085,918,1054
5086,906,1061
5087,898,1061
5088,901,1038
5089,914,996
5090,932,950
5091,937,901
5092,936,831
5093,932,741
5094,926,651
5095,927,573
5096,929,521
5097,933,498
5098,932,499
5099,951,523
5100,985,588
5101,1032,706
5102,1077,833
5103,1101,960
5104,1101,1065
5105,1093,1094
5106,1084,1100
5107,1071,1102
5108,1056,1096
5109,1050,1090
5110,1046,1085
5111,1040,1083
5112,1029,1087
5113,1016,1094
5114,1010,1100
5115,1005,1102
5116,1006,1098
5117,1000,1090
5118,998,1085
5119,999,1086
5120,1000,1083
5121,999,1079
5122,1000,1085
5123,992,1094
5124,979,1105
5125,969,1111
5126,958,1114
5127,946,1114
5128,946,1113
5129,945,1112
5130,946,1112
5131,950,1111
5132,960,1108
5133,963,1106
5134,976,1106
5135,976,1104
5136,974,1106
5137,973,1106
5138,976,1108
5139,978,1108
5140,978,1107
5141,982,1106
5142,987,1102
5143,994,1103
5144,997,1102
5145,1002,1103
5146,1001,1102
5147,996,1100
5148,989,1098
5149,987,1100
5150,989,1100
5151,993,1098
5152,996,1095
5153,996,1093
5154,997,1096
5155,999,1103
5156,1005,1102
5157,1007,1100
5158,1006,1101
5159,1005,1096
5160,1003,1097
5161,1006,1094
5162,1010,1092
5163,1015,1099
5164,1017,1100
5165,1019,1096
5166,1015,1095
5167,1013,1098
5168,1014,1097
5169,1021,1098
5170,1028,1091
5171,1031,1082
5172,1033,1077
5173,1031,1075
5174,1030,1075
5175,1029,1072
5176,1029,1075
5177,1029,1077
5178,1030,1076
5179,1028,1073
5180,1030,1068
5181,1031,1069
5182,1032,1066
5183,1027,1061
5184,1028,1058
5185,1029,1059
5186,1036,1058
5187,1040,1056
5188,1041,1053
5189,1046,1041
5190,1046,1036
5191,1046,1038
5192,1047,1037
5193,1047,1030
5194,1046,1027
5195,1048,1028
5196,1048,1030
5197,1044,1034
5198,1041,1037
5199,1043,1034
5200,1042,1031
5201,1043,1025
5202,1043,1019
5203,1045,1019
5204,1047,1021
5205,1049,1025
5206,1045,1025
5207,1046,1020
5208,1045,1020
5209,1049,1014
5210,1049,1012
5211,1047,1013
5212,1040,1010
5213,1037,1013
5214,1031,1014
5215,1030,1018
5216,1031,1026
5217,1031,1032
5218,1030,1031
5219,1029,1028
5220,1028,1029
5221,1028,1032
5222,1026,1037
5223,1028,1035
5224,1021,1031
5225,1020,1022
5226,1013,1019
5227,1007,1024
5228,1006,1031
5229,1006,1039
5230,1005,1045
5231,1006,1047
5232,1009,1046
5233,1014,1048
5234,1018,1048
5235,1018,1049
5236,1011,1048
5237,1006,1049
5238,1004,1048
5239,1004,1049
5240,1007,1051
5241,1009,1055
5242,1008,1053
5243,1006,1047
5244,1003,1044
5245,1000,1049
5246,1004,1055
5247,1005,1059
5248,1005,1056
5249,1002,1056
5250,997,1058
5251,997,1068
5252,1001,1072
5253,1001,1072
5254,1000,1067
5255,998,1066
5256,993,1069
5257,996,1072
5258,996,1078
5259,1001,1080
5260,997,1082
5261,994,1080
5262,998,1082
5263,1001,1085
5264,1005,1085
5265,1006,1078
5266,1004,1072
5267,1003,1064
5268,1003,1064
5269,999,1068
5270,1000,1076
5271,998,1081
5272,992,1079
5273,993,1076
5274,992,1075
5275,987,1079
5276,992,1080
5277,995,1082
5278,996,1080
5279,993,1077
5280,992,1073
5281,989,1076
5282,989,1077
5283,994,1079
5284,991,1079
5285,991,1078
5286,991,1076
5287,990,1075
5288,991,1072
5289,994,1069
5290,996,1068
5291,996,1067
5292,994,1067
5293,993,1072
5294,995,1074
5295,994,1075
5296,990,1074
5297,988,1074
5298,994,1071
5299,997,1067
5300,1001,1067
5301,1004,1065
5302,1002,1064
5303,997,1065
5304,996,1061
5305,994,1063
5306,994,1068
5307,996,1068
5308,991,1070
5309,987,1067
5310,992,1061
5311,995,1061
5312,1003,1063
5313,1005,1066
5314,1004,1064
5315,1003,1065
5316,1005,1067
5317,1003,1069
5318,1006,1073
5319,1014,1079
5320,1014,1076
5321,1015,1073
5322,1016,1073
5323,1016,1071
5324,1021,1073
5325,1027,1070
5326,1026,1074
5327,1026,1078
5328,1023,1080
5329,1020,1086
5330,1023,1088
5331,1026,1077
5332,1027,1068
5333,1025,1058
5334,1020,1052
5335,1016,1045
5336,1016,1039
5337,1020,1038
5338,1018,1039
5339,1011,1036
5340,1006,1029
5341,1001,1030
5342,1002,1031
5343,1004,1031
5344,1003,1034
5345,999,1030
5346,997,1030
5347,994,1032
5348,996,1034
5349,999,1031
5350,999,1031
5351,994,1029
5352,994,1029
5353,990,1030
5354,990,1028
5355,995,1026
5356,992,1025
5357,990,1021
5358,989,1015
5359,985,1017
5360,983,1023
5361,983,1027
5362,981,1024
5363,979,1023
5364,976,1022
5365,978,1018
5366,984,1021
5367,985,1018
5368,986,1018
5369,984,1016
5370,981,1014
5371,977,1014
5372,978,1010
5373,982,1013
5374,980,1016
5375,979,1012
5376,976,1010
5377,973,1009
5378,975,1014
5379,978,1018
5380,980,1017
5381,981,1014
5382,980,1013
5383,982,1018
5384,986,1023
5385,995,1030
5386,999,1026
5387,999,1024
5388,997,1025
5389,994,1028
5390,999,1034
5391,1003,1039
5392,1003,1045
5393,1005,1050
5394,1003,1053
5395,1003,1058
5396,1006,1061
5397,1010,1058
5398,1010,1058
5399,1010,1058
5400,1011,1057
5401,1007,1058
5402,1011,1056
5403,1013,1058
5404,1013,1057
5405,1014,1052
5406,1015,1051
5407,1016,1051
5408,1019,1056
5409,1020,1058
5410,1016,1057
5411,1016,1053
5412,1012,1050
5413,1013,1049
5414,1010,1053
5415,1011,1056
5416,1007,1050
5417,1002,1050
5418,996,1048
5419,988,1052
5420,982,1052
5421,982,1058
5422,977,1051
5423,978,1019
5424,981,972
5425,986,928
5426,994,879
5427,1001,822
5428,1009,752
5429,1013,676
5430,1018,605
5431,1020,550
5432,1021,514
5433,1023,499
5434,1027,496
5435,1033,506
5436,1047,531
5437,1073,592
5438,1109,684
5439,1140,802
5440,1156,912
5441,1157,990
5442,1152,1033
5443,1143,1060
5444,1134,1079
5445,1117,1092
5446,1095,1095
5447,1070,1089
5448,1051,1085
5449,1041,1091
5450,1031,1097
5451,1022,1098
5452,1013,1098
5453,1009,1097
5454,1010,1092
5455,1008,1094
5456,1011,1095
5457,1012,1097
5458,1009,1096
5459,1006,1095
5460,1007,1091
5461,1002,1090
5462,1005,1089
5463,1006,1091
5464,1005,1093
5465,1004,1092
5466,1004,1091
5467,1002,1093
5468,1006,1093
5469,1003,1091
5470,1007,1090
5471,1006,1085
5472,1004,1083
5473,1002,1082
5474,1001,1086
5475,1008,1091
5476,1008,1092
5477,1005,1092
5478,1005,1087
5479,1005,1089
5480,1005,1093
5481,1008,1093
5482,1005,1091
5483,999,1091
5484,1002,1092
5485,1001,1094
5486,1005,1094
5487,1008,1093
5488,1009,1094
5489,1009,1091
5490,1005,1094
5491,1002,1097
5492,1005,1095
5493,1011,1095
5494,1011,1093
5495,1013,1088
5496,1013,1084
5497,1013,1083
5498,1013,1087
5499,1018,1092
5500,1017,1094
5501,1014,1089
5502,1016,1083
5503,1010,1078
5504,1011,1077
5505,1012,1080
5506,1012,1084
5507,1011,1085
5508,1014,1087
5509,1014,1091
5510,1022,1091
5511,1027,1089
5512,1024,1084
5513,1023,1085
5514,1021,1087
5515,1023,1088
5516,1025,1091
5517,1032,1089
5518,1035,1090
5519,1030,1085
5520,1031,1077
5521,1030,1077
5522,1035,1082
5523,1041,1085
5524,1041,1079
5525,1041,1070
5526,1038,1062
5527,1032,1059
5528,1035,1059
5529,1037,1062
5530,1037,1062
5531,1038,1057
5532,1039,1054
5533,1043,1055
5534,1045,1056
5535,1051,1054
5536,1050,1053
5537,1052,1046
5538,1047,1040
5539,1045,1038
5540,1042,1039
5541,1046,1040
5542,1045,1038
5543,1044,1035
5544,1044,1031
5545,1047,1030
5546,1052,1031
5547,1054,1030
5548,1052,1029
5549,1045,1026
5550,1044,1021
5551,1047,1022
5552,1048,1026
5553,1049,1024
5554,1051,1023
5555,1052,1020
5556,1046,1017
5557,1044,1012
5558,1043,1017
5559,1042,1017
5560,1035,1020
5561,1032,1022
5562,1028,1024
5563,1028,1030
5564,1031,1031
5565,1033,1031
5566,1030,1029
5567,1026,1028
5568,1020,1027
5569,1018,1029
5570,1014,1035
5571,1015,1040
5572,1016,1039
5573,1014,1035
5574,1013,1032
5575,1009,1034
5576,1010,1035
5577,1016,1036
5578,1014,1038
5579,1010,1033
5580,1008,1034
5581,1007,1037
5582,1005,1041
5583,1005,1044
5584,1003,1045
5585,1002,1045
5586,999,1048
5587,1001,1051
5588,1004,1054
5589,1008,1053
5590,1003,1048
5591,996,1040
5592,992,1036
5593,993,1036
5594,999,1040
5595,1010,1047
5596,1016,1049
5597,1013,1046
5598,1014,1045
5599,1012,1048
5600,1013,1052
5601,1024,1049
5602,1039,1037
5603,1061,1025
5604,1084,1018
5605,1101,1020
5606,1111,1026
5607,1105,1030
5608,1083,1036
5609,1051,1041
5610,1019,1049
5611,989,1056
5612,979,1065
5613,976,1072
5614,976,1074
5615,971,1072
5616,960,1072
5617,955,1078
5618,941,1083
5619,935,1082
5620,928,1081
5621,920,1077
5622,914,1074
5623,912,1077
5624,912,1078
5625,919,1081
5626,926,1080
5627,929,1077
5628,933,1074
5629,937,1073
5630,948,1075
5631,955,1078
5632,960,1079
5633,964,1076
5634,963,1070
5635,962,1070
5636,964,1064
5637,967,1061
5638,968,1056
5639,968,1056
5640,970,1060
5641,978,1065
5642,982,1066
5643,987,1064
5644,987,1056
5645,988,1050
5646,986,1050
5647,985,1051
5648,984,1053
5649,985,1051
5650,985,1055
5651,984,1055
5652,977,1054
5653,971,1054
5654,964,1055
5655,961,1057
5656,955,1057
5657,946,1054
5658,938,1050
5659,938,1051
5660,940,1050
5661,948,1052
5662,954,1052
5663,957,1055
5664,961,1060
5665,965,1065
5666,967,1072
5667,977,1068
5668,977,1066
5669,981,1061
5670,977,1049
5671,977,1046
5672,978,1051
5673,980,1059
5674,981,1066
5675,984,1067
5676,987,1070
5677,992,1068
5678,995,1069
5679,995,1065
5680,991,1056
5681,986,1035
5682,979,1019
5683,975,1010
5684,978,1012
5685,979,1018
5686,978,1024
5687,975,1023
5688,975,1022
5689,973,1023
5690,971,1024
5691,967,1019
5692,967,1010
5693,962,1011
5694,959,1011
5695,958,1011
5696,963,1014
5697,963,1011
5698,962,1013
5699,958,1011
5700,952,1011
5701,946,1005
5702,947,1004
5703,949,1010
5704,954,1015
5705,957,1012
5706,955,1010
5707,952,1006
5708,951,1004
5709,949,1003
5710,947,1004
5711,945,999
5712,946,997
5713,947,997
5714,952,1001
5715,955,999
5716,955,995
5717,952,994
5718,951,994
5719,951,995
5720,950,999
5721,946,1001
5722,944,1001
5723,942,999
5724,941,998
5725,943,1000
5726,949,1002
5727,955,1007
5728,957,1016
5729,960,1019
5730,961,1014
5731,961,1019
5732,961,1024
5733,965,1027
5734,969,1026
5735,970,1024
5736,965,1023
5737,966,1025
5738,971,1033
5739,975,1040
5740,979,1043
5741,976,1040
5742,971,1036
5743,972,1042
5744,972,1042
5745,977,1045
5746,980,1043
5747,978,1043
5748,978,1038
5749,979,1037
5750,977,1036
5751,978,1040
5752,972,1041
5753,970,1039
5754,971,1042
5755,969,1051
5756,976,1057
5757,978,1054
5758,979,1047
5759,971,1039
5760,965,1034
5761,959,1028
5762,955,1034
5763,951,1041
5764,945,1023
5765,944,976
5766,945,923
5767,947,876
5768,955,820
5769,963,747
5770,972,663
5771,974,586
5772,974,526
5773,971,493
5774,973,481
5775,983,484
5776,997,498
5777,1021,535
5778,1052,604
5779,1087,720
5780,1112,847
5781,1128,964
5782,1123,1037
5783,1116,1078
5784,1107,1103
5785,1106,1115
5786,1095,1113
5787,1074,1105
5788,1053,1098
5789,1037,1092
5790,1024,1092
5791,1016,1100
5792,1011,1104
5793,1006,1102
5794,1004,1097
5795,1001,1089
5796,996,1088
5797,996,1092
5798,1001,1094
5799,1007,1095
5800,1006,1094
5801,1003,1094
5802,995,1097
5803,992,1099
5804,1000,1106
5805,1006,1106
5806,1006,1106
5807,1007,1100
5808,1004,1096
5809,1004,1096
5810,1008,1101
5811,1012,1106
5812,1011,1108
5813,1009,1104
5814,1006,1105
5815,1006,1104
5816,1012,1107
5817,1014,1111
5818,1016,1111
5819,1016,1107
5820,1016,1106
5821,1017,1110
5822,1018,1113
5823,1019,1112
5824,1023,1107
5825,1024,1098
5826,1025,1095
5827,1026,1096
5828,1027,1099
5829,1030,1101
5830,1030,1103
5831,1030,1102
5832,1028,1099
5833,1029,1100
5834,1030,1101
5835,1029,1100
5836,1034,1098
5837,1032,1095
5838,1031,1092
5839,1032,1093
5840,1036,1094
5841,1039,1092
5842,1036,1095
5843,1037,1093
5844,1040,1093
5845,1042,1092
5846,1045,1094
5847,1050,1093
5848,1049,1089
5849,1051,1086
5850,1047,1083
5851,1048,1080
5852,1052,1080
5853,1056,1079
5854,1059,1080
5855,1057,1073
5856,1057,1066
5857,1057,1067
5858,1059,1068
5859,1062,1069
5860,1061,1066
5861,1059,1056
5862,1059,1050
5863,1059,1047
5864,1062,1045
5865,1066,1041
5866,1070,1042
5867,1072,1040
5868,1064,1042
5869,1062,1041
5870,1061,1040
5871,1067,1032
5872,1072,1023
5873,1071,1018
5874,1068,1018
5875,1065,1023
5876,1067,1026
5877,1072,1029
5878,1067,1024
5879,1056,1018
5880,1052,1018
5881,1046,1013
5882,1047,1012
5883,1053,1012
5884,1056,1013
5885,1060,1009
5886,1060,1004
5887,1054,1011
5888,1052,1023
5889,1049,1029
5890,1043,1029
5891,1039,1026
5892,1042,1028
5893,1044,1031
5894,1045,1029
5895,1043,1029
5896,1041,1032
5897,1040,1035
5898,1039,1033
5899,1034,1031
5900,1028,1030
5901,1025,1030
5902,1020,1033
5903,1017,1033
5904,1017,1030
5905,1018,1030
5906,1023,1035
5907,1026,1033
5908,1027,1032
5909,1022,1034
5910,1018,1039
5911,1014,1046
5912,1014,1052
5913,1007,1048
5914,1006,1046
5915,1007,1044
5916,1008,1040
5917,1013,1044
5918,1019,1045
5919,1017,1048
5920,1008,1047
5921,1007,1047
5922,1006,1049
5923,1005,1051
5924,1006,1052
5925,1007,1055
5926,1012,1059
5927,1012,1055
5928,1009,1049
5929,1006,1051
5930,1002,1052
5931,1000,1054
5932,1001,1056
5933,1002,1053
5934,1003,1053
5935,1003,1058
5936,1003,1070
5937,999,1074
5938,998,1074
5939,992,1070
5940,995,1072
5941,998,1072
5942,1000,1072
5943,1001,1069
5944,1003,1065
5945,1002,1066
5946,997,1064
5947,992,1063
5948,996,1061
5949,992,1059
5950,991,1058
5951,985,1057
5952,984,1056
5953,981,1055
5954,986,1060
5955,990,1062
5956,987,1064
5957,983,1061
5958,984,1061
5959,987,1064
5960,988,1058
5961,990,1054
5962,994,1047
5963,998,1047
5964,1000,1050
5965,998,1045
5966,996,1047
5967,1000,1050
5968,998,1048
5969,991,1046
5970,986,1042
5971,982,1048
5972,984,1050
5973,990,1056
5974,995,1057
5975,998,1056
5976,998,1054
5977,999,1054
5978,1003,1056
5979,1010,1052
5980,1009,1051
5981,1009,1051
5982,1008,1052
5983,1011,1048
5984,1018,1054
5985,1027,1063
5986,1024,1071
5987,1023,1075
5988,1018,1077
5989,1018,1079
5990,1021,1079
5991,1024,1073
5992,1025,1062
5993,1021,1050
5994,1017,1038
5995,1016,1033
5996,1013,1030
5997,1008,1026
5998,1006,1022
5999,1001,1013
6000,995,1011
6001,988,1014
6002,985,1019
6003,984,1023
6004,985,1024
6005,985,1023
6006,982,1023
6007,982,1024
6008,987,1027
6009,986,1023
6010,983,1020
6011,980,1014
6012,983,1011
6013,983,1014
6014,984,1019
6015,982,1021
6016,975,1022
6017,976,1013
6018,972,1007
6019,970,1003
6020,972,1006
6021,971,1006
6022,971,1006
6023,972,1006
6024,969,1004
6025,971,1004
6026,973,1001
6027,975,998
6028,972,995
6029,970,999
6030,970,1001
6031,967,1005
6032,970,1006
6033,976,1005
6034,979,1004
6035,979,1002
6036,977,1003
6037,982,1007
6038,989,1008
6039,999,1009
6040,1012,1011
6041,1023,1014
6042,1030,1016
6043,1024,1027
6044,1019,1034
6045,1016,1038
6046,1016,1035
6047,1025,1033
6048,1034,1024
6049,1050,1028
6050,1065,1033
6051,1066,1040
6052,1051,1044
6053,1031,1046
6054,1007,1047
6055,991,1052
6056,988,1055
6057,992,1048
6058,1003,1040
6059,1008,1038
6060,1008,1037
6061,1005,1042
6062,1003,1046
6063,995,1054
6064,983,1066
6065,967,1072
6066,957,1066
6067,951,1053
6068,946,1047
6069,943,1043
6070,947,1021
6071,954,970
6072,964,911
6073,970,847
6074,979,777
6075,994,698
6076,1013,622
6077,1035,559
6078,1048,512
6079,1065,487
6080,1078,478
6081,1082,485
6082,1079,507
6083,1074,554
6084,1085,639
6085,1111,766
6086,1132,893
6087,1134,1015
6088,1114,1070
6089,1088,1093
6090,1057,1101
6091,1028,1109
6092,1006,1108
6093,994,1106
6094,989,1106
6095,982,1104
6096,977,1102
6097,977,1103
6098,982,1103
6099,986,1101
6100,991,1103
6101,995,1105
6102,997,1103
6103,1001,1103
6104,1003,1105
6105,1000,1108
6106,1000,1107
6107,1001,1104
6108,1001,1100
6109,1001,1095
6110,1006,1094
6111,1007,1095
6112,1004,1096
6113,1000,1095
6114,998,1094
6115,996,1094
6116,1003,1099
6117,1013,1105
6118,1020,1106
6119,1018,1100
6120,1011,1096
6121,1007,1100
6122,1009,1105
6123,1012,1108
6124,1017,1105
6125,1018,1102
6126,1016,1105
6127,1015,1107
6128,1016,1104
6129,1017,1101
6130,1022,1100
6131,1028,1102
6132,1028,1099
6133,1032,1100
6134,1033,1101
6135,1037,1103
6136,1036,1100
6137,1035,1100
6138,1030,1095
6139,1028,1100
6140,1031,1102
6141,1033,1102
6142,1034,1103
6143,1032,1103
6144,1030,1099
6145,1034,1097
6146,1040,1100
6147,1044,1099
6148,1050,1097
6149,1049,1094
6150,1051,1087
6151,1049,1088
6152,1048,1086
6153,1051,1088
6154,1058,1088
6155,1060,1085
6156,1062,1079
6157,1060,1076
6158,1061,1078
6159,1063,1076
6160,1059,1075
6161,1061,1073
6162,1062,1067
6163,1064,1064
6164,1069,1062
6165,1075,1060
6166,1080,1057
6167,1075,1048
6168,1071,1044
6169,1065,1047
6170,1066,1046
6171,1064,1047
6172,1067,1044
6173,1065,1044
6174,1066,1044
6175,1066,1039
6176,1071,1035
6177,1074,1033
6178,1077,1031
6179,1075,1028
6180,1072,1024
6181,1072,1020
6182,1071,1019
6183,1071,1023
6184,1064,1023
6185,1061,1023
6186,1054,1027
6187,1051,1032
6188,1052,1031
6189,1052,1027
6190,1050,1025
6191,1044,1021
6192,1041,1021
6193,1036,1022
6194,1032,1025
6195,1030,1032
6196,1030,1036
6197,1029,1035
6198,1023,1034
6199,1021,1042
6200,1021,1045
6201,1025,1044
6202,1023,1042
6203,1022,1034
6204,1017,1033
6205,1015,1045
6206,1013,1052
6207,1014,1056
6208,1011,1055
6209,1011,1048
6210,1012,1048
6211,1014,1049
6212,1017,1052
6213,1015,1051
6214,1012,1053
6215,1007,1051
6216,1002,1050
6217,1004,1054
6218,1008,1058
6219,1011,1059
6220,1013,1063
6221,1013,1063
6222,1008,1066
6223,1009,1068
6224,1008,1070
6225,1011,1073
6226,1012,1076
6227,1016,1074
6228,1014,1071
6229,1012,1072
6230,1011,1077
6231,1010,1077
6232,1006,1078
6233,1004,1079
6234,1001,1078
6235,1001,1077
6236,1001,1080
6237,1007,1082
6238,1007,1085
6239,1007,1083
6240,1004,1082
6241,1001,1084
6242,1002,1086
6243,1005,1087
6244,1008,1083
6245,1011,1078
6246,1010,1075
6247,1006,1071
6248,1004,1075
6249,1004,1081
6250,1006,1084
6251,1008,1080
6252,1005,1076
6253,1005,1075
6254,1008,1076
6255,1009,1074
6256,1010,1074
6257,1007,1071
6258,1003,1071
6259,1008,1071
6260,1015,1073
6261,1020,1072
6262,1023,1070
6263,1023,1067
6264,1017,1066
6265,1010,1070
6266,1009,1078
6267,1013,1084
6268,1021,1083
6269,1023,1075
6270,1020,1064
6271,1017,1055
6272,1015,1035
6273,1008,1013
6274,1007,996
6275,1007,985
6276,1015,977
6277,1027,969
6278,1042,955
6279,1066,944
6280,1091,935
6281,1118,915
6282,1139,883
6283,1152,833
6284,1174,794
6285,1209,782
6286,1249,815
6287,1286,883
6288,1311,961
6289,1334,1017
6290,1359,1061
6291,1380,1102
6292,1395,1135
6293,1407,1162
6294,1424,1192
6295,1450,1219
6296,1476,1240
6297,1492,1255
6298,1502,1262
6299,1507,1247
6300,1504,1225
6301,1493,1216
6302,1468,1211
6303,1433,1204
6304,1379,1180
6305,1316,1140
6306,1248,1105
6307,1183,1081
6308,1122,1074
6309,1070,1063
6310,1027,1049
6311,1002,1043
6312,988,1036
6313,967,1030
6314,947,1022
6315,935,1015
6316,928,1015
6317,927,1014
6318,921,1009
6319,918,1010
6320,920,1020
6321,926,1023
6322,933,1027
6323,928,1029
6324,929,1024
6325,928,1022
6326,929,1028
6327,929,1028
6328,929,1031
6329,930,1036
6330,927,1040
6331,928,1042
6332,928,1041
6333,927,1042
6334,927,1043
6335,922,1037
6336,925,1029
6337,928,1029
6338,933,1032
6339,930,1035
6340,926,1033
6341,921,1025
6342,917,1027
6343,923,1028
6344,923,1023
6345,923,1023
6346,919,1022
6347,918,1016
6348,912,1010
6349,906,1003
6350,903,1003
6351,904,1004
6352,903,1003
6353,903,997
6354,903,991
6355,897,988
6356,892,985
6357,888,977
6358,888,975
6359,890,979
6360,888,979
6361,892,974
6362,896,971
6363,898,970
6364,899,966
6365,899,961
6366,894,957
6367,891,960
6368,891,960
6369,895,961
6370,898,956
6371,898,952
6372,892,948
6373,891,946
6374,892,946
6375,897,946
6376,901,949
6377,906,953
6378,909,956
6379,911,960
6380,914,965
6381,920,963
6382,922,955
6383,920,954
6384,917,952
6385,917,959
6386,922,965
6387,924,968
6388,932,972
6389,936,975
6390,938,979
6391,942,979
6392,948,982
6393,950,987
6394,954,995
6395,954,1000
6396,955,1003
6397,955,1010
6398,953,1018
6399,956,1029
6400,956,1031
6401,957,1030
6402,963,1029
6403,968,1035
6404,977,1041
6405,981,1048
6406,984,1048
6407,980,1045
6408,981,1047
6409,976,1049
6410,978,1053
6411,979,1056
6412,983,1061
6413,991,1060
6414,996,1063
6415,995,1063
6416,996,1066
6417,994,1067
6418,995,1069
6419,995,1066
6420,994,1067
6421,992,1066
6422,991,1066
6423,991,1069
6424,988,1069
6425,987,1065
6426,986,1065
6427,979,1069
6428,985,1070
6429,990,1065
6430,994,1061
6431,996,1061
6432,996,1062
6433,992,1063
6434,989,1063
6435,989,1065
6436,988,1065
6437,984,1061
6438,983,1061
6439,987,1062
6440,993,1062
6441,999,1062
6442,998,1063
6443,994,1061
6444,989,1059
6445,987,1060
6446,984,1063
6447,988,1067
6448,995,1066
6449,995,1065
6450,994,1060
6451,992,1060
6452,990,1061
6453,992,1059
6454,994,1056
6455,994,1055
6456,991,1058
6457,991,1062
6458,992,1065
6459,996,1070
6460,994,1069
6461,987,1065
6462,987,1062
6463,990,1059
6464,991,1059
6465,999,1063
6466,1001,1058
6467,1005,1053
6468,1001,1055
6469,998,1053
6470,997,1052
6471,995,1055
6472,992,1059
6473,999,1059
6474,999,1059
6475,1000,1058
6476,1000,1062
6477,1005,1065
6478,1006,1059
6479,1005,1054
6480,1003,1054
6481,999,1057
6482,1003,1065
6483,1006,1063
6484,1007,1057
6485,1005,1054
6486,1004,1053
6487,1001,1054
6488,999,1055
6489,998,1057
6490,998,1058
6491,997,1057
6492,1005,1051
6493,1005,1049
6494,1007,1054
6495,1007,1059
6496,1007,1060
6497,1003,1056
6498,998,1051
6499,998,1046
6500,999,1048
6501,1002,1058
6502,1005,1061
6503,1005,1055
6504,1002,1045
6505,1004,1038
6506,1000,1040
6507,1000,1050
6508,1002,1055
6509,1006,1055
6510,1007,1051
6511,1007,1053
6512,1005,1052
6513,1005,1051
6514,1005,1050
6515,1004,1052
6516,1003,1053
6517,1002,1054
6518,1005,1060
6519,1011,1065
6520,1014,1064
6521,1014,1057
6522,1010,1052
6523,1005,1050
6524,1001,1052
6525,999,1052
6526,997,1055
6527,995,1056
6528,995,1054
6529,999,1058
6530,1004,1061
6531,1006,1062
6532,1004,1058
6533,1001,1052
6534,999,1050
6535,1000,1055
6536,1006,1064
6537,1010,1068
6538,1013,1066
6539,1016,1062
6540,1016,1059
6541,1016,1059
6542,1021,1065
6543,1021,1070
6544,1023,1073
6545,1027,1077
6546,1031,1082
6547,1033,1086
6548,1030,1087
6549,1029,1089
6550,1028,1090
6551,1030,1083
6552,1027,1072
6553,1027,1057
6554,1031,1043
6555,1029,1030
6556,1022,1024
6557,1011,1019
6558,1002,1019
6559,992,1021
6560,990,1027
6561,994,1036
6562,994,1037
6563,995,1035
6564,991,1031
6565,983,1027
6566,987,1023
6567,990,1023
6568,991,1022
6569,988,1021
6570,983,1025
6571,980,1024
6572,983,1026
6573,983,1031
6574,985,1030
6575,980,1022
6576,977,1017
6577,974,1009
6578,975,1010
6579,977,1014
6580,977,1016
6581,973,1020
6582,970,1021
6583,970,1023
6584,970,1026
6585,969,1023
6586,975,1015
6587,979,1011
6588,978,1012
6589,972,1017
6590,969,1020
6591,971,1027
6592,972,1031
6593,974,1034
6594,977,1032
6595,983,1030
6596,991,1033
6597,992,1036
6598,987,1041
6599,983,1042
6600,977,1044
6601,972,1048
6602,971,1054
6603,976,1055
6604,987,1050
6605,992,1048
6606,993,1051
6607,990,1059
6608,993,1064
6609,995,1061
6610,999,1054
6611,1002,1049
6612,1002,1048
6613,999,1052
6614,999,1058
6615,999,1062
6616,994,1061
6617,988,1052
6618,978,1048
6619,968,1045
6620,958,1046
6621,957,1020
6622,964,961
6623,967,883
6624,970,806
6625,975,717
6626,984,619
6627,992,536
6628,994,484
6629,1000,464
6630,1007,472
6631,1024,499
6632,1061,580
6633,1107,707
6634,1141,834
6635,1150,961
6636,1133,1076
6637,1113,1087
6638,1087,1087
6639,1062,1082
6640,1039,1077
6641,1023,1075
6642,1010,1075
6643,999,1078
6644,995,1088
6645,997,1093
6646,1003,1095
6647,1008,1095
6648,1010,1096
6649,1008,1097
6650,1005,1095
6651,1007,1094
6652,1009,1091
6653,1011,1092
6654,1012,1094
6655,1008,1100
6656,1012,1105
6657,1013,1110
6658,1010,1107
6659,1007,1105
6660,1008,1107
6661,1013,1112
6662,1020,1112
6663,1027,1115
6664,1029,1114
6665,1029,1109
6666,1024,1108
6667,1022,1103
6668,1022,1105
6669,1023,1104
6670,1026,1100
6671,1026,1100
6672,1027,1100
6673,1025,1098
6674,1028,1102
6675,1031,1106
6676,1033,1105
6677,1033,1098
6678,1033,1095
6679,1037,1093
6680,1041,1096
6681,1042,1102
6682,1042,1106
6683,1042,1105
6684,1044,1102
6685,1041,1098
6686,1046,1102
6687,1050,1108
6688,1055,1108
6689,1059,1107
6690,1055,1103
6691,1056,1096
6692,1057,1095
6693,1057,1100
6694,1063,1098
6695,1059,1090
6696,1060,1085
6697,1056,1086
6698,1057,1086
6699,1059,1081
6700,1063,1077
6701,1063,1076
6702,1063,1074
6703,1062,1071
6704,1064,1071
6705,1065,1067
6706,1069,1061
6707,1073,1057
6708,1073,1054
6709,1071,1055
6710,1072,1057
6711,1072,1052
6712,1072,1046
6713,1075,1043
6714,1076,1041
6715,1073,1043
6716,1071,1043
6717,1073,1043
6718,1072,1042
6719,1068,1039
6720,1067,1035
6721,1069,1035
6722,1074,1039
6723,1074,1043
6724,1072,1040
6725,1069,1037
6726,1067,1037
6727,1061,1034
6728,1058,1037
6729,1058,1039
6730,1055,1038
6731,1057,1035
6732,1059,1031
6733,1055,1023
6734,1049,1024
6735,1047,1032
6736,1042,1031
6737,1039,1027
6738,1032,1024
6739,1026,1025
6740,1027,1033
6741,1029,1041
6742,1029,1045
6743,1024,1044
6744,1022,1039
6745,1019,1035
6746,1020,1041
6747,1017,1043
6748,1017,1037
6749,1013,1036
6750,1010,1041
6751,1006,1047
6752,1006,1045
6753,1009,1049
6754,1013,1051
6755,1015,1052
6756,1011,1052
6757,1007,1046
6758,1005,1046
6759,1009,1049
6760,1008,1050
6761,1006,1049
6762,1005,1051
6763,1001,1050
6764,1000,1053
6765,1001,1055
6766,1003,1057
6767,1002,1059
6768,997,1060
6769,992,1066
6770,989,1070
6771,990,1071
6772,991,1072
6773,989,1072
6774,988,1071
6775,981,1073
6776,985,1070
6777,987,1074
6778,988,1078
6779,987,1077
6780,979,1078
6781,970,1077
6782,974,1076
6783,972,1079
6784,973,1079
6785,973,1079
6786,971,1081
6787,968,1083
6788,970,1085
6789,968,1086
6790,963,1073
6791,956,1056
6792,954,1036
6793,947,1022
6794,940,1016
6795,935,1007
6796,932,993
6797,928,981
6798,929,973
6799,937,959
6800,956,940
6801,979,936
6802,1006,936
6803,1028,928
6804,1044,916
6805,1058,889
6806,1078,860
6807,1107,844
6808,1144,850
6809,1185,886
6810,1217,946
6811,1252,1008
6812,1286,1062
6813,1317,1105
6814,1341,1150
6815,1365,1186
6816,1378,1209
6817,1392,1233
6818,1412,1263
6819,1433,1287
6820,1455,1295
6821,1467,1297
6822,1478,1296
6823,1482,1288
6824,1480,1276
6825,1471,1260
6826,1451,1237
6827,1411,1215
6828,1362,1195
6829,1304,1162
6830,1239,1136
6831,1171,1118
6832,1109,1103
6833,1056,1090
6834,1018,1078
6835,988,1070
6836,965,1061
6837,944,1050
6838,920,1043
6839,905,1038
6840,896,1036
6841,887,1028
6842,884,1026
6843,882,1021
6844,877,1022
6845,876,1019
6846,875,1015
6847,874,1013
6848,879,1009
6849,879,1010
6850,878,1008
6851,872,1002
6852,869,998
6853,861,993
6854,858,995
6855,859,997
6856,859,993
6857,859,987
6858,854,983
6859,849,982
6860,846,987
6861,847,990
6862,844,989
6863,836,986
6864,836,985
6865,840,982
6866,845,984
6867,849,984
6868,852,985
6869,852,980
6870,849,979
6871,845,980
6872,844,986
6873,841,988
6874,844,983
6875,846,981
6876,847,975
6877,844,976
6878,844,976
6879,840,983
6880,839,981
6881,833,975
6882,830,970
6883,827,965
6884,829,963
6885,833,962
6886,837,961
6887,838,953
6888,835,946
6889,830,944
6890,829,946
6891,831,950
6892,834,952
6893,833,945
6894,831,936
6895,830,934
6896,833,934
6897,833,936
6898,836,935
6899,831,933
6900,827,931
6901,825,932
6902,830,934
6903,833,937
6904,837,934
6905,836,934
6906,839,931
6907,835,930
6908,835,935
6909,842,941
6910,844,941
6911,846,943
6912,847,939
6913,845,940
6914,851,946
6915,857,950
6916,865,950
6917,862,956
6918,864,961
6919,860,964
6920,863,970
6921,866,977
6922,876,976
6923,883,980
6924,887,982
6925,884,987
6926,884,998
6927,884,1006
6928,890,1010
6929,898,1015
6930,902,1019
6931,904,1024
6932,912,1034
6933,916,1040
6934,917,1041
6935,916,1037
6936,914,1039
6937,911,1042
6938,914,1052
6939,922,1053
6940,927,1054
6941,928,1057
6942,927,1062
6943,930,1065
6944,931,1071
6945,931,1074
6946,935,1076
6947,937,1073
6948,940,1073
6949,940,1070
6950,939,1076
6951,942,1078
6952,937,1077
6953,940,1075
6954,939,1073
6955,936,1070
6956,939,1075
6957,943,1082
6958,951,1086
6959,951,1081
6960,947,1075
6961,947,1069
6962,945,1073
6963,945,1076
6964,947,1073
6965,949,1071
6966,951,1075
6967,950,1075
6968,952,1078
6969,951,1080
6970,951,1079
6971,949,1078
6972,946,1078
6973,947,1075
6974,950,1075
6975,954,1068
6976,958,1067
6977,958,1065
6978,952,1067
6979,950,1069
6980,952,1074
6981,953,1078
6982,958,1075
6983,961,1070
6984,958,1067
6985,956,1063
6986,957,1067
6987,957,1072
6988,960,1075
6989,960,1072
6990,966,1069
6991,968,1067
6992,966,1071
6993,961,1071
6994,963,1064
6995,958,1061
6996,956,1058
6997,955,1061
6998,959,1068
6999,966,1072
7000,972,1072
7001,967,1071
7002,961,1068
7003,957,1064
7004,956,1064
7005,957,1065
7006,965,1063
7007,968,1062
7008,962,1061
7009,961,1058
7010,958,1059
7011,962,1058
7012,963,1059
7013,963,1061
7014,960,1062
7015,963,1061
7016,965,1058
7017,967,1055
7018,968,1054
7019,966,1056
7020,963,1058
7021,957,1060
7022,958,1059
7023,962,1058
7024,962,1057
7025,970,1051
7026,968,1050
7027,965,1044
7028,965,1048
7029,962,1052
7030,965,1058
7031,966,1056
7032,967,1053
7033,965,1054
7034,968,1056
7035,970,1055
7036,973,1053
7037,972,1049
7038,968,1050
7039,960,1053
7040,957,1059
7041,960,1055
7042,962,1055
7043,966,1054
7044,968,1051
7045,968,1050
7046,969,1055
7047,969,1053
7048,968,1053
7049,965,1054
7050,960,1052
7051,960,1050
7052,960,1049
7053,967,1049
7054,971,1051
7055,972,1049
7056,969,1046
7057,965,1044
7058,965,1044
7059,968,1045
7060,970,1050
7061,969,1049
7062,967,1045
7063,967,1048
7064,967,1050
7065,969,1053
7066,971,1052
7067,972,1049
7068,968,1049
7069,968,1052
7070,968,1055
7071,969,1051
7072,968,1050
7073,969,1049
7074,969,1044
7075,967,1045
7076,971,1048
7077,975,1048
7078,979,1049
7079,982,1044
7080,978,1043
7081,972,1045
7082,966,1051
7083,965,1055
7084,972,1053
7085,973,1054
7086,974,1050
7087,973,1047
7088,976,1048
7089,978,1051
7090,982,1052
7091,983,1054
7092,985,1055
7093,987,1060
7094,990,1063
7095,999,1065
7096,1005,1067
7097,1003,1063
7098,1004,1066
7099,998,1067
7100,1001,1073
7101,998,1075
7102,1001,1073
7103,999,1069
7104,999,1061
7105,994,1053
7106,992,1047
7107,994,1040
7108,993,1031
7109,990,1025
7110,982,1020
7111,974,1021
7112,972,1026
7113,972,1035
7114,973,1039
7115,967,1035
7116,968,1032
7117,964,1029
7118,966,1025
7119,962,1026
7120,961,1027
7121,955,1023
7122,953,1026
7123,954,1024
7124,956,1026
7125,961,1029
7126,965,1029
7127,968,1027
7128,967,1024
7129,963,1022
7130,960,1020
7131,957,1018
7132,957,1014
7133,957,1012
7134,952,1014
7135,950,1009
7136,949,1006
7137,952,1008
7138,952,1010
7139,952,1011
7140,949,1013
7141,949,1014
7142,952,1017
7143,953,1018
7144,957,1020
7145,958,1017
7146,957,1016
7147,959,1020
7148,962,1027
7149,967,1034
7150,972,1037
7151,973,1040
7152,971,1039
7153,969,1038
7154,972,1041
7155,972,1047
7156,975,1053
7157,975,1051
7158,974,1051
7159,971,1051
7160,973,1055
7161,975,1054
7162,979,1053
7163,982,1053
7164,982,1050
7165,981,1045
7166,982,1045
7167,982,1045
7168,983,1050
7169,981,1050
7170,982,1048
7171,981,1048
7172,983,1054
7173,988,1055
7174,990,1051
7175,986,1042
7176,976,1035
7177,963,1029
7178,955,1026
7179,954,1030
7180,955,1027
7181,958,1001
7182,963,960
7183,969,918
7184,979,872
7185,986,812
7186,987,739
7187,990,664
7188,995,600
7189,996,567
7190,1003,562
7191,1016,570
7192,1036,598
7193,1064,653
7194,1098,748
7195,1126,865
7196,1138,972
7197,1134,1036
7198,1125,1065
7199,1113,1076
7200,1093,1079
7201,1064,1074
7202,1045,1076
7203,1030,1079
7204,1020,1085
7205,1010,1084
7206,996,1084
7207,995,1087
7208,997,1091
7209,1003,1095
7210,1006,1093
7211,1010,1091
7212,1007,1090
7213,1004,1090
7214,1007,1089
7215,1006,1090
7216,1011,1090
7217,1010,1091
7218,1012,1093
7219,1008,1091
7220,1011,1095
7221,1009,1097
7222,1010,1093
7223,1007,1090
7224,1005,1087
7225,1005,1084
7226,1009,1086
7227,1016,1083
7228,1020,1083
7229,1023,1080
7230,1021,1082
7231,1019,1083
7232,1019,1085
7233,1017,1087
7234,1015,1089
7235,1024,1091
7236,1027,1087
7237,1029,1086
7238,1032,1086
7239,1035,1087
7240,1036,1086
7241,1034,1083
7242,1031,1081
7243,1025,1081
7244,1027,1084
7245,1029,1088
7246,1032,1087
7247,1032,1087
7248,1032,1084
7249,1027,1079
7250,1031,1081
7251,1038,1083
7252,1041,1085
7253,1039,1085
7254,1035,1085
7255,1034,1081
7256,1036,1078
7257,1043,1078
7258,1046,1075
7259,1052,1072
7260,1052,1073
7261,1049,1074
7262,1049,1077
7263,1053,1077
7264,1053,1074
7265,1047,1068
7266,1045,1061
7267,1041,1061
7268,1044,1063
7269,1049,1065
7270,1054,1065
7271,1057,1065
7272,1062,1062
7273,1059,1058
7274,1055,1055
7275,1056,1056
7276,1057,1055
7277,1060,1053
7278,1059,1051
7279,1058,1044
7280,1063,1043
7281,1064,1042
7282,1066,1043
7283,1061,1039
7284,1055,1035
7285,1051,1033
7286,1058,1032
7287,1065,1032
7288,1068,1031
7289,1072,1031
7290,1069,1032
7291,1069,1032
7292,1070,1032
7293,1068,1034
7294,1068,1034
7295,1064,1030
7296,1059,1027
7297,1059,1025
7298,1063,1026
7299,1068,1030
7300,1071,1035
7301,1067,1034
7302,1063,1032
7303,1057,1027
7304,1057,1025
7305,1055,1026
7306,1051,1026
7307,1051,1024
7308,1048,1026
7309,1046,1028
7310,1048,1034
7311,1052,1035
7312,1055,1036
7313,1051,1033
7314,1046,1031
7315,1035,1026
7316,1034,1029
7317,1036,1034
7318,1039,1034
7319,1037,1034
7320,1033,1033
7321,1027,1030
7322,1026,1030
7323,1020,1035
7324,1015,1037
7325,1012,1036
7326,1008,1036
7327,1003,1036
7328,1005,1036
7329,1008,1038
7330,1016,1042
7331,1016,1044
7332,1014,1046
7333,1006,1046
7334,1008,1045
7335,1009,1048
7336,1007,1045
7337,1004,1044
7338,999,1044
7339,998,1043
7340,1004,1042
7341,1003,1046
7342,1003,1049
7343,1001,1052
7344,1001,1052
7345,996,1053
7346,995,1061
7347,997,1064
7348,1002,1067
7349,1006,1065
7350,1007,1064
7351,1007,1063
7352,1004,1069
7353,1005,1073
7354,1001,1072
7355,995,1069
7356,987,1063
7357,980,1061
7358,979,1064
7359,980,1069
7360,986,1070
7361,988,1071
7362,987,1073
7363,982,1073
7364,982,1076
7365,986,1080
7366,985,1079
7367,985,1076
7368,981,1074
7369,976,1075
7370,976,1082
7371,979,1082
7372,982,1078
7373,980,1077
7374,979,1079
7375,974,1077
7376,975,1083
7377,977,1081
7378,977,1077
7379,976,1072
7380,969,1065
7381,964,1058
7382,958,1045
7383,955,1031
7384,954,1020
7385,950,1005
7386,950,993
7387,949,985
7388,956,978
7389,970,974
7390,987,965
7391,1004,956
7392,1022,949
7393,1035,945
7394,1055,939
7395,1073,924
7396,1095,904
7397,1116,877
7398,1140,862
7399,1175,870
7400,1214,904
7401,1250,955
7402,1284,1007
7403,1306,1050
7404,1327,1092
7405,1346,1135
7406,1368,1176
7407,1389,1208
7408,1408,1235
7409,1428,1255
7410,1444,1270
7411,1456,1273
7412,1470,1267
7413,1477,1261
7414,1486,1263
7415,1487,1258
7416,1485,1244
7417,1480,1232
7418,1464,1224
7419,1437,1219
7420,1400,1209
7421,1348,1183
7422,1289,1151
7423,1230,1127
7424,1173,1112
7425,1113,1100
7426,1059,1086
7427,1016,1074
7428,985,1064
7429,961,1055
7430,938,1046
7431,921,1041
7432,913,1038
7433,903,1033
7434,894,1028
7435,886,1022
7436,882,1019
7437,883,1018
7438,883,1017
7439,884,1017
7440,882,1016
7441,878,1013
7442,881,1013
7443,884,1014
7444,884,1011
7445,879,1005
7446,879,1002
7447,872,999
7448,874,1003
7449,873,1006
7450,873,1004
7451,871,1003
7452,865,998
7453,861,1001
7454,862,1001
7455,863,1002
7456,867,1002
7457,870,999
7458,872,997
7459,874,1002
7460,873,1012
7461,871,1014
7462,870,1013
7463,867,1007
7464,863,1003
7465,860,1002
7466,861,1007
7467,861,1008
7468,864,1007
7469,867,1005
7470,864,998
7471,860,995
7472,861,994
7473,859,993
7474,854,992
7475,854,988
7476,851,987
7477,849,983
7478,848,979
7479,851,980
7480,857,980
7481,855,979
7482,855,973
7483,851,971
7484,848,969
7485,851,970
7486,852,967
7487,849,966
7488,847,961
7489,846,957
7490,845,958
7491,848,960
7492,847,961
7493,851,955
7494,847,952
7495,845,949
7496,846,947
7497,843,944
7498,847,944
7499,847,942
7500,847,944
7501,848,946
7502,849,949
7503,850,950
7504,853,948
7505,855,944
7506,852,942
7507,855,942
7508,856,950
7509,861,954
7510,862,954
7511,865,952
7512,864,952
7513,861,952
7514,865,958
7515,876,964
7516,879,968
7517,880,965
7518,875,963
7519,877,966
7520,882,971
7521,886,975
7522,891,978
7523,894,979
7524,894,979
7525,892,984
7526,898,989
7527,901,996
7528,908,1001
7529,910,1004
7530,909,1010
7531,910,1011
7532,913,1017
7533,920,1020
7534,926,1023
7535,929,1026
7536,926,1030
7537,927,1032
7538,928,1036
7539,929,1037
7540,932,1039
7541,937,1042
7542,938,1042
7543,939,1047
7544,943,1049
7545,947,1055
7546,951,1056
7547,953,1057
7548,952,1057
7549,950,1054
7550,952,1055
7551,953,1054
7552,957,1060
7553,957,1060
7554,958,1060
7555,954,1059
7556,951,1060
7557,952,1064
7558,957,1067
7559,958,1066
7560,958,1063
7561,956,1064
7562,956,1066
7563,961,1068
7564,965,1064
7565,967,1065
7566,967,1064
7567,966,1066
7568,965,1068
7569,965,1071
7570,967,1071
7571,965,1071
7572,963,1068
7573,961,1063
7574,963,1065
7575,965,1069
7576,972,1069
7577,972,1065
7578,969,1060
7579,964,1061
7580,962,1064
7581,966,1066
7582,974,1068
7583,976,1065
7584,976,1065
7585,975,1062
7586,975,1067
7587,974,1067
7588,975,1068
7589,975,1067
7590,974,1062
7591,973,1063
7592,972,1061
7593,972,1058
7594,971,1057
7595,969,1056
7596,967,1056
7597,965,1058
7598,968,1061
7599,972,1060
7600,973,1062
7601,972,1058
7602,969,1059
7603,968,1056
7604,967,1058
7605,970,1061
7606,971,1059
7607,970,1060
7608,973,1057
7609,973,1056
7610,977,1057
7611,979,1058
7612,982,1060
7613,979,1058
7614,973,1057
7615,970,1057
7616,972,1058
7617,976,1055
7618,981,1053
7619,980,1052
7620,974,1052
7621,972,1053
7622,972,1055
7623,976,1055
7624,980,1057
7625,978,1055
7626,979,1053
7627,978,1051
7628,978,1055
7629,981,1058
7630,985,1055
7631,984,1053
7632,980,1050
7633,978,1052
7634,976,1052
7635,975,1054
7636,976,1053
7637,978,1052
7638,978,1048
7639,976,1048
7640,974,1050
7641,977,1053
7642,975,1056
7643,977,1054
7644,976,1052
7645,979,1051
7646,984,1055
7647,986,1060
7648,988,1061
7649,984,1059
7650,978,1055
7651,979,1050
7652,979,1049
7653,980,1048
7654,981,1049
7655,981,1052
7656,981,1052
7657,984,1052
7658,986,1055
7659,985,1055
7660,983,1056
7661,980,1055
7662,977,1052
7663,975,1049
7664,979,1048
7665,982,1050
7666,982,1049
7667,981,1048
7668,977,1048
7669,977,1047
7670,973,1050
7671,976,1049
7672,981,1053
7673,981,1054
7674,979,1051
7675,976,1049
7676,974,1047
7677,975,1049
7678,982,1055
7679,983,1058
7680,981,1054
7681,974,1051
7682,974,1049
7683,976,1049
7684,979,1052
7685,985,1049
7686,980,1046
7687,975,1044
7688,973,1048
7689,973,1053
7690,982,1057
7691,983,1052
7692,986,1052
7693,982,1051
7694,983,1048
7695,985,1049
7696,988,1047
7697,988,1044
7698,983,1043
7699,980,1044
7700,977,1049
7701,978,1051
7702,979,1050
7703,978,1047
7704,975,1049
7705,979,1051
7706,979,1049
7707,979,1049
7708,980,1049
7709,979,1052
7710,980,1052
7711,978,1052
7712,979,1055
7713,985,1059
7714,988,1059
7715,991,1060
7716,993,1059
7717,992,1058
7718,993,1058
7719,993,1060
7720,996,1064
7721,999,1064
7722,997,1061
7723,996,1060
7724,999,1064
7725,1001,1069
7726,1007,1066
7727,1002,1065
7728,998,1060
7729,998,1053
7730,993,1043
7731,989,1035
7732,987,1031
7733,984,1028
7734,981,1023
7735,974,1022
7736,970,1025
7737,970,1026
7738,968,1027
7739,966,1026
7740,966,1025
7741,967,1021
7742,965,1022
7743,966,1024
7744,965,1026
7745,961,1027
7746,958,1024
7747,951,1023
7748,947,1023
7749,952,1024
7750,956,1025
7751,957,1025
7752,955,1023
7753,954,1019
7754,954,1018
7755,955,1018
7756,958,1017
7757,955,1014
7758,948,1010
7759,944,1007
7760,941,1007
7761,941,1009
7762,947,1011
7763,947,1009
7764,946,1005
7765,944,1004
7766,945,1005
7767,946,1007
7768,948,1009
7769,945,1013
7770,940,1013
7771,939,1013
7772,939,1014
7773,943,1013
7774,948,1014
7775,951,1016
7776,951,1019
7777,953,1018
7778,952,1022
7779,949,1027
7780,953,1031
7781,952,1033
7782,952,1033
7783,953,1034
7784,955,1037
7785,959,1043
7786,961,1046
7787,963,1047
7788,962,1047
7789,958,1047
7790,960,1048
7791,961,1049
7792,959,1048
7793,957,1046
7794,957,1039
7795,959,1036
7796,957,1040
7797,958,1041
7798,960,1044
7799,957,1043
7800,958,1043
7801,957,1042
7802,957,1044
7803,957,1042
7804,958,1035
7805,950,1028
7806,945,1024
7807,938,1017
7808,940,992
7809,942,951
7810,950,907
7811,955,860
7812,959,806
7813,966,737
7814,970,666
7815,977,605
7816,981,567
7817,987,541
7818,984,534
7819,987,540
7820,998,560
7821,1020,602
7822,1050,679
7823,1076,794
7824,1095,918
7825,1098,1007
7826,1088,1051
7827,1074,1069
7828,1057,1077
7829,1032,1079
7830,1011,1079
7831,996,1078
7832,987,1079
7833,979,1082
7834,981,1084
7835,974,1087
7836,970,1088
7837,966,1088
7838,962,1091
7839,966,1094
7840,971,1089
7841,974,1091
7842,974,1087
7843,973,1088
7844,973,1092
7845,973,1091
7846,978,1095
7847,975,1094
7848,978,1094
7849,975,1093
7850,974,1095
7851,980,1096
7852,982,1092
7853,982,1091
7854,977,1088
7855,976,1086
7856,972,1090
7857,974,1095
7858,977,1095
7859,978,1093
7860,978,1091
7861,979,1089
7862,980,1091
7863,984,1093
7864,987,1091
7865,985,1091
7866,983,1090
7867,982,1088
7868,983,1086
7869,990,1089
7870,994,1089
7871,991,1089
7872,990,1087
7873,988,1087
7874,983,1090
7875,985,1089
7876,990,1087
7877,995,1084
7878,999,1080
7879,999,1079
7880,997,1082
7881,998,1081
7882,1001,1084
7883,999,1082
7884,1000,1078
7885,1002,1079
7886,1002,1081
7887,1005,1079
7888,1009,1076
7889,1010,1075
7890,1010,1071
7891,1007,1072
7892,1010,1076
7893,1012,1077
7894,1013,1069
7895,1014,1063
7896,1014,1058
7897,1015,1056
7898,1013,1055
7899,1015,1053
7900,1017,1056
7901,1019,1057
7902,1022,1053
7903,1022,1050
7904,1020,1047
7905,1020,1045
7906,1022,1041
7907,1019,1040
7908,1016,1037
7909,1014,1035
7910,1013,1037
7911,1016,1040
7912,1020,1040
7913,1021,1040
7914,1019,1034
7915,1019,1034
7916,1017,1035
7917,1018,1035
7918,1021,1034
7919,1020,1034
7920,1018,1032
7921,1017,1037
7922,1013,1041
7923,1015,1042
7924,1020,1040
7925,1018,1041
7926,1017,1042
7927,1012,1038
7928,1009,1040
7929,1010,1039
7930,1010,1040
7931,1005,1040
7932,1001,1040
7933,996,1037
7934,992,1042
7935,993,1047
7936,991,1048
7937,987,1047
7938,980,1048
7939,979,1046
7940,977,1048
7941,979,1049
7942,981,1047
7943,980,1048
7944,978,1047
7945,974,1050
7946,971,1049
7947,968,1050
7948,971,1050
7949,971,1054
7950,967,1055
7951,968,1055
7952,969,1055
7953,969,1058
7954,969,1056
7955,965,1058
7956,963,1060
7957,960,1063
7958,960,1063
7959,961,1064
7960,966,1066
7961,966,1064
7962,962,1063
7963,959,1066
7964,958,1070
7965,959,1075
7966,963,1075
7967,960,1076
7968,961,1074
7969,958,1080
7970,959,1083
7971,958,1084
7972,960,1084
7973,956,1082
7974,958,1078
7975,957,1078
7976,955,1080
7977,954,1084
7978,960,1086
7979,957,1088
7980,953,1086
7981,954,1084
7982,947,1084
7983,947,1085
7984,949,1089
7985,950,1091
7986,950,1090
7987,952,1086
7988,951,1088
7989,950,1091
7990,954,1099
7991,948,1099
7992,947,1094
7993,943,1084
7994,939,1075
7995,938,1066
7996,938,1055
7997,934,1038
7998,931,1023
7999,926,1012
8000,924,1001
8001,926,993
8002,933,984
8003,938,970
8004,952,957
8005,976,951
8006,1000,947
8007,1024,941
8008,1049,928
8009,1068,904
8010,1080,875
8011,1106,854
8012,1135,857
8013,1176,893
8014,1218,951
8015,1255,1018
8016,1285,1079
8017,1312,1132
8018,1337,1184
8019,1360,1229
8020,1383,1264
8021,1404,1288
8022,1424,1299
8023,1441,1300
8024,1452,1297
8025,1461,1296
8026,1467,1285
8027,1469,1268
8028,1458,1250
8029,1438,1242
8030,1405,1235
8031,1370,1222
8032,1325,1196
8033,1269,1163
8034,1213,1135
8035,1156,1122
8036,1101,1112
8037,1056,1101
8038,1019,1093
8039,986,1085
8040,958,1072
8041,929,1060
8042,905,1053
8043,889,1051
8044,882,1050
8045,876,1048
8046,875,1042
8047,868,1037
8048,862,1033
8049,862,1032
8050,856,1029
8051,857,1029
8052,856,1023
8053,857,1020
8054,857,1021
8055,861,1024
8056,860,1023
8057,856,1020
8058,849,1019
8059,847,1016
8060,843,1013
8061,841,1012
8062,842,1012
8063,842,1012
8064,845,1014
8065,850,1016
8066,851,1020
8067,851,1022
8068,850,1025
8069,849,1022
8070,850,1019
8071,848,1021
8072,848,1025
8073,848,1024
8074,851,1024
8075,851,1022
8076,845,1022
8077,838,1022
8078,836,1022
8079,837,1019
8080,843,1016
8081,849,1018
8082,846,1014
8083,843,1011
8084,838,1007
8085,836,1006
8086,837,1002
8087,834,998
8088,834,992
8089,832,987
8090,833,986
8091,832,985
8092,833,984
8093,834,980
8094,833,974
8095,827,971
8096,823,972
8097,825,973
8098,829,973
8099,836,970
8100,840,964
8101,837,963
8102,834,963
8103,830,964
8104,829,966
8105,829,964
8106,832,962
8107,834,960
8108,837,960
8109,839,962
8110,843,963
8111,846,962
8112,848,964
8113,850,962
8114,851,964
8115,852,964
8116,854,966
8117,853,968
8118,855,973
8119,857,977
8120,862,982
8121,869,984
8122,871,986
8123,868,989
8124,865,988
8125,862,988
8126,866,988
8127,875,993
8128,882,998
8129,885,1005
8130,885,1007
8131,885,1009
8132,885,1016
8133,892,1023
8134,899,1024
8135,906,1026
8136,905,1029
8137,909,1035
8138,915,1041
8139,922,1052
8140,926,1061
8141,926,1060
8142,922,1058
8143,916,1059
8144,914,1061
8145,920,1067
8146,928,1071
8147,934,1069
8148,935,1069
8149,938,1069
8150,941,1075
8151,939,1082
8152,940,1083
8153,940,1082
8154,943,1080
8155,943,1081
8156,947,1085
8157,947,1088
8158,950,1088
8159,944,1086
8160,943,1081
8161,942,1080
8162,942,1083
8163,947,1087
8164,954,1086
8165,956,1086
8166,956,1081
8167,954,1080
8168,949,1080
8169,953,1079
8170,951,1081
8171,947,1080
8172,950,1081
8173,952,1079
8174,950,1078
8175,954,1078
8176,952,1078
8177,951,1075
8178,952,1075
8179,951,1074
8180,951,1080
8181,957,1082
8182,960,1085
8183,959,1082
8184,957,1081
8185,955,1076
8186,955,1076
8187,957,1074
8188,960,1074
8189,958,1076
8190,958,1075
8191,954,1074
8192,956,1075
8193,957,1075
8194,963,1074
8195,961,1073
8196,956,1073
8197,949,1072
8198,951,1075
8199,955,1074
8200,961,1073
8201,964,1072
8202,962,1069
8203,965,1070
8204,965,1071
8205,967,1074
8206,966,1073
8207,964,1070
8208,960,1067
8209,955,1064
8210,955,1066
8211,956,1066
8212,960,1067
8213,959,1067
8214,963,1067
8215,960,1067
8216,956,1066
8217,957,1065
8218,958,1067
8219,958,1067
8220,956,1062
8221,960,1059
8222,959,1064
8223,964,1070
8224,960,1071
8225,958,1069
8226,956,1064
8227,952,1061
8228,956,1058
8229,958,1063
8230,962,1066
8231,965,1068
8232,962,1065
8233,956,1063
8234,950,1061
8235,953,1059
8236,958,1056
8237,963,1055
8238,962,1058
8239,960,1060
8240,959,1061
8241,956,1063
8242,960,1064
8243,958,1063
8244,957,1061
8245,954,1060
8246,952,1060
8247,955,1062
8248,958,1063
8249,961,1064
8250,959,1062
8251,957,1056
8252,956,1051
8253,958,1050
8254,963,1052
8255,965,1057
8256,963,1057
8257,962,1056
8258,959,1060
8259,957,1059
8260,958,1059
8261,957,1053
8262,954,1053
8263,955,1051
8264,957,1049
8265,957,1049
8266,961,1053
8267,961,1059
8268,961,1060
8269,958,1057
8270,955,1053
8271,955,1050
8272,958,1050
8273,959,1047
8274,958,1048
8275,960,1051
8276,961,1051
8277,961,1057
8278,960,1057
8279,955,1055
8280,953,1049
8281,949,1047
8282,952,1049
8283,954,1054
8284,955,1058
8285,959,1058
8286,961,1056
8287,961,1052
8288,958,1051
8289,958,1053
8290,960,1053
8291,965,1054
8292,967,1053
8293,966,1054
8294,964,1058
8295,965,1060
8296,967,1063
8297,970,1065
8298,971,1065
8299,972,1061
8300,975,1062
8301,979,1065
8302,983,1069
8303,986,1071
8304,984,1072
8305,981,1068
8306,977,1070
8307,977,1073
8308,979,1070
8309,981,1064
8310,979,1049
8311,973,1037
8312,970,1030
8313,971,1028
8314,970,1029
8315,965,1026
8316,957,1025
8317,957,1026
8318,956,1030
8319,957,1037
8320,958,1039
8321,956,1036
8322,956,1032
8323,956,1028
8324,947,1029
8325,948,1030
8326,951,1030
8327,953,1030
8328,953,1027
8329,951,1025
8330,949,1024
8331,948,1023
8332,945,1021
8333,946,1018
8334,944,1012
8335,941,1013
8336,942,1013
8337,942,1014
8338,941,1017
8339,942,1018
8340,942,1015
8341,937,1010
8342,939,1012
8343,937,1016
8344,941,1018
8345,938,1020
8346,939,1017
8347,933,1017
8348,936,1021
8349,940,1025
8350,947,1025
8351,951,1023
8352,955,1022
8353,957,1028
8354,958,1034
8355,960,1036
8356,959,1041
8357,957,1047
8358,956,1051
8359,958,1047
8360,957,1046
8361,960,1045
8362,961,1049
8363,963,1049
8364,962,1048
8365,960,1047
8366,957,1051
8367,960,1049
8368,963,1049
8369,963,1048
8370,966,1047
8371,966,1046
8372,966,1048
8373,970,1056
8374,969,1058
8375,968,1053
8376,964,1045
8377,955,1031
8378,944,1024
8379,938,1018
8380,935,1002
8381,939,959
8382,945,908
8383,948,850
8384,954,789
8385,964,717
8386,976,651
8387,982,596
8388,991,563
8389,994,562
8390,1006,593
8391,1037,670
8392,1081,796
8393,1114,923
8394,1120,1024
8395,1106,1063
8396,1083,1075
8397,1062,1082
8398,1036,1087
8399,1017,1089
8400,1005,1090
8401,992,1090
8402,986,1091
8403,982,1094
8404,983,1098
8405,984,1097
8406,984,1095
8407,983,1095
8408,984,1095
8409,987,1101
8410,986,1102
8411,989,1099
8412,990,1095
8413,989,1092
8414,988,1093
8415,988,1098
8416,991,1100
8417,992,1099
8418,992,1095
8419,989,1095
8420,988,1097
8421,990,1099
8422,994,1100
8423,999,1098
8424,1000,1097
8425,995,1098
8426,994,1097
8427,994,1096
8428,996,1095
8429,997,1094
8430,997,1092
8431,993,1089
8432,991,1089
8433,998,1092
8434,999,1096
8435,1005,1095
8436,1003,1095
8437,1005,1097
8438,1003,1093
8439,1004,1091
8440,1009,1089
8441,1009,1093
8442,1011,1095
8443,1011,1095
8444,1010,1096
8445,1013,1094
8446,1018,1091
8447,1022,1091
8448,1023,1088
8449,1023,1084
8450,1023,1085
8451,1021,1088
8452,1024,1087
8453,1024,1085
8454,1025,1081
8455,1030,1077
8456,1033,1074
8457,1035,1071
8458,1036,1070
8459,1034,1068
8460,1033,1066
8461,1028,1062
8462,1030,1060
8463,1034,1059
8464,1043,1059
8465,1038,1058
8466,1043,1057
8467,1039,1055
8468,1040,1053
8469,1042,1047
8470,1040,1045
8471,1036,1046
8472,1041,1043
8473,1042,1042
8474,1042,1043
8475,1043,1045
8476,1048,1044
8477,1050,1043
8478,1049,1040
8479,1046,1036
8480,1044,1033
8481,1044,1034
8482,1044,1033
8483,1042,1033
8484,1041,1036
8485,1037,1037
8486,1035,1036
8487,1036,1038
8488,1037,1037
8489,1035,1036
8490,1035,1035
8491,1029,1034
8492,1027,1036
8493,1024,1039
8494,1025,1040
8495,1022,1041
8496,1022,1039
8497,1021,1037
8498,1016,1040
8499,1014,1041
8500,1012,1042
8501,1008,1043
8502,1004,1042
8503,1001,1042
8504,1000,1047
8505,1001,1048
8506,1003,1048
8507,1003,1047
8508,1001,1046
8509,998,1042
8510,998,1048
8511,997,1052
8512,998,1054
8513,997,1053
8514,998,1051
8515,994,1049
8516,994,1050
8517,992,1056
8518,994,1060
8519,994,1061
8520,991,1058
8521,990,1058
8522,989,1059
8523,988,1063
8524,992,1066
8525,993,1067
8526,989,1065
8527,984,1064
8528,977,1067
8529,981,1073
8530,983,1078
8531,984,1077
8532,986,1076
8533,983,1074
8534,985,1072
8535,989,1072
8536,986,1079
8537,984,1080
8538,979,1080
8539,977,1075
8540,977,1078
8541,980,1080
8542,985,1081
8543,984,1082
8544,982,1082
8545,979,1081
8546,977,1082
8547,977,1086
8548,977,1090
8549,976,1086
8550,979,1078
8551,976,1066
8552,970,1049
8553,966,1034
8554,957,1024
8555,947,1013
8556,944,999
8557,944,986
8558,950,971
8559,958,959
8560,972,950
8561,995,946
8562,1018,943
8563,1040,940
8564,1059,930
8565,1077,909
8566,1095,879
8567,1115,855
8568,1144,847
8569,1177,865
8570,1214,911
8571,1258,974
8572,1296,1034
8573,1332,1093
8574,1362,1150
8575,1391,1195
8576,1415,1237
8577,1443,1271
8578,1476,1287
8579,1497,1287
8580,1509,1285
8581,1515,1279
8582,1523,1268
8583,1526,1249
8584,1520,1236
8585,1498,1227
8586,1459,1216
8587,1405,1193
8588,1344,1161
8589,1277,1135
8590,1203,1112
8591,1130,1097
8592,1063,1084
8593,1019,1070
8594,989,1057
8595,967,1049
8596,944,1040
8597,923,1034
8598,907,1032
8599,899,1029
8600,893,1027
8601,892,1027
8602,890,1025
8603,892,1022
8604,890,1018
8605,886,1015
8606,880,1012
8607,878,1013
