'sample #','MLII','V1'
0,1008,1051
1,1008,1051
2,1008,1051
3,1008,1051
4,1008,1051
5,1008,1051
6,1008,1051
7,1008,1051
8,1009,1051
9,1009,1053
10,1006,1055
11,1011,1059
12,1013,1060
13,1014,1059
14,1014,1057
15,1011,1053
16,1010,1053
17,1009,1054
18,1008,1054
19,1008,1054
20,1007,1054
21,1007,1055
22,1005,1055
23,1009,1058
24,1010,1059
25,1011,1058
26,1012,1053
27,1010,1052
28,1009,1051
29,1009,1054
30,1008,1055
31,1009,1053
32,1010,1052
33,1012,1053
34,1011,1058
35,1013,1061
36,1013,1058
37,1014,1058
38,1014,1054
39,1014,1052
40,1012,1051
41,1011,1053
42,1011,1053
43,1008,1053
44,1011,1054
45,1011,1052
46,1012,1056
47,1013,1058
48,1013,1058
49,1014,1058
50,1014,1052
51,1011,1052
52,1011,1050
53,1012,1054
54,1014,1055
55,1014,1053
56,1015,1054
57,1015,1052
58,1014,1054
59,1014,1058
60,1014,1059
61,1015,1057
62,1013,1055
63,1014,1052
64,1011,1052
65,1008,1052
66,1008,1054
67,1011,1054
68,1012,1055
69,1013,1056
70,1014,1059
71,1014,1063
72,1017,1062
73,1020,1061
74,1021,1059
75,1020,1059
76,1021,1060
77,1022,1067
78,1025,1063
79,1027,1063
80,1029,1062
81,1031,1063
82,1036,1065
83,1039,1070
84,1042,1068
85,1047,1064
86,1051,1060
87,1050,1058
88,1049,1055
89,1045,1057
90,1043,1057
91,1045,1056
92,1043,1055
93,1044,1055
94,1045,1059
95,1045,1057
96,1041,1057
97,1038,1051
98,1033,1044
99,1026,1045
100,1020,1049
101,1014,1049
102,1010,1051
103,1006,1051
104,1005,1051
105,1008,1048
106,1008,1051
107,1009,1053
108,1007,1053
109,1006,1051
110,1005,1047
111,1002,1047
112,1000,1047
113,999,1050
114,997,1051
115,997,1048
116,996,1048
117,999,1046
118,999,1050
119,1001,1051
120,998,1052
121,1000,1045
122,999,1042
123,996,1041
124,993,1043
125,997,1046
126,1010,1044
127,1029,1041
128,1062,1040
129,1103,1039
130,1151,1041
131,1204,1048
132,1260,1061
133,1307,1076
134,1343,1102
135,1356,1129
136,1339,1153
137,1298,1170
138,1237,1171
139,1168,1153
140,1100,1123
141,1046,1091
142,1006,1057
143,987,1035
144,978,1020
145,983,1020
146,991,1028
147,1000,1039
148,1002,1049
149,999,1050
150,996,1050
151,993,1046
152,990,1046
153,987,1048
154,986,1049
155,988,1049
156,989,1047
157,993,1044
158,988,1045
159,988,1045
160,988,1044
161,986,1041
162,983,1038
163,980,1040
164,981,1045
165,986,1047
166,990,1047
167,993,1043
168,994,1042
169,994,1045
170,990,1043
171,989,1039
172,991,1038
173,989,1040
174,986,1041
175,986,1044
176,987,1042
177,993,1040
178,996,1042
179,998,1040
180,998,1042
181,997,1041
182,997,1036
183,996,1032
184,996,1030
185,994,1030
186,993,1033
187,995,1032
188,994,1032
189,995,1030
190,1000,1030
191,1003,1033
192,1005,1032
193,1007,1029
194,1008,1028
195,1008,1024
196,1008,1024
197,1007,1024
198,1008,1024
199,1005,1024
200,1009,1022
201,1010,1019
202,1011,1023
203,1015,1024
204,1019,1022
205,1019,1022
206,1020,1019
207,1020,1017
208,1018,1018
209,1017,1016
210,1018,1017
211,1017,1015
212,1017,1015
213,1017,1016
214,1017,1020
215,1018,1022
216,1019,1019
217,1022,1018
218,1022,1018
219,1020,1020
220,1017,1022
221,1018,1024
222,1019,1023
223,1022,1024
224,1024,1025
225,1028,1032
226,1032,1038
227,1037,1041
228,1037,1043
229,1036,1043
230,1035,1046
231,1039,1048
232,1038,1051
233,1036,1050
234,1035,1049
235,1033,1046
236,1031,1047
237,1033,1051
238,1032,1055
239,1033,1054
240,1032,1053
241,1033,1049
242,1033,1051
243,1030,1054
244,1028,1055
245,1030,1056
246,1028,1056
247,1029,1052
248,1030,1055
249,1030,1055
250,1031,1059
251,1031,1060
252,1030,1056
253,1030,1053
254,1031,1051
255,1031,1052
256,1030,1054
257,1030,1052
258,1030,1052
259,1029,1050
260,1030,1051
261,1030,1057
262,1031,1057
263,1032,1059
264,1032,1057
265,1033,1056
266,1033,1050
267,1030,1049
268,1030,1052
269,1027,1050
270,1033,1050
271,1033,1051
272,1035,1051
273,1033,1053
274,1035,1058
275,1036,1059
276,1035,1057
277,1035,1054
278,1036,1050
279,1033,1046
280,1034,1051
281,1031,1052
282,1032,1052
283,1034,1050
284,1035,1048
285,1036,1051
286,1038,1054
287,1040,1059
288,1038,1060
289,1038,1057
290,1033,1051
291,1033,1049
292,1031,1051
293,1031,1050
294,1031,1053
295,1033,1050
296,1034,1050
297,1033,1050
298,1035,1054
299,1036,1057
300,1037,1057
301,1035,1055
302,1038,1051
303,1037,1051
304,1035,1055
305,1035,1058
306,1036,1062
307,1040,1059
308,1044,1062
309,1046,1063
310,1050,1066
311,1050,1070
312,1052,1068
313,1058,1065
314,1060,1061
315,1063,1059
316,1063,1058
317,1065,1061
318,1067,1057
319,1066,1057
320,1066,1054
321,1066,1055
322,1067,1059
323,1067,1059
324,1068,1060
325,1068,1055
326,1065,1048
327,1060,1043
328,1054,1041
329,1049,1044
330,1042,1047
331,1038,1047
332,1037,1047
333,1033,1052
334,1032,1055
335,1032,1055
336,1032,1055
337,1028,1050
338,1027,1046
339,1026,1042
340,1026,1040
341,1022,1044
342,1023,1047
343,1022,1045
344,1020,1044
345,1020,1046
346,1020,1046
347,1022,1048
348,1021,1049
349,1022,1047
350,1022,1045
351,1020,1040
352,1016,1039
353,1017,1038
354,1012,1041
355,1011,1039
356,1016,1041
357,1028,1043
358,1047,1046
359,1072,1045
360,1103,1043
361,1144,1039
362,1195,1035
363,1246,1036
364,1298,1049
365,1342,1067
366,1371,1094
367,1378,1119
368,1352,1141
369,1306,1150
370,1242,1146
371,1172,1131
372,1109,1100
373,1059,1067
374,1022,1036
375,1005,1015
376,1002,1013
377,1004,1017
378,1012,1031
379,1019,1040
380,1022,1045
381,1017,1045
382,1013,1046
383,1009,1047
384,1002,1044
385,1000,1042
386,999,1039
387,1000,1036
388,1000,1038
389,1000,1041
390,996,1044
391,999,1042
392,999,1039
393,999,1039
394,1000,1042
395,1000,1045
396,1001,1047
397,1001,1044
398,1002,1039
399,997,1038
400,997,1036
401,995,1038
402,996,1037
403,998,1035
404,1000,1038
405,1000,1038
406,1000,1041
407,1002,1040
408,1003,1039
409,1003,1035
410,1001,1033
411,1001,1033
412,999,1034
413,999,1037
414,1001,1036
415,1002,1036
416,1004,1034
417,1005,1036
418,1007,1040
419,1009,1038
420,1010,1035
421,1011,1031
422,1008,1030
423,1005,1027
424,1005,1031
425,1005,1031
426,1006,1027
427,1008,1024
428,1008,1026
429,1012,1027
430,1012,1027
431,1018,1026
432,1018,1024
433,1019,1020
434,1017,1021
435,1017,1023
436,1013,1022
437,1015,1018
438,1014,1012
439,1016,1012
440,1018,1016
441,1020,1019
442,1024,1020
443,1026,1019
444,1025,1014
445,1025,1013
446,1021,1014
447,1019,1014
448,1019,1012
449,1017,1010
450,1019,1009
451,1020,1011
452,1018,1014
453,1020,1020
454,1024,1021
455,1026,1022
456,1025,1021
457,1024,1022
458,1025,1025
459,1023,1028
460,1024,1028
461,1024,1028
462,1027,1028
463,1027,1034
464,1028,1040
465,1032,1046
466,1036,1050
467,1038,1048
468,1038,1047
469,1038,1046
470,1034,1046
471,1031,1048
472,1029,1047
473,1028,1044
474,1030,1046
475,1027,1045
476,1027,1047
477,1028,1052
478,1030,1056
479,1031,1056
480,1031,1054
481,1032,1052
482,1033,1049
483,1029,1051
484,1029,1052
485,1027,1051
486,1026,1047
487,1024,1043
488,1023,1045
489,1023,1050
490,1023,1053
491,1025,1055
492,1028,1051
493,1030,1048
494,1033,1048
495,1030,1050
496,1030,1048
497,1026,1048
498,1023,1046
499,1023,1045
500,1025,1047
501,1025,1050
502,1026,1054
503,1028,1055
504,1030,1051
505,1029,1050
506,1029,1047
507,1029,1048
508,1029,1051
509,1025,1049
510,1029,1047
511,1028,1044
512,1029,1045
513,1029,1045
514,1030,1052
515,1032,1055
516,1028,1053
517,1030,1051
518,1030,1048
519,1031,1047
520,1031,1049
521,1031,1053
522,1032,1050
523,1032,1049
524,1031,1049
525,1032,1052
526,1031,1055
527,1031,1054
528,1030,1054
529,1030,1048
530,1031,1046
531,1029,1042
532,1028,1045
533,1026,1047
534,1029,1049
535,1027,1049
536,1031,1049
537,1032,1048
538,1029,1054
539,1030,1056
540,1033,1056
541,1035,1055
542,1036,1054
543,1035,1056
544,1034,1058
545,1036,1058
546,1038,1059
547,1041,1059
548,1046,1059
549,1048,1059
550,1052,1061
551,1056,1063
552,1057,1063
553,1062,1061
554,1065,1057
555,1065,1051
556,1064,1048
557,1059,1049
558,1055,1052
559,1055,1054
560,1057,1052
561,1060,1049
562,1063,1050
563,1066,1050
564,1062,1052
565,1058,1052
566,1055,1046
567,1047,1040
568,1043,1039
569,1035,1040
570,1031,1046
571,1027,1051
572,1027,1050
573,1025,1047
574,1023,1045
575,1024,1042
576,1019,1042
577,1017,1045
578,1016,1045
579,1016,1044
580,1014,1038
581,1011,1035
582,1008,1041
583,1006,1044
584,1008,1045
585,1009,1047
586,1008,1043
587,1011,1045
588,1012,1044
589,1010,1048
590,1010,1045
591,1010,1040
592,1009,1037
593,1003,1032
594,1002,1032
595,1002,1036
596,1009,1043
597,1025,1044
598,1047,1042
599,1075,1034
600,1111,1031
601,1155,1031
602,1205,1033
603,1259,1042
604,1312,1051
605,1353,1070
606,1373,1091
607,1362,1117
608,1328,1138
609,1273,1144
610,1207,1137
611,1139,1110
612,1078,1077
613,1033,1050
614,1006,1025
615,994,1012
616,993,1009
617,1000,1015
618,1005,1027
619,1008,1037
620,1007,1049
621,1004,1045
622,1000,1045
623,996,1041
624,992,1041
625,990,1042
626,988,1046
627,989,1040
628,991,1036
629,991,1035
630,987,1038
631,988,1040
632,989,1045
633,989,1043
634,990,1041
635,991,1040
636,989,1039
637,989,1043
638,987,1042
639,987,1038
640,987,1033
641,988,1035
642,988,1037
643,989,1035
644,992,1039
645,993,1039
646,992,1039
647,995,1037
648,994,1041
649,991,1043
650,992,1041
651,993,1036
652,989,1032
653,989,1029
654,991,1031
655,991,1035
656,992,1036
657,995,1036
658,999,1034
659,999,1035
660,999,1033
661,996,1035
662,997,1031
663,997,1025
664,997,1023
665,996,1023
666,996,1025
667,999,1027
668,1002,1026
669,1001,1025
670,1004,1024
671,1005,1024
672,1005,1027
673,1004,1027
674,1006,1020
675,1005,1016
676,1006,1011
677,1005,1011
678,1004,1013
679,1005,1016
680,1008,1017
681,1013,1016
682,1016,1014
683,1018,1019
684,1019,1020
685,1019,1021
686,1017,1017
687,1016,1014
688,1014,1008
689,1013,1012
690,1010,1014
691,1011,1019
692,1014,1016
693,1016,1015
694,1019,1015
695,1019,1019
696,1023,1020
697,1020,1022
698,1022,1022
699,1021,1022
700,1021,1027
701,1020,1030
702,1021,1034
703,1021,1036
704,1024,1037
705,1027,1038
706,1027,1046
707,1030,1050
708,1030,1052
709,1029,1051
710,1027,1048
711,1025,1042
712,1023,1047
713,1020,1049
714,1018,1050
715,1018,1051
716,1020,1048
717,1019,1047
718,1021,1051
719,1020,1053
720,1021,1052
721,1021,1049
722,1020,1047
723,1017,1046
724,1015,1046
725,1015,1048
726,1012,1049
727,1011,1048
728,1012,1047
729,1012,1051
730,1015,1055
731,1018,1057
732,1020,1054
733,1022,1051
734,1021,1047
735,1018,1047
736,1017,1048
737,1014,1045
738,1014,1044
739,1013,1045
740,1015,1048
741,1016,1051
742,1018,1053
743,1020,1053
744,1021,1048
745,1021,1048
746,1021,1050
747,1020,1051
748,1017,1048
749,1016,1045
750,1015,1042
751,1015,1046
752,1017,1048
753,1018,1053
754,1020,1055
755,1023,1053
756,1025,1053
757,1023,1051
758,1024,1050
759,1021,1049
760,1018,1048
761,1017,1044
762,1017,1043
763,1018,1044
764,1014,1046
765,1015,1053
766,1013,1056
767,1016,1055
768,1017,1052
769,1018,1050
770,1018,1050
771,1019,1052
772,1018,1054
773,1017,1049
774,1017,1046
775,1018,1045
776,1021,1048
777,1021,1052
778,1023,1057
779,1028,1061
780,1032,1056
781,1033,1059
782,1034,1058
783,1033,1060
784,1033,1061
785,1034,1060
786,1037,1059
787,1041,1057
788,1043,1059
789,1045,1059
790,1049,1061
791,1050,1061
792,1053,1056
793,1049,1051
794,1046,1052
795,1048,1050
796,1047,1051
797,1048,1051
798,1048,1048
799,1045,1045
800,1042,1042
801,1038,1046
802,1031,1046
803,1029,1048
804,1024,1047
805,1022,1048
806,1020,1045
807,1016,1049
808,1012,1050
809,1009,1049
810,1006,1047
811,1006,1044
812,1005,1043
813,1004,1044
814,1003,1044
815,1004,1050
816,1004,1047
817,1004,1045
818,1004,1041
819,1001,1038
820,1000,1038
821,998,1043
822,998,1044
823,999,1042
824,1001,1042
825,1003,1043
826,1002,1045
827,1002,1048
828,998,1047
829,995,1042
830,998,1039
831,1004,1038
832,1016,1041
833,1035,1042
834,1060,1040
835,1096,1035
836,1139,1028
837,1191,1030
838,1247,1040
839,1299,1058
840,1341,1081
841,1362,1103
842,1360,1122
843,1329,1137
844,1275,1144
845,1214,1138
846,1150,1122
847,1088,1094
848,1041,1062
849,1012,1034
850,997,1016
851,993,1016
852,995,1022
853,1002,1031
854,1007,1037
855,1011,1038
856,1007,1037
857,999,1039
858,991,1041
859,989,1043
860,985,1044
861,983,1044
862,985,1039
863,987,1039
864,988,1042
865,985,1043
866,988,1043
867,989,1039
868,987,1034
869,985,1032
870,984,1031
871,983,1038
872,983,1042
873,984,1042
874,985,1040
875,988,1041
876,986,1040
877,987,1041
878,988,1042
879,988,1039
880,988,1033
881,988,1028
882,987,1029
883,987,1032
884,986,1036
885,984,1038
886,988,1038
887,988,1036
888,988,1034
889,989,1036
890,990,1036
891,988,1034
892,989,1032
893,990,1026
894,990,1027
895,990,1030
896,989,1033
897,990,1031
898,995,1031
899,995,1029
900,994,1025
901,994,1028
902,995,1026
903,996,1027
904,997,1024
905,997,1018
906,999,1020
907,996,1019
908,1000,1023
909,1001,1023
910,1002,1019
911,1006,1019
912,1007,1015
913,1005,1017
914,1005,1018
915,1004,1017
916,1006,1013
917,1002,1008
918,1006,1007
919,1007,1009
920,1008,1011
921,1010,1014
922,1009,1012
923,1014,1008
924,1013,1008
925,1015,1008
926,1014,1008
927,1010,1010
928,1009,1009
929,1010,1003
930,1008,1004
931,1011,1006
932,1010,1011
933,1011,1014
934,1015,1014
935,1017,1014
936,1016,1012
937,1019,1015
938,1019,1022
939,1020,1025
940,1019,1024
941,1016,1024
942,1015,1022
943,1017,1025
944,1018,1033
945,1023,1040
946,1022,1041
947,1026,1043
948,1026,1042
949,1027,1043
950,1028,1042
951,1024,1045
952,1022,1044
953,1022,1039
954,1020,1038
955,1019,1041
956,1018,1043
957,1017,1049
958,1018,1051
959,1022,1048
960,1024,1045
961,1022,1044
962,1022,1045
963,1020,1046
964,1018,1048
965,1018,1048
966,1016,1043
967,1015,1043
968,1017,1044
969,1016,1046
970,1017,1049
971,1018,1046
972,1021,1043
973,1022,1042
974,1022,1045
975,1021,1045
976,1022,1046
977,1019,1042
978,1017,1039
979,1016,1039
980,1015,1043
981,1016,1049
982,1016,1048
983,1018,1048
984,1021,1045
985,1021,1043
986,1019,1043
987,1022,1046
988,1020,1046
989,1018,1042
990,1020,1040
991,1019,1041
992,1019,1044
993,1017,1048
994,1017,1047
995,1017,1047
996,1022,1044
997,1022,1043
998,1022,1048
999,1019,1048
1000,1018,1044
1001,1019,1042
1002,1018,1041
1003,1015,1047
1004,1019,1049
1005,1018,1051
1006,1018,1051
1007,1020,1046
1008,1018,1045
1009,1017,1042
1010,1015,1043
1011,1015,1043
1012,1014,1042
1013,1011,1042
1014,1014,1042
1015,1013,1048
1016,1019,1049
1017,1018,1053
1018,1021,1050
1019,1025,1050
1020,1025,1054
1021,1026,1057
1022,1027,1058
1023,1027,1059
1024,1028,1055
1025,1030,1053
1026,1032,1057
1027,1036,1059
1028,1039,1060
1029,1046,1059
1030,1053,1054
1031,1053,1050
1032,1054,1049
1033,1053,1049
1034,1048,1049
1035,1045,1045
1036,1044,1042
1037,1043,1043
1038,1043,1044
1039,1043,1045
1040,1039,1049
1041,1041,1046
1042,1039,1044
1043,1034,1041
1044,1027,1041
1045,1024,1044
1046,1019,1046
1047,1014,1046
1048,1012,1042
1049,1010,1038
1050,1005,1039
1051,1004,1038
1052,1003,1043
1053,1004,1044
1054,1006,1041
1055,1007,1037
1056,1006,1039
1057,1005,1040
1058,1003,1042
1059,1000,1042
1060,1001,1039
1061,999,1036
1062,998,1036
1063,996,1041
1064,997,1043
1065,999,1047
1066,999,1044
1067,999,1038
1068,996,1034
1069,995,1029
1070,992,1032
1071,990,1035
1072,1000,1038
1073,1012,1038
1074,1030,1033
1075,1053,1029
1076,1086,1024
1077,1128,1026
1078,1179,1031
1079,1234,1037
1080,1287,1050
1081,1329,1071
1082,1353,1090
1083,1354,1113
1084,1325,1136
1085,1276,1143
1086,1215,1142
1087,1150,1125
1088,1091,1097
1089,1044,1068
1090,1013,1042
1091,996,1020
1092,991,1010
1093,994,1007
1094,1000,1016
1095,1006,1026
1096,1007,1038
1097,1006,1042
1098,1002,1043
1099,993,1041
1100,991,1039
1101,987,1039
1102,985,1041
1103,984,1040
1104,985,1037
1105,986,1036
1106,987,1035
1107,985,1039
1108,984,1041
1109,984,1040
1110,984,1039
1111,985,1034
1112,987,1032
1113,987,1035
1114,987,1038
1115,986,1039
1116,988,1038
1117,989,1034
1118,986,1033
1119,983,1031
1120,983,1033
1121,984,1034
1122,986,1034
1123,987,1031
1124,988,1028
1125,991,1031
1126,993,1035
1127,993,1039
1128,993,1036
1129,995,1031
1130,991,1029
1131,991,1027
1132,990,1029
1133,988,1031
1134,989,1033
1135,990,1028
1136,991,1028
1137,991,1027
1138,994,1028
1139,995,1029
1140,996,1029
1141,999,1025
1142,997,1021
1143,998,1018
1144,995,1019
1145,994,1023
1146,995,1027
1147,992,1026
1148,993,1022
1149,996,1018
1150,998,1019
1151,1002,1020
1152,1003,1023
1153,1003,1021
1154,1004,1018
1155,1006,1014
1156,1005,1009
1157,1004,1010
1158,1002,1013
1159,1002,1017
1160,1002,1015
1161,1006,1016
1162,1009,1014
1163,1010,1014
1164,1009,1016
1165,1010,1016
1166,1010,1014
1167,1011,1011
1168,1010,1009
1169,1010,1009
1170,1011,1012
1171,1010,1017
1172,1011,1020
1173,1011,1021
1174,1012,1018
1175,1015,1014
1176,1013,1015
1177,1012,1017
1178,1011,1020
1179,1011,1017
1180,1010,1016
1181,1013,1016
1182,1018,1018
1183,1021,1028
1184,1023,1036
1185,1025,1035
1186,1026,1036
1187,1028,1034
1188,1026,1035
1189,1027,1038
1190,1026,1043
1191,1022,1045
1192,1020,1044
1193,1017,1042
1194,1023,1043
1195,1023,1044
1196,1024,1050
1197,1025,1055
1198,1026,1052
1199,1026,1048
1200,1024,1046
1201,1024,1046
1202,1021,1047
1203,1019,1048
1204,1019,1046
1205,1018,1045
1206,1018,1042
1207,1018,1044
1208,1019,1047
1209,1019,1053
1210,1022,1055
1211,1025,1052
1212,1023,1048
1213,1024,1045
1214,1020,1042
1215,1018,1045
1216,1015,1046
1217,1015,1044
1218,1013,1044
1219,1016,1045
1220,1016,1046
1221,1019,1052
1222,1020,1050
1223,1022,1051
1224,1024,1046
1225,1026,1043
1226,1023,1043
1227,1021,1045
1228,1019,1047
1229,1020,1045
1230,1019,1045
1231,1018,1040
1232,1019,1043
1233,1020,1048
1234,1021,1053
1235,1024,1054
1236,1024,1051
1237,1024,1049
1238,1023,1047
1239,1024,1046
1240,1021,1048
1241,1021,1050
1242,1019,1045
1243,1020,1044
1244,1017,1041
1245,1018,1045
1246,1020,1050
1247,1021,1051
1248,1023,1053
1249,1024,1049
1250,1022,1045
1251,1021,1043
1252,1020,1044
1253,1020,1047
1254,1020,1048
1255,1018,1045
1256,1018,1045
1257,1019,1047
1258,1020,1051
1259,1021,1052
1260,1020,1053
1261,1020,1053
1262,1021,1047
1263,1022,1045
1264,1020,1049
1265,1020,1051
1266,1024,1053
1267,1025,1053
1268,1026,1055
1269,1029,1059
1270,1030,1064
1271,1032,1065
1272,1037,1063
1273,1039,1060
1274,1039,1056
1275,1042,1058
1276,1045,1058
1277,1046,1059
1278,1053,1058
1279,1056,1055
1280,1055,1052
1281,1056,1053
1282,1054,1057
1283,1052,1060
1284,1050,1058
1285,1051,1051
1286,1048,1043
1287,1043,1041
1288,1039,1042
1289,1035,1043
1290,1032,1043
1291,1027,1043
1292,1027,1043
1293,1024,1049
1294,1021,1053
1295,1020,1056
1296,1015,1053
1297,1013,1048
1298,1009,1044
1299,1004,1043
1300,1001,1045
1301,1000,1047
1302,1001,1046
1303,1002,1044
1304,1006,1043
1305,1003,1045
1306,1005,1048
1307,1005,1050
1308,1003,1050
1309,1003,1048
1310,1002,1043
1311,999,1042
1312,999,1043
1313,993,1041
1314,992,1040
1315,990,1035
1316,993,1033
1317,997,1039
1318,1008,1045
1319,1027,1046
1320,1055,1042
1321,1093,1037
1322,1141,1030
1323,1194,1034
1324,1245,1048
1325,1295,1068
1326,1334,1089
1327,1348,1116
1328,1334,1139
1329,1290,1156
1330,1225,1155
1331,1152,1134
1332,1085,1099
1333,1030,1064
1334,997,1035
1335,981,1019
1336,981,1016
1337,985,1020
1338,992,1028
1339,1000,1040
1340,1003,1050
1341,1002,1053
1342,997,1054
1343,997,1047
1344,991,1046
1345,989,1045
1346,987,1044
1347,984,1045
1348,982,1042
1349,978,1039
1350,979,1037
1351,979,1038
1352,981,1042
1353,983,1045
1354,985,1045
1355,988,1043
1356,988,1041
1357,987,1045
1358,986,1046
1359,984,1046
1360,984,1044
1361,982,1038
1362,982,1039
1363,980,1038
1364,982,1044
1365,982,1048
1366,987,1047
1367,990,1042
1368,990,1039
1369,989,1040
1370,986,1041
1371,987,1039
1372,984,1036
1373,983,1033
1374,984,1035
1375,986,1039
1376,984,1039
1377,987,1042
1378,989,1038
1379,993,1035
1380,991,1033
1381,994,1034
1382,994,1035
1383,995,1032
1384,992,1030
1385,993,1028
1386,989,1029
1387,988,1030
1388,991,1030
1389,995,1029
1390,995,1029
1391,998,1023
1392,1001,1022
1393,1000,1024
1394,1002,1024
1395,1001,1023
1396,1000,1019
1397,1002,1016
1398,1000,1017
1399,1000,1021
1400,1001,1024
1401,1001,1026
1402,1002,1027
1403,1003,1024
1404,1005,1023
1405,1004,1023
1406,1007,1020
1407,1007,1019
1408,1007,1014
1409,1004,1013
1410,1001,1014
1411,1001,1021
1412,1002,1025
1413,1003,1026
1414,1005,1026
1415,1008,1025
1416,1007,1025
1417,1008,1027
1418,1009,1030
1419,1010,1029
1420,1012,1029
1421,1012,1030
1422,1015,1034
1423,1016,1041
1424,1019,1046
1425,1020,1049
1426,1018,1050
1427,1019,1048
1428,1019,1050
1429,1019,1050
1430,1016,1055
1431,1015,1052
1432,1016,1051
1433,1015,1051
1434,1015,1048
1435,1014,1054
1436,1014,1058
1437,1013,1059
1438,1016,1057
1439,1016,1057
1440,1015,1055
1441,1014,1057
1442,1011,1058
1443,1007,1061
1444,1006,1058
1445,1006,1054
1446,1006,1050
1447,1007,1051
1448,1008,1055
1449,1009,1057
1450,1011,1058
1451,1014,1054
1452,1016,1054
1453,1015,1054
1454,1013,1055
1455,1012,1059
1456,1007,1055
1457,1008,1053
1458,1007,1050
1459,1008,1052
1460,1006,1056
1461,1011,1056
1462,1009,1058
1463,1015,1055
1464,1017,1053
1465,1014,1054
1466,1011,1055
1467,1010,1057
1468,1009,1053
1469,1006,1052
1470,1007,1050
1471,1005,1053
1472,1007,1056
1473,1010,1062
1474,1011,1060
1475,1015,1056
1476,1014,1053
1477,1015,1056
1478,1015,1055
1479,1011,1053
1480,1009,1053
1481,1010,1054
1482,1011,1053
1483,1009,1058
1484,1009,1061
1485,1008,1060
1486,1012,1055
1487,1012,1055
1488,1011,1056
1489,1012,1058
1490,1010,1060
1491,1011,1058
1492,1009,1055
1493,1008,1054
1494,1008,1054
1495,1007,1058
1496,1008,1060
1497,1010,1059
1498,1010,1057
1499,1012,1058
1500,1016,1061
1501,1019,1064
1502,1020,1064
1503,1020,1065
1504,1024,1066
1505,1024,1064
1506,1026,1068
1507,1028,1071
1508,1031,1074
1509,1033,1072
1510,1036,1071
1511,1040,1067
1512,1045,1066
1513,1047,1065
1514,1045,1063
1515,1044,1058
1516,1042,1056
1517,1039,1056
1518,1035,1058
1519,1035,1061
1520,1034,1057
1521,1034,1055
1522,1033,1055
1523,1031,1053
1524,1025,1056
1525,1021,1058
1526,1016,1055
1527,1013,1053
1528,1010,1052
1529,1006,1052
1530,1004,1054
1531,1002,1055
1532,1001,1054
1533,1000,1053
1534,998,1050
1535,998,1049
1536,998,1053
1537,996,1056
1538,995,1056
1539,993,1053
1540,994,1051
1541,993,1048
1542,992,1051
1543,992,1055
1544,991,1060
1545,991,1059
1546,992,1054
1547,989,1052
1548,988,1051
1549,985,1051
1550,982,1050
1551,981,1046
1552,984,1045
1553,996,1045
1554,1013,1046
1555,1038,1046
1556,1074,1044
1557,1119,1039
1558,1167,1040
1559,1217,1043
1560,1262,1062
1561,1307,1086
1562,1329,1113
1563,1330,1138
1564,1302,1159
1565,1252,1167
1566,1189,1160
1567,1122,1140
1568,1066,1110
1569,1022,1072
1570,994,1041
1571,979,1025
1572,975,1020
1573,981,1026
1574,987,1039
1575,993,1047
1576,994,1049
1577,992,1052
1578,986,1051
1579,984,1054
1580,982,1051
1581,983,1051
1582,981,1052
1583,983,1053
1584,980,1051
1585,979,1052
1586,979,1051
1587,979,1045
1588,976,1044
1589,974,1048
1590,972,1049
1591,976,1049
1592,979,1051
1593,980,1046
1594,985,1050
1595,985,1047
1596,984,1050
1597,982,1050
1598,982,1048
1599,980,1044
1600,976,1042
1601,974,1041
1602,975,1044
1603,978,1048
1604,977,1049
1605,977,1048
1606,980,1050
1607,984,1050
1608,986,1051
1609,986,1051
1610,984,1043
1611,985,1041
1612,982,1041
1613,981,1041
1614,981,1042
1615,980,1040
1616,985,1037
1617,987,1036
1618,990,1041
1619,993,1040
1620,993,1039
1621,995,1036
1622,994,1034
1623,994,1033
1624,992,1035
1625,991,1034
1626,992,1034
1627,992,1031
1628,998,1031
1629,999,1035
1630,1000,1038
1631,1002,1035
1632,1002,1033
1633,1004,1029
1634,1002,1025
1635,999,1022
1636,999,1025
1637,997,1026
1638,1000,1022
1639,1002,1024
1640,1002,1026
1641,1002,1032
1642,1003,1031
1643,1003,1033
1644,1004,1029
1645,1003,1025
1646,1001,1026
1647,1001,1028
1648,999,1030
1649,1002,1028
1650,1004,1027
1651,1006,1029
1652,1005,1029
1653,1010,1035
1654,1011,1044
1655,1015,1043
1656,1019,1044
1657,1019,1043
1658,1021,1045
1659,1019,1049
1660,1018,1051
1661,1015,1051
1662,1016,1050
1663,1016,1053
1664,1014,1056
1665,1016,1061
1666,1017,1067
1667,1020,1065
1668,1020,1060
1669,1018,1058
1670,1016,1059
1671,1010,1059
1672,1011,1060
1673,1009,1058
1674,1010,1056
1675,1010,1056
1676,1009,1060
1677,1008,1064
1678,1010,1066
1679,1013,1064
1680,1015,1060
1681,1016,1060
1682,1014,1061
1683,1014,1061
1684,1014,1059
1685,1014,1057
1686,1014,1058
1687,1013,1058
1688,1013,1061
1689,1014,1064
1690,1016,1064
1691,1017,1060
1692,1017,1057
1693,1017,1056
1694,1016,1056
1695,1013,1056
1696,1015,1056
1697,1016,1055
1698,1016,1055
1699,1015,1057
1700,1015,1061
1701,1017,1062
1702,1019,1060
1703,1020,1059
1704,1019,1054
1705,1018,1060
1706,1017,1061
1707,1017,1059
1708,1016,1055
1709,1015,1055
1710,1017,1054
1711,1016,1058
1712,1018,1062
1713,1020,1063
1714,1019,1063
1715,1019,1059
1716,1020,1057
1717,1019,1059
1718,1019,1057
1719,1018,1053
1720,1017,1050
1721,1017,1049
1722,1016,1055
1723,1015,1057
1724,1014,1061
1725,1014,1064
1726,1014,1063
1727,1016,1060
1728,1015,1061
1729,1016,1062
1730,1014,1060
1731,1017,1062
1732,1016,1057
1733,1018,1057
1734,1021,1058
1735,1023,1063
1736,1026,1065
1737,1028,1069
1738,1029,1070
1739,1033,1069
1740,1032,1070
1741,1033,1071
1742,1035,1073
1743,1039,1069
1744,1038,1064
1745,1046,1062
1746,1048,1061
1747,1050,1064
1748,1050,1065
1749,1051,1064
1750,1052,1064
1751,1050,1062
1752,1047,1065
1753,1047,1062
1754,1045,1059
1755,1042,1056
1756,1037,1050
1757,1031,1047
1758,1028,1053
1759,1023,1054
1760,1023,1056
1761,1020,1056
1762,1020,1055
1763,1015,1054
1764,1013,1056
1765,1009,1057
1766,1006,1053
1767,1005,1050
1768,1002,1048
1769,1000,1052
1770,998,1052
1771,1002,1055
1772,1004,1055
1773,1005,1051
1774,1005,1050
1775,1005,1051
1776,1004,1054
1777,1002,1056
1778,997,1049
1779,998,1045
1780,996,1042
1781,992,1043
1782,989,1045
1783,992,1049
1784,999,1048
1785,1012,1048
1786,1033,1048
1787,1056,1047
1788,1089,1046
1789,1128,1044
1790,1176,1043
1791,1227,1046
1792,1275,1054
1793,1318,1075
1794,1346,1097
1795,1353,1120
1796,1332,1141
1797,1292,1148
1798,1231,1145
1799,1166,1127
1800,1101,1101
1801,1049,1068
1802,1011,1040
1803,989,1017
1804,981,1009
1805,980,1014
1806,989,1030
1807,997,1041
1808,1001,1049
1809,1002,1050
1810,1002,1051
1811,996,1047
1812,991,1049
1813,989,1048
1814,986,1044
1815,985,1040
1816,983,1037
1817,981,1037
1818,979,1040
1819,978,1044
1820,981,1047
1821,980,1043
1822,982,1044
1823,985,1040
1824,984,1040
1825,984,1046
1826,985,1044
1827,985,1043
1828,983,1039
1829,983,1036
1830,981,1035
1831,980,1040
1832,983,1043
1833,983,1044
1834,981,1043
1835,985,1039
1836,983,1036
1837,985,1036
1838,984,1038
1839,985,1037
1840,984,1031
1841,983,1030
1842,984,1034
1843,982,1035
1844,983,1038
1845,985,1038
1846,987,1037
1847,987,1035
1848,985,1032
1849,987,1035
1850,987,1035
1851,987,1030
1852,986,1024
1853,986,1024
1854,984,1025
1855,984,1027
1856,990,1032
1857,993,1032
1858,992,1029
1859,995,1024
1860,996,1024
1861,996,1026
1862,997,1024
1863,993,1021
1864,991,1017
1865,994,1014
1866,994,1015
1867,994,1020
1868,996,1022
1869,998,1022
1870,1000,1021
1871,1002,1016
1872,1002,1013
1873,1002,1013
1874,1000,1015
1875,999,1015
1876,999,1015
1877,999,1011
1878,999,1008
1879,1000,1011
1880,1001,1016
1881,1001,1016
1882,1003,1016
1883,1006,1013
1884,1005,1012
1885,1004,1011
1886,1000,1016
1887,1000,1016
1888,998,1015
1889,1000,1013
1890,1000,1013
1891,1004,1020
1892,1005,1026
1893,1010,1031
1894,1013,1034
1895,1016,1032
1896,1014,1033
1897,1015,1038
1898,1014,1038
1899,1011,1042
1900,1010,1040
1901,1010,1037
1902,1008,1036
1903,1005,1039
1904,1006,1041
1905,1005,1046
1906,1008,1046
1907,1012,1046
1908,1012,1042
1909,1011,1043
1910,1009,1045
1911,1006,1047
1912,1005,1046
1913,1002,1043
1914,1002,1039
1915,1000,1041
1916,1000,1046
1917,1001,1049
1918,1001,1054
1919,1003,1050
1920,1003,1046
1921,1003,1042
1922,1003,1043
1923,1003,1043
1924,1000,1046
1925,998,1043
1926,1000,1040
1927,1001,1039
1928,1000,1039
1929,1001,1044
1930,999,1047
1931,1000,1048
1932,1004,1043
1933,1005,1043
1934,1005,1042
1935,1003,1044
1936,1005,1046
1937,1002,1044
1938,1000,1041
1939,1001,1040
1940,1001,1036
1941,1004,1042
1942,1002,1043
1943,1003,1046
1944,1004,1043
1945,1006,1042
1946,1005,1040
1947,1004,1043
1948,1001,1044
1949,1002,1042
1950,1001,1040
1951,999,1039
1952,999,1036
1953,1001,1040
1954,999,1046
1955,1003,1047
1956,1002,1047
1957,1003,1043
1958,1002,1039
1959,1003,1039
1960,1002,1041
1961,1001,1044
1962,1003,1043
1963,1002,1041
1964,1003,1041
1965,1005,1044
1966,1003,1047
1967,1003,1050
1968,1001,1046
1969,1003,1041
1970,1000,1039
1971,996,1038
1972,997,1042
1973,993,1044
1974,997,1045
1975,999,1046
1976,1007,1046
1977,1007,1049
1978,1011,1055
1979,1010,1057
1980,1010,1056
1981,1012,1054
1982,1012,1048
1983,1010,1050
1984,1012,1052
1985,1014,1054
1986,1015,1057
1987,1020,1056
1988,1026,1050
1989,1032,1045
1990,1035,1048
1991,1036,1051
1992,1035,1048
1993,1033,1047
1994,1028,1043
1995,1026,1040
1996,1025,1037
1997,1022,1043
1998,1020,1041
1999,1019,1041
2000,1016,1040
2001,1014,1035
2002,1010,1038
2003,1009,1038
2004,1004,1042
2005,1003,1045
2006,999,1042
2007,996,1036
2008,991,1035
2009,985,1034
2010,983,1036
2011,978,1039
2012,980,1039
2013,979,1034
2014,980,1034
2015,982,1036
2016,983,1040
2017,981,1041
2018,981,1039
2019,981,1035
2020,979,1029
2021,976,1027
2022,973,1032
2023,973,1033
2024,975,1039
2025,973,1036
2026,978,1036
2027,976,1033
2028,973,1030
2029,971,1030
2030,970,1033
2031,969,1037
2032,979,1036
2033,992,1034
2034,1010,1031
2035,1033,1029
2036,1067,1025
2037,1108,1023
2038,1157,1026
2039,1212,1030
2040,1264,1039
2041,1307,1058
2042,1334,1078
2043,1336,1101
2044,1306,1118
2045,1256,1124
2046,1190,1116
2047,1120,1093
2048,1057,1070
2049,1012,1041
2050,986,1020
2051,974,1006
2052,971,1006
2053,975,1010
2054,979,1025
2055,980,1033
2056,979,1037
2057,976,1035
2058,973,1034
2059,967,1030
2060,963,1032
2061,960,1035
2062,959,1036
2063,961,1034
2064,962,1032
2065,962,1030
2066,959,1034
2067,957,1038
2068,956,1035
2069,954,1030
2070,955,1030
2071,954,1026
2072,957,1032
2073,958,1034
2074,960,1036
2075,962,1036
2076,964,1031
2077,962,1031
2078,961,1030
2079,958,1028
2080,956,1029
2081,958,1027
2082,956,1024
2083,956,1025
2084,959,1028
2085,960,1032
2086,963,1035
2087,964,1036
2088,963,1030
2089,963,1028
2090,963,1024
2091,961,1027
2092,960,1026
2093,958,1026
2094,957,1021
2095,960,1020
2096,961,1021
2097,963,1023
2098,966,1029
2099,969,1029
2100,970,1024
2101,971,1020
2102,971,1016
2103,969,1016
2104,967,1020
2105,964,1020
2106,963,1019
2107,966,1015
2108,967,1015
2109,971,1015
2110,971,1018
2111,974,1018
2112,974,1017
2113,974,1013
2114,977,1009
2115,974,1004
2116,977,1002
2117,974,1006
2118,976,1009
2119,975,1009
2120,975,1007
2121,980,1004
2122,982,1007
2123,982,1009
2124,983,1010
2125,982,1009
2126,981,1005
2127,981,1002
2128,981,1000
2129,982,1003
2130,982,1005
2131,979,1008
2132,981,1008
2133,980,1007
2134,981,1008
2135,984,1009
2136,985,1015
2137,986,1015
2138,986,1014
2139,985,1012
2140,983,1011
2141,989,1008
2142,987,1013
2143,989,1020
2144,991,1023
2145,991,1024
2146,990,1024
2147,994,1027
2148,992,1027
2149,994,1035
2150,993,1037
2151,991,1036
2152,991,1033
2153,990,1031
2154,987,1033
2155,988,1038
2156,992,1041
2157,994,1044
2158,994,1044
2159,993,1041
2160,993,1039
2161,990,1038
2162,991,1036
2163,989,1040
2164,987,1036
2165,986,1034
2166,983,1033
2167,985,1031
2168,984,1035
2169,986,1039
2170,988,1041
2171,992,1040
2172,991,1038
2173,991,1035
2174,988,1035
2175,986,1036
2176,986,1039
2177,986,1039
2178,988,1039
2179,987,1036
2180,983,1035
2181,987,1039
2182,986,1040
2183,989,1042
2184,987,1036
2185,988,1036
2186,988,1034
2187,988,1035
2188,989,1035
2189,986,1037
2190,986,1035
2191,984,1033
2192,985,1030
2193,987,1033
2194,990,1038
2195,989,1045
2196,990,1044
2197,991,1039
2198,991,1035
2199,989,1034
2200,990,1032
2201,988,1034
2202,986,1036
2203,988,1035
2204,989,1035
2205,986,1035
2206,988,1037
2207,988,1039
2208,989,1039
2209,989,1036
2210,989,1034
2211,988,1031
2212,988,1033
2213,989,1037
2214,990,1037
2215,989,1035
2216,987,1033
2217,987,1034
2218,983,1037
2219,987,1041
2220,983,1041
2221,984,1037
2222,986,1034
2223,988,1031
2224,986,1033
2225,988,1037
2226,991,1038
2227,992,1039
2228,997,1039
2229,998,1042
2230,1002,1043
2231,1003,1051
2232,1003,1051
2233,1007,1049
2234,1006,1046
2235,1006,1042
2236,1007,1043
2237,1008,1045
2238,1013,1045
2239,1019,1043
2240,1023,1039
2241,1026,1040
2242,1024,1039
2243,1022,1041
2244,1018,1036
2245,1016,1035
2246,1017,1031
2247,1015,1029
2248,1013,1026
2249,1009,1028
2250,1007,1028
2251,1003,1027
2252,1002,1025
2253,998,1028
2254,993,1032
2255,991,1035
2256,988,1035
2257,985,1032
2258,980,1029
2259,978,1029
2260,973,1026
2261,970,1029
2262,968,1031
2263,969,1029
2264,970,1026
2265,972,1028
2266,974,1028
2267,974,1032
2268,972,1031
2269,972,1031
2270,971,1027
2271,967,1027
2272,966,1025
2273,966,1026
2274,964,1031
2275,963,1022
2276,961,1021
2277,958,1016
2278,963,1015
2279,967,1022
2280,977,1028
2281,994,1027
2282,1016,1023
2283,1047,1014
2284,1085,1010
2285,1130,1009
2286,1182,1018
2287,1233,1033
2288,1279,1051
2289,1310,1075
2290,1316,1101
2291,1292,1122
2292,1240,1131
2293,1176,1123
2294,1107,1099
2295,1048,1065
2296,1000,1035
2297,970,1010
2298,957,999
2299,955,997
2300,960,1001
2301,968,1013
2302,973,1024
2303,974,1035
2304,971,1037
2305,969,1033
2306,963,1027
2307,960,1024
2308,953,1021
2309,953,1022
2310,950,1018
2311,952,1018
2312,955,1019
2313,955,1019
2314,952,1024
2315,952,1027
2316,954,1027
2317,955,1022
2318,952,1019
2319,953,1014
2320,951,1019
2321,950,1021
2322,950,1025
2323,950,1023
2324,951,1020
2325,952,1021
2326,953,1022
2327,954,1026
2328,955,1025
2329,956,1023
2330,958,1016
2331,957,1016
2332,956,1016
2333,956,1019
2334,953,1016
2335,955,1015
2336,957,1014
2337,957,1017
2338,954,1019
2339,958,1022
2340,958,1020
2341,958,1018
2342,960,1015
2343,960,1013
2344,957,1011
2345,957,1013
2346,959,1012
2347,960,1008
2348,961,1008
2349,962,1007
2350,964,1009
2351,966,1011
2352,965,1008
2353,965,1005
2354,966,1000
2355,967,1003
2356,967,1002
2357,967,1003
2358,966,1003
2359,967,1000
2360,971,1001
2361,973,1001
2362,975,1007
2363,977,1006
2364,977,1003
2365,977,999
2366,976,996
2367,975,996
2368,976,1000
2369,976,1000
2370,977,998
2371,978,996
2372,979,996
2373,977,999
2374,980,1003
2375,979,1005
2376,978,1003
2377,978,1001
2378,980,998
2379,975,1001
2380,977,1000
2381,976,1003
2382,979,1003
2383,982,1001
2384,984,1005
2385,988,1011
2386,990,1018
2387,993,1024
2388,996,1024
2389,997,1023
2390,994,1019
2391,993,1019
2392,991,1024
2393,989,1025
2394,988,1025
2395,990,1026
2396,990,1025
2397,990,1030
2398,992,1031
2399,993,1032
2400,992,1032
2401,992,1030
2402,991,1028
2403,988,1028
2404,985,1026
2405,984,1031
2406,982,1034
2407,983,1029
2408,982,1030
2409,983,1027
2410,984,1030
2411,987,1031
2412,987,1035
2413,989,1031
2414,988,1028
2415,986,1024
2416,984,1022
2417,983,1028
2418,978,1028
2419,982,1026
2420,982,1026
2421,984,1027
2422,984,1028
2423,987,1032
2424,988,1032
2425,986,1030
2426,990,1028
2427,988,1025
2428,987,1024
2429,984,1027
2430,983,1033
2431,983,1032
2432,985,1030
2433,985,1028
2434,986,1028
2435,987,1033
2436,987,1035
2437,989,1036
2438,991,1032
2439,990,1027
2440,990,1026
2441,986,1028
2442,985,1031
2443,982,1030
2444,984,1031
2445,986,1028
2446,986,1031
2447,986,1037
2448,988,1037
2449,988,1037
2450,986,1034
2451,985,1031
2452,986,1028
2453,984,1029
2454,983,1030
2455,984,1032
2456,984,1033
2457,986,1030
2458,988,1029
2459,991,1031
2460,987,1034
2461,985,1033
2462,987,1031
2463,988,1027
2464,989,1026
2465,990,1029
2466,991,1035
2467,990,1041
2468,991,1043
2469,995,1044
2470,1000,1042
2471,1002,1046
2472,1002,1046
2473,1000,1048
2474,1002,1044
2475,1002,1040
2476,1005,1035
2477,1010,1033
2478,1015,1034
2479,1018,1036
2480,1021,1036
2481,1023,1035
2482,1024,1033
2483,1022,1033
2484,1022,1034
2485,1022,1035
2486,1018,1034
2487,1016,1028
2488,1013,1023
2489,1008,1021
2490,1002,1026
2491,999,1028
2492,994,1029
2493,992,1029
2494,992,1028
2495,992,1029
2496,987,1029
2497,986,1031
2498,981,1027
2499,977,1023
2500,979,1020
2501,976,1020
2502,971,1022
2503,971,1027
2504,972,1027
2505,972,1026
2506,974,1023
2507,975,1022
2508,975,1026
2509,976,1029
2510,975,1028
2511,973,1020
2512,972,1018
2513,970,1019
2514,967,1019
2515,964,1018
2516,962,1020
2517,963,1019
2518,972,1021
2519,987,1022
2520,1006,1023
2521,1037,1018
2522,1078,1013
2523,1120,1006
2524,1169,1011
2525,1219,1023
2526,1266,1045
2527,1303,1074
2528,1314,1103
2529,1303,1124
2530,1263,1141
2531,1206,1140
2532,1135,1123
2533,1074,1091
2534,1020,1054
2535,982,1017
2536,960,995
2537,950,992
2538,955,995
2539,962,1007
2540,971,1015
2541,976,1021
2542,976,1026
2543,976,1029
2544,969,1030
2545,964,1026
2546,960,1020
2547,960,1017
2548,960,1015
2549,960,1016
2550,961,1020
2551,961,1022
2552,961,1022
2553,959,1021
2554,957,1022
2555,959,1024
2556,959,1024
2557,959,1022
2558,960,1019
2559,962,1016
2560,961,1017
2561,961,1021
2562,962,1020
2563,960,1017
2564,960,1015
2565,962,1017
2566,961,1021
2567,963,1022
2568,963,1021
2569,965,1021
2570,963,1018
2571,965,1017
2572,964,1016
2573,965,1015
2574,965,1014
2575,966,1011
2576,965,1013
2577,967,1016
2578,966,1017
2579,966,1017
2580,970,1013
2581,970,1011
2582,972,1010
2583,972,1008
2584,974,1008
2585,974,1003
2586,973,1000
2587,971,1003
2588,974,1007
2589,974,1009
2590,976,1011
2591,977,1012
2592,980,1005
2593,978,1005
2594,981,1006
2595,981,1004
2596,981,1002
2597,981,996
2598,982,992
2599,983,993
2600,984,996
2601,984,1000
2602,983,998
2603,986,999
2604,986,998
2605,987,997
2606,987,998
2607,986,1000
2608,986,995
2609,986,995
2610,985,998
2611,985,1000
2612,987,1003
2613,987,1003
2614,988,1002
2615,991,1001
2616,993,1003
2617,994,1009
2618,996,1008
2619,996,1012
2620,998,1010
2621,1000,1011
2622,1001,1014
2623,1002,1018
2624,1005,1023
2625,1006,1023
2626,1008,1027
2627,1009,1026
2628,1008,1028
2629,1007,1035
2630,1005,1036
2631,1003,1031
2632,1002,1030
2633,1000,1028
2634,999,1029
2635,1000,1033
2636,1001,1033
2637,1000,1030
2638,1002,1029
2639,1006,1030
2640,1004,1034
2641,1002,1034
2642,1001,1036
2643,1000,1033
2644,998,1029
2645,997,1030
2646,995,1032
2647,996,1030
2648,998,1031
2649,1000,1031
2650,1004,1033
2651,1004,1035
2652,1004,1034
2653,1003,1034
2654,1004,1030
2655,1003,1030
2656,1002,1028
2657,1000,1030
2658,999,1031
2659,998,1028
2660,999,1028
2661,1000,1030
2662,1004,1034
2663,1007,1037
2664,1007,1034
2665,1007,1031
2666,1010,1028
2667,1002,1028
2668,1003,1031
2669,1001,1032
2670,1001,1030
2671,1003,1029
2672,1003,1029
2673,1006,1030
2674,1008,1034
2675,1009,1034
2676,1011,1035
2677,1010,1032
2678,1010,1028
2679,1008,1030
2680,1005,1031
2681,1003,1030
2682,1004,1029
2683,999,1025
2684,1000,1027
2685,1000,1030
2686,1002,1037
2687,1007,1035
2688,1007,1035
2689,1004,1033
2690,1004,1032
2691,1004,1035
2692,1002,1033
2693,1002,1033
2694,1005,1031
2695,1006,1028
2696,1008,1032
2697,1014,1038
2698,1014,1046
2699,1019,1049
2700,1019,1048
2701,1021,1045
2702,1021,1041
2703,1022,1039
2704,1020,1044
2705,1022,1043
2706,1023,1039
2707,1030,1035
2708,1033,1029
2709,1033,1034
2710,1034,1038
2711,1033,1041
2712,1034,1042
2713,1034,1038
2714,1037,1031
2715,1036,1030
2716,1034,1030
2717,1032,1032
2718,1027,1030
2719,1024,1026
2720,1018,1026
2721,1015,1027
2722,1011,1031
2723,1006,1036
2724,1004,1035
2725,999,1030
2726,997,1024
2727,991,1021
2728,992,1024
2729,988,1024
2730,987,1025
2731,986,1024
2732,989,1025
2733,990,1023
2734,989,1025
2735,987,1030
2736,988,1031
2737,988,1032
2738,990,1025
2739,987,1022
2740,986,1021
2741,983,1021
2742,983,1023
2743,982,1025
2744,985,1025
2745,985,1022
2746,985,1018
2747,985,1022
2748,985,1026
2749,993,1030
2750,1007,1030
2751,1028,1024
2752,1055,1018
2753,1090,1016
2754,1131,1014
2755,1178,1020
2756,1232,1031
2757,1281,1043
2758,1320,1064
2759,1341,1085
2760,1333,1107
2761,1303,1121
2762,1251,1127
2763,1188,1113
2764,1126,1087
2765,1067,1059
2766,1020,1034
2767,992,1012
2768,974,1000
2769,973,997
2770,973,1001
2771,982,1009
2772,991,1023
2773,991,1032
2774,988,1035
2775,982,1028
2776,976,1020
2777,966,1017
2778,962,1020
2779,959,1023
2780,962,1025
2781,961,1026
2782,965,1026
2783,969,1024
2784,970,1022
2785,970,1022
2786,968,1022
2787,966,1020
2788,963,1017
2789,963,1015
2790,962,1018
2791,962,1021
2792,960,1023
2793,962,1021
2794,963,1020
2795,964,1020
2796,963,1023
2797,964,1024
2798,963,1022
2799,967,1018
2800,967,1015
2801,964,1015
2802,963,1018
2803,962,1018
2804,962,1018
2805,961,1016
2806,962,1017
2807,964,1015
2808,964,1017
2809,965,1016
2810,966,1012
2811,965,1011
2812,966,1007
2813,965,1009
2814,965,1011
2815,964,1010
2816,965,1012
2817,967,1010
2818,967,1011
2819,967,1014
2820,971,1013
2821,972,1012
2822,974,1004
2823,974,1002
2824,972,997
2825,973,1000
2826,971,998
2827,971,995
2828,973,994
2829,976,995
2830,977,1001
2831,978,1004
2832,980,1003
2833,979,1000
2834,978,995
2835,977,994
2836,974,995
2837,979,996
2838,979,996
2839,981,995
2840,979,994
2841,983,997
2842,979,999
2843,980,1000
2844,982,999
2845,981,994
2846,983,993
2847,980,998
2848,979,997
2849,980,1000
2850,983,997
2851,985,998
2852,987,999
2853,989,1004
2854,991,1012
2855,991,1016
2856,992,1018
2857,992,1020
2858,989,1019
2859,990,1023
2860,988,1023
2861,987,1025
2862,986,1022
2863,990,1021
2864,991,1023
2865,992,1027
2866,992,1032
2867,988,1032
2868,987,1029
2869,985,1024
2870,986,1024
2871,984,1025
2872,982,1026
2873,982,1026
2874,981,1023
2875,983,1023
2876,982,1024
2877,987,1028
2878,986,1032
2879,989,1031
2880,987,1027
2881,987,1024
2882,984,1027
2883,982,1026
2884,980,1027
2885,978,1027
2886,980,1024
2887,978,1022
2888,978,1024
2889,982,1028
2890,984,1031
2891,986,1030
2892,988,1028
2893,987,1025
2894,986,1025
2895,982,1023
2896,983,1025
2897,977,1023
2898,980,1021
2899,981,1023
2900,982,1026
2901,982,1031
2902,986,1035
2903,988,1031
2904,989,1028
2905,989,1023
2906,986,1023
2907,985,1023
2908,983,1024
2909,980,1021
2910,979,1019
2911,981,1019
2912,980,1023
2913,981,1027
2914,981,1030
2915,984,1027
2916,984,1026
2917,987,1027
2918,984,1026
2919,981,1031
2920,981,1028
2921,979,1025
2922,979,1019
2923,978,1019
2924,976,1019
2925,979,1024
2926,982,1030
2927,984,1028
2928,987,1028
2929,988,1026
2930,988,1030
2931,988,1031
2932,988,1032
2933,989,1031
2934,989,1032
2935,991,1033
2936,991,1037
2937,992,1042
2938,994,1043
2939,997,1039
2940,1001,1036
2941,1005,1035
2942,1011,1033
2943,1014,1033
2944,1014,1031
2945,1012,1027
2946,1011,1020
2947,1009,1020
2948,1006,1024
2949,1006,1026
2950,1004,1028
2951,1008,1026
2952,1009,1022
2953,1005,1023
2954,1002,1020
2955,997,1023
2956,992,1019
2957,986,1020
2958,981,1019
2959,976,1024
2960,975,1027
2961,972,1027
2962,970,1025
2963,969,1021
2964,969,1016
2965,968,1015
2966,967,1019
2967,964,1018
2968,964,1021
2969,963,1017
2970,964,1015
2971,960,1013
2972,960,1019
2973,960,1023
2974,961,1025
2975,961,1024
2976,962,1021
2977,961,1017
2978,961,1020
2979,958,1018
2980,953,1018
2981,952,1014
2982,951,1014
2983,956,1016
2984,968,1019
2985,986,1020
2986,1009,1020
2987,1039,1014
2988,1078,1006
2989,1122,1004
2990,1170,1009
2991,1220,1019
2992,1263,1034
2993,1299,1051
2994,1313,1070
2995,1297,1089
2996,1264,1104
2997,1208,1111
2998,1149,1103
2999,1090,1081
3000,1035,1051
3001,995,1019
3002,966,997
3003,953,989
3004,947,989
3005,950,999
3006,954,1008
3007,959,1013
3008,958,1016
3009,957,1017
3010,954,1021
3011,950,1022
3012,948,1022
3013,946,1017
3014,945,1013
3015,942,1015
3016,940,1015
3017,938,1016
3018,938,1017
3019,938,1011
3020,940,1012
3021,941,1010
3022,941,1018
3023,942,1021
3024,944,1023
3025,943,1022
3026,942,1016
3027,941,1015
3028,941,1013
3029,938,1013
3030,936,1014
3031,937,1013
3032,938,1008
3033,940,1009
3034,940,1013
3035,942,1017
3036,943,1018
3037,946,1014
3038,947,1009
3039,945,1008
3040,944,1010
3041,941,1007
3042,940,1010
3043,939,1011
3044,940,1008
3045,944,1010
3046,942,1011
3047,945,1014
3048,946,1016
3049,946,1013
3050,948,1005
3051,946,1001
3052,947,999
3053,947,1003
3054,947,1002
3055,947,1004
3056,947,1002
3057,947,999
3058,947,1001
3059,949,1001
3060,949,1003
3061,951,1001
3062,953,996
3063,951,992
3064,953,990
3065,953,990
3066,953,993
3067,954,992
3068,955,991
3069,957,988
3070,957,991
3071,957,994
3072,958,993
3073,960,990
3074,959,987
3075,960,984
3076,958,983
3077,959,986
3078,958,987
3079,957,988
3080,959,987
3081,961,987
3082,962,992
3083,963,995
3084,963,995
3085,963,995
3086,964,994
3087,963,993
3088,962,995
3089,964,996
3090,964,999
3091,966,998
3092,969,998
3093,971,1001
3094,973,1009
3095,971,1014
3096,975,1018
3097,973,1019
3098,972,1016
3099,971,1013
3100,969,1016
3101,966,1018
3102,967,1022
3103,967,1020
3104,969,1018
3105,968,1021
3106,969,1024
3107,968,1026
3108,967,1027
3109,966,1023
3110,967,1018
3111,963,1018
3112,962,1021
3113,961,1021
3114,963,1019
3115,965,1017
3116,965,1017
3117,965,1018
3118,965,1022
3119,965,1026
3120,963,1025
3121,964,1022
3122,965,1021
3123,963,1020
3124,963,1021
3125,960,1019
3126,959,1016
3127,959,1014
3128,962,1016
3129,965,1022
3130,965,1025
3131,966,1023
3132,966,1022
3133,967,1020
3134,966,1018
3135,965,1021
3136,962,1020
3137,960,1019
3138,961,1018
3139,960,1017
3140,959,1020
3141,965,1022
3142,965,1024
3143,964,1020
3144,968,1020
3145,966,1020
3146,966,1021
3147,965,1024
3148,960,1022
3149,961,1018
3150,962,1017
3151,962,1018
3152,963,1019
3153,964,1020
3154,966,1022
3155,968,1023
3156,969,1020
3157,967,1022
3158,967,1022
3159,962,1023
3160,962,1019
3161,961,1018
3162,960,1014
3163,960,1018
3164,962,1024
3165,966,1027
3166,969,1028
3167,974,1027
3168,976,1031
3169,977,1034
3170,979,1036
3171,978,1034
3172,978,1030
3173,976,1029
3174,977,1027
3175,979,1028
3176,986,1026
3177,992,1025
3178,996,1025
3179,1001,1023
3180,1001,1022
3181,999,1025
3182,996,1023
3183,994,1021
3184,990,1017
3185,989,1018
3186,983,1015
3187,980,1016
3188,978,1019
3189,976,1018
3190,975,1015
3191,972,1018
3192,970,1018
3193,967,1021
3194,962,1023
3195,959,1017
3196,955,1012
3197,949,1010
3198,946,1013
3199,944,1016
3200,943,1015
3201,946,1018
3202,945,1016
3203,949,1016
3204,950,1018
3205,949,1020
3206,950,1019
3207,948,1014
3208,946,1009
3209,944,1008
3210,944,1011
3211,942,1013
3212,940,1010
3213,940,1009
3214,939,1006
3215,936,1005
3216,940,1007
3217,947,1013
3218,962,1013
3219,982,1009
3220,1012,1002
3221,1047,997
3222,1091,998
3223,1142,1007
3224,1195,1020
3225,1245,1037
3226,1279,1060
3227,1294,1085
3228,1278,1109
3229,1238,1125
3230,1179,1121
3231,1112,1099
3232,1050,1067
3233,997,1032
3234,960,1004
3235,939,990
3236,935,987
3237,937,988
3238,944,999
3239,951,1009
3240,954,1020
3241,952,1022
3242,945,1021
3243,938,1017
3244,934,1008
3245,929,1008
3246,928,1012
3247,928,1015
3248,930,1015
3249,933,1013
3250,936,1011
3251,935,1007
3252,934,1010
3253,931,1014
3254,931,1016
3255,932,1014
3256,930,1008
3257,929,1008
3258,928,1008
3259,927,1010
3260,927,1012
3261,928,1008
3262,928,1011
3263,932,1009
3264,935,1011
3265,933,1012
3266,934,1013
3267,935,1009
3268,935,1005
3269,933,1003
3270,928,1003
3271,929,1006
3272,930,1009
3273,932,1010
3274,932,1005
3275,934,1006
3276,934,1006
3277,935,1008
3278,937,1008
3279,937,1004
3280,937,1001
3281,939,997
3282,938,997
3283,936,1002
3284,937,1004
3285,937,1006
3286,937,1003
3287,940,1001
3288,940,997
3289,941,1000
3290,941,1000
3291,943,997
3292,943,995
3293,944,989
3294,944,990
3295,945,992
3296,947,996
3297,947,994
3298,950,994
3299,950,989
3300,952,984
3301,951,986
3302,950,988
3303,949,988
3304,949,987
3305,950,984
3306,953,982
3307,953,984
3308,956,989
3309,956,991
3310,956,995
3311,958,994
3312,956,988
3313,956,986
3314,953,988
3315,952,988
3316,952,987
3317,951,986
3318,952,983
3319,952,982
3320,952,986
3321,957,994
3322,958,995
3323,962,997
3324,965,998
3325,965,997
3326,967,999
3327,968,1004
3328,966,1006
3329,965,1008
3330,965,1009
3331,966,1008
3332,968,1014
3333,966,1017
3334,966,1023
3335,969,1027
3336,974,1024
3337,970,1021
3338,972,1020
3339,970,1019
3340,968,1020
3341,964,1019
3342,961,1018
3343,962,1017
3344,963,1016
3345,964,1021
3346,965,1023
3347,965,1023
3348,967,1026
3349,965,1022
3350,965,1020
3351,964,1019
3352,963,1022
3353,962,1025
3354,958,1023
3355,958,1022
3356,959,1019
3357,959,1017
3358,959,1021
3359,959,1024
3360,963,1024
3361,964,1023
3362,966,1020
3363,967,1015
3364,965,1017
3365,962,1019
3366,962,1020
3367,963,1020
3368,964,1019
3369,965,1021
3370,965,1021
3371,966,1027
3372,965,1029
3373,964,1026
3374,967,1019
3375,966,1016
3376,967,1017
3377,964,1020
3378,963,1021
3379,966,1023
3380,966,1022
3381,967,1022
3382,966,1024
3383,967,1028
3384,966,1026
3385,967,1023
3386,967,1017
3387,966,1016
3388,964,1017
3389,964,1021
3390,965,1019
3391,964,1020
3392,963,1020
3393,967,1023
3394,965,1024
3395,970,1029
3396,970,1027
3397,967,1025
3398,969,1020
3399,969,1020
3400,965,1021
3401,965,1023
3402,970,1023
3403,971,1021
3404,973,1022
3405,976,1026
3406,977,1034
3407,981,1035
3408,982,1035
3409,983,1034
3410,986,1033
3411,986,1034
3412,984,1034
3413,990,1033
3414,990,1030
3415,998,1027
3416,1002,1026
3417,1003,1027
3418,1004,1035
3419,1002,1034
3420,1001,1030
3421,1001,1025
3422,999,1023
3423,997,1023
3424,992,1021
3425,988,1016
3426,984,1017
3427,981,1017
3428,976,1021
3429,975,1027
3430,975,1030
3431,972,1026
3432,970,1020
3433,966,1019
3434,962,1020
3435,959,1020
3436,957,1017
3437,955,1017
3438,952,1014
3439,953,1015
3440,953,1017
3441,954,1023
3442,954,1023
3443,958,1023
3444,960,1018
3445,957,1016
3446,958,1017
3447,953,1019
3448,951,1017
3449,948,1012
3450,947,1010
3451,944,1007
3452,946,1011
3453,948,1017
3454,960,1021
3455,977,1022
3456,998,1017
3457,1032,1011
3458,1073,1008
3459,1121,1008
3460,1173,1013
3461,1222,1026
3462,1271,1048
3463,1301,1074
3464,1303,1104
3465,1280,1125
3466,1237,1134
3467,1175,1125
3468,1110,1101
3469,1045,1070
3470,1000,1039
3471,965,1015
3472,945,995
3473,939,984
3474,941,985
3475,946,996
3476,951,1009
3477,958,1019
3478,960,1024
3479,956,1023
3480,953,1018
3481,951,1017
3482,945,1015
3483,943,1018
3484,941,1019
3485,941,1017
3486,937,1014
3487,941,1009
3488,942,1012
3489,941,1014
3490,942,1018
3491,943,1019
3492,944,1015
3493,946,1014
3494,944,1013
3495,944,1017
3496,945,1018
3497,943,1014
3498,941,1012
3499,942,1010
3500,943,1012
3501,941,1017
3502,939,1020
3503,944,1021
3504,945,1017
3505,948,1011
3506,948,1010
3507,946,1008
3508,946,1009
3509,947,1010
3510,947,1007
3511,946,1005
3512,945,1008
3513,944,1010
3514,947,1015
3515,947,1014
3516,950,1012
3517,950,1012
3518,951,1011
3519,947,1009
3520,947,1006
3521,947,1005
3522,949,1000
3523,952,997
3524,951,1001
3525,954,1006
3526,957,1007
3527,960,1008
3528,961,1004
3529,961,1002
3530,960,1001
3531,959,999
3532,956,996
3533,957,995
3534,958,991
3535,960,989
3536,961,992
3537,963,997
3538,964,999
3539,966,1001
3540,968,997
3541,968,996
3542,966,995
3543,964,995
3544,964,998
3545,964,994
3546,964,993
3547,965,991
3548,969,992
3549,967,997
3550,967,1000
3551,971,1000
3552,970,1001
3553,969,997
3554,970,997
3555,970,997
3556,968,1000
3557,969,997
3558,970,999
3559,973,1000
3560,977,1006
3561,980,1011
3562,984,1020
3563,985,1023
3564,990,1021
3565,990,1017
3566,989,1017
3567,986,1021
3568,982,1024
3569,983,1026
3570,980,1023
3571,985,1022
3572,985,1022
3573,987,1026
3574,985,1031
3575,986,1033
3576,987,1030
3577,986,1029
3578,986,1027
3579,982,1028
3580,982,1032
3581,977,1034
3582,978,1032
3583,976,1031
3584,977,1029
3585,978,1029
3586,979,1032
3587,979,1035
3588,982,1035
3589,982,1033
3590,983,1028
3591,983,1023
3592,982,1024
3593,981,1026
3594,979,1029
3595,980,1028
3596,977,1027
3597,982,1026
3598,983,1030
3599,983,1034
3600,984,1036
3601,984,1038
3602,983,1031
3603,981,1029
3604,983,1027
3605,980,1027
3606,981,1029
3607,982,1031
3608,985,1030
3609,981,1029
3610,985,1028
3611,981,1028
3612,981,1031
3613,982,1033
3614,982,1031
3615,983,1027
3616,981,1025
3617,982,1024
3618,982,1028
3619,983,1029
3620,984,1028
3621,985,1032
3622,985,1030
3623,984,1033
3624,986,1033
3625,984,1033
3626,984,1035
3627,982,1030
3628,980,1026
3629,981,1023
3630,979,1026
3631,979,1030
3632,980,1031
3633,983,1031
3634,986,1028
3635,985,1028
3636,987,1030
3637,984,1032
3638,983,1034
3639,981,1032
3640,982,1029
3641,981,1026
3642,979,1029
3643,982,1034
3644,985,1039
3645,988,1045
3646,990,1044
3647,994,1043
3648,996,1040
3649,997,1042
3650,998,1043
3651,997,1043
3652,1002,1040
3653,1004,1034
3654,1008,1032
3655,1007,1031
3656,1010,1033
3657,1008,1034
3658,1010,1035
3659,1010,1032
3660,1011,1032
3661,1011,1030
3662,1011,1030
3663,1007,1032
3664,1006,1027
3665,1003,1024
3666,996,1022
3667,991,1024
3668,987,1030
3669,983,1034
3670,979,1033
3671,978,1031
3672,975,1027
3673,975,1028
3674,970,1028
3675,968,1028
3676,966,1022
3677,965,1019
3678,961,1019
3679,960,1020
3680,960,1022
3681,962,1027
3682,962,1027
3683,963,1025
3684,963,1026
3685,962,1024
3686,960,1025
3687,963,1024
3688,958,1019
3689,956,1014
3690,954,1014
3691,950,1014
3692,949,1018
3693,952,1025
3694,961,1030
3695,979,1028
3696,1000,1026
3697,1029,1021
3698,1068,1016
3699,1110,1013
3700,1161,1014
3701,1212,1018
3702,1258,1030
3703,1295,1049
3704,1314,1075
3705,1310,1097
3706,1280,1114
3707,1227,1116
3708,1160,1103
3709,1092,1082
3710,1031,1054
3711,988,1026
3712,961,1006
3713,947,994
3714,944,991
3715,949,998
3716,956,1011
3717,959,1022
3718,963,1026
3719,959,1026
3720,955,1023
3721,949,1021
3722,941,1021
3723,936,1019
3724,937,1016
3725,936,1016
3726,936,1014
3727,937,1018
3728,937,1023
3729,937,1024
3730,935,1024
3731,939,1022
3732,940,1021
3733,940,1018
3734,938,1024
3735,937,1025
3736,936,1020
3737,935,1018
3738,933,1015
3739,931,1016
3740,931,1019
3741,932,1022
3742,933,1020
3743,937,1016
3744,939,1014
3745,940,1017
3746,939,1017
3747,937,1017
3748,933,1014
3749,932,1014
3750,933,1015
3751,931,1016
3752,931,1018
3753,933,1018
3754,936,1015
3755,938,1011
3756,940,1014
3757,940,1015
3758,942,1015
3759,941,1011
3760,940,1006
3761,942,1004
3762,939,1002
3763,937,1006
3764,938,1010
3765,938,1010
3766,941,1007
3767,941,1008
3768,946,1010
3769,946,1006
3770,945,1008
3771,945,1001
3772,948,996
3773,946,993
3774,946,995
3775,946,997
3776,947,1000
3777,947,999
3778,949,998
3779,950,996
3780,951,999
3781,953,999
3782,953,998
3783,951,996
3784,953,994
3785,954,990
3786,953,990
3787,949,993
3788,950,997
3789,951,998
3790,950,995
3791,952,997
3792,953,1001
3793,953,1003
3794,952,1004
3795,952,1002
3796,952,999
3797,950,998
3798,951,1002
3799,955,1008
3800,956,1012
3801,959,1015
3802,963,1014
3803,967,1018
3804,966,1021
3805,965,1026
3806,964,1027
3807,963,1025
3808,962,1023
3809,960,1022
3810,960,1023
3811,959,1026
3812,958,1030
3813,960,1030
3814,960,1030
3815,960,1034
3816,961,1036
3817,959,1037
3818,957,1035
3819,955,1027
3820,955,1026
3821,951,1025
3822,951,1026
3823,950,1028
3824,952,1029
3825,955,1028
3826,955,1031
3827,958,1034
3828,957,1036
3829,956,1039
3830,956,1034
3831,954,1027
3832,953,1026
3833,952,1023
3834,949,1029
3835,947,1030
3836,950,1031
3837,951,1028
3838,952,1028
3839,954,1033
3840,957,1036
3841,956,1035
3842,956,1031
3843,957,1026
3844,956,1021
3845,954,1023
3846,950,1026
3847,951,1028
3848,952,1028
3849,951,1027
3850,953,1027
3851,955,1031
3852,955,1036
3853,954,1036
3854,957,1032
3855,957,1028
3856,954,1024
3857,953,1025
3858,951,1028
3859,951,1029
3860,950,1031
3861,953,1025
3862,953,1027
3863,954,1030
3864,955,1032
3865,957,1036
3866,956,1031
3867,956,1029
3868,955,1026
3869,953,1028
3870,951,1027
3871,950,1031
3872,948,1028
3873,951,1029
3874,953,1030
3875,953,1034
3876,959,1039
3877,961,1044
3878,964,1043
3879,965,1041
3880,966,1041
3881,966,1038
3882,965,1039
3883,967,1042
3884,969,1042
3885,973,1039
3886,977,1039
3887,980,1041
3888,985,1040
3889,986,1040
3890,987,1035
3891,985,1029
3892,984,1024
3893,982,1025
3894,980,1029
3895,981,1034
3896,981,1032
3897,980,1031
3898,978,1027
3899,974,1027
3900,969,1028
3901,963,1029
3902,958,1031
3903,956,1026
3904,952,1026
3905,949,1026
3906,945,1027
3907,941,1029
3908,941,1029
3909,941,1027
3910,938,1024
3911,938,1026
3912,938,1028
3913,935,1029
3914,935,1027
3915,934,1025
3916,932,1023
3917,930,1023
3918,929,1025
3919,928,1027
3920,931,1028
3921,933,1027
3922,929,1022
3923,930,1023
3924,929,1024
3925,926,1023
3926,922,1023
3927,928,1021
3928,935,1019
3929,947,1021
3930,962,1023
3931,989,1020
3932,1026,1016
3933,1076,1012
3934,1129,1013
3935,1182,1024
3936,1232,1040
3937,1271,1062
3938,1291,1080
3939,1284,1095
3940,1250,1104
3941,1194,1109
3942,1125,1097
3943,1056,1074
3944,999,1048
3945,959,1018
3946,934,1000
3947,926,993
3948,927,1001
3949,930,1012
3950,935,1022
3951,936,1025
3952,933,1024
3953,926,1024
3954,920,1025
3955,915,1026
3956,912,1027
3957,910,1023
3958,911,1022
3959,913,1024
3960,915,1027
3961,918,1028
3962,915,1026
3963,915,1023
3964,916,1019
3965,914,1018
3966,909,1018
3967,908,1023
3968,908,1025
3969,910,1024
3970,909,1024
3971,913,1024
3972,915,1023
3973,916,1024
3974,915,1021
3975,917,1021
3976,914,1018
3977,915,1017
3978,913,1019
3979,911,1022
3980,910,1026
3981,911,1024
3982,914,1021
3983,916,1021
3984,918,1022
3985,916,1021
3986,916,1022
3987,918,1019
3988,919,1014
3989,918,1012
3990,918,1012
3991,915,1014
3992,916,1015
3993,916,1010
3994,918,1013
3995,920,1015
3996,922,1017
3997,921,1019
3998,924,1017
3999,923,1012
4000,925,1009
4001,926,1005
4002,925,1008
4003,925,1007
4004,925,1006
4005,926,1005
4006,925,1001
4007,927,1004
4008,928,1007
4009,931,1003
4010,932,1004
4011,931,998
4012,932,996
4013,932,996
4014,931,998
4015,933,997
4016,933,997
4017,934,996
4018,935,998
4019,935,1004
4020,937,1007
4021,936,1007
4022,938,1002
4023,937,999
4024,934,996
4025,934,996
4026,933,1000
4027,930,1001
4028,931,1003
4029,934,1004
4030,939,1006
4031,941,1012
4032,942,1016
4033,944,1019
4034,945,1020
4035,945,1017
4036,944,1019
4037,944,1022
4038,942,1027
4039,943,1030
4040,941,1027
4041,945,1029
4042,945,1033
4043,945,1037
4044,945,1039
4045,946,1035
4046,946,1033
4047,944,1033
4048,942,1032
4049,941,1037
4050,937,1034
4051,935,1032
4052,942,1032
4053,942,1033
4054,941,1036
4055,939,1038
4056,943,1039
4057,941,1036
4058,941,1034
4059,938,1034
4060,937,1034
4061,935,1034
4062,935,1030
4063,937,1027
4064,938,1029
4065,938,1034
4066,941,1037
4067,942,1037
4068,945,1036
4069,944,1034
4070,944,1034
4071,940,1035
4072,938,1036
4073,935,1034
4074,937,1031
4075,934,1027
4076,937,1029
4077,940,1034
4078,940,1035
4079,940,1038
4080,942,1037
4081,942,1033
4082,941,1037
4083,941,1038
4084,940,1039
4085,939,1034
4086,940,1034
4087,938,1030
4088,939,1032
4089,938,1038
4090,940,1039
4091,944,1039
4092,945,1036
4093,946,1032
4094,946,1035
4095,944,1037
4096,943,1032
4097,939,1029
4098,938,1030
4099,937,1032
4100,936,1036
4101,936,1040
4102,939,1041
4103,942,1040
4104,945,1038
4105,948,1040
4106,950,1043
4107,950,1043
4108,950,1044
4109,951,1040
4110,953,1039
4111,953,1044
4112,954,1045
4113,958,1048
4114,958,1047
4115,963,1049
4116,968,1046
4117,973,1047
4118,977,1045
4119,978,1043
4120,979,1036
4121,977,1031
4122,971,1031
4123,968,1032
4124,971,1037
4125,969,1036
4126,970,1032
4127,970,1029
4128,967,1031
4129,965,1034
4130,958,1031
4131,953,1032
4132,948,1030
4133,944,1029
4134,939,1031
4135,935,1033
4136,932,1036
4137,930,1034
4138,930,1033
4139,930,1033
4140,930,1032
4141,930,1037
4142,931,1035
4143,931,1031
4144,928,1028
4145,927,1026
4146,926,1026
4147,923,1031
4148,922,1028
4149,924,1029
4150,925,1025
4151,925,1026
4152,925,1030
4153,923,1030
4154,922,1030
4155,923,1027
4156,927,1024
4157,936,1024
4158,954,1023
4159,976,1022
4160,1012,1019
4161,1054,1018
4162,1109,1020
4163,1168,1033
4164,1224,1058
4165,1267,1082
4166,1289,1110
4167,1281,1127
4168,1249,1138
4169,1190,1138
4170,1119,1121
4171,1048,1090
4172,987,1055
4173,945,1024
4174,920,1001
4175,911,997
4176,911,1008
4177,919,1018
4178,924,1029
4179,930,1034
4180,928,1034
4181,925,1032
4182,919,1031
4183,913,1027
4184,911,1029
4185,910,1023
4186,913,1021
4187,913,1023
4188,915,1029
4189,913,1034
4190,914,1032
4191,912,1028
4192,911,1025
4193,911,1022
4194,906,1024
4195,906,1028
4196,910,1028
4197,911,1029
4198,912,1026
4199,914,1025
4200,914,1029
4201,912,1030
4202,912,1028
4203,913,1026
4204,909,1022
4205,909,1021
4206,910,1022
4207,912,1026
4208,915,1027
4209,916,1025
4210,915,1021
4211,920,1020
4212,920,1023
4213,920,1024
4214,919,1023
4215,919,1019
4216,919,1015
4217,919,1016
4218,917,1019
4219,915,1021
4220,916,1022
4221,919,1021
4222,923,1021
4223,925,1018
4224,926,1019
4225,926,1017
4226,926,1015
4227,928,1010
4228,927,1008
4229,927,1007
4230,926,1009
4231,924,1012
4232,927,1009
4233,929,1005
4234,932,1005
4235,933,1008
4236,937,1006
4237,935,1010
4238,937,1008
4239,938,1002
4240,938,999
4241,937,999
4242,935,1003
4243,934,1002
4244,932,1003
4245,934,1002
4246,938,1003
4247,941,1006
4248,942,1008
4249,942,1007
4250,943,1006
4251,943,1002
4252,940,1000
4253,939,999
4254,937,999
4255,932,1002
4256,934,1002
4257,939,1004
4258,941,1004
4259,947,1011
4260,950,1016
4261,953,1020
4262,952,1018
4263,954,1018
4264,955,1019
4265,953,1023
4266,952,1026
4267,950,1032
4268,951,1029
4269,954,1030
4270,955,1031
4271,957,1036
4272,957,1039
4273,958,1041
4274,959,1038
4275,958,1034
4276,956,1033
4277,955,1031
4278,954,1034
4279,949,1036
4280,949,1037
4281,950,1037
4282,950,1037
4283,951,1039
4284,950,1043
4285,951,1043
4286,949,1042
4287,948,1036
4288,949,1034
4289,948,1031
4290,950,1035
4291,948,1036
4292,948,1036
4293,951,1036
4294,953,1034
4295,953,1037
4296,953,1038
4297,951,1041
4298,951,1040
4299,953,1035
4300,952,1030
4301,953,1032
4302,952,1036
4303,952,1039
4304,952,1039
4305,953,1039
4306,953,1039
4307,956,1040
4308,956,1042
4309,955,1043
4310,954,1042
4311,954,1039
4312,953,1033
4313,952,1031
4314,953,1034
4315,953,1033
4316,954,1038
4317,955,1036
4318,956,1035
4319,959,1035
4320,958,1039
4321,957,1039
4322,957,1037
4323,955,1035
4324,956,1034
4325,957,1034
4326,955,1034
4327,955,1038
4328,954,1040
4329,956,1038
4330,958,1035
4331,959,1036
4332,961,1039
4333,959,1040
4334,955,1041
4335,956,1038
4336,957,1037
4337,956,1035
4338,959,1041
4339,961,1044
4340,963,1048
4341,963,1048
4342,969,1048
4343,972,1049
4344,974,1052
4345,976,1055
4346,975,1056
4347,980,1054
4348,983,1048
4349,986,1041
4350,987,1039
4351,990,1040
4352,988,1041
4353,991,1041
4354,991,1041
4355,989,1041
4356,991,1041
4357,992,1041
4358,993,1043
4359,992,1040
4360,988,1036
4361,984,1030
4362,978,1031
4363,974,1035
4364,968,1039
4365,965,1038
4366,962,1041
4367,960,1040
4368,959,1039
4369,955,1039
4370,954,1041
4371,954,1037
4372,952,1031
4373,947,1028
4374,947,1026
4375,946,1030
4376,944,1035
4377,942,1034
4378,943,1034
4379,948,1031
4380,947,1032
4381,949,1033
4382,945,1039
4383,949,1036
4384,948,1034
4385,949,1028
4386,947,1023
4387,943,1023
4388,938,1025
4389,939,1029
4390,943,1030
4391,954,1033
4392,974,1034
4393,1001,1031
4394,1036,1033
4395,1080,1031
4396,1128,1028
4397,1179,1033
4398,1230,1045
4399,1273,1068
4400,1300,1095
4401,1307,1121
4402,1287,1138
4403,1248,1143
4404,1188,1133
4405,1120,1110
4406,1053,1081
4407,1002,1048
4408,965,1021
4409,941,1003
4410,930,998
4411,932,1005
4412,939,1019
4413,947,1030
4414,953,1037
4415,956,1037
4416,955,1035
4417,948,1034
4418,941,1034
4419,936,1033
4420,929,1030
4421,927,1029
4422,928,1026
4423,928,1028
4424,926,1031
4425,930,1033
4426,933,1031
4427,935,1031
4428,936,1029
4429,936,1027
4430,934,1031
4431,934,1031
4432,932,1031
4433,930,1028
4434,930,1024
4435,929,1024
4436,930,1026
4437,932,1031
4438,933,1034
4439,935,1035
4440,937,1032
4441,937,1028
4442,937,1027
4443,933,1029
4444,933,1027
4445,934,1024
4446,929,1022
4447,931,1019
4448,934,1021
4449,934,1024
4450,932,1029
4451,936,1028
4452,939,1029
4453,942,1025
4454,942,1025
4455,941,1024
4456,938,1026
4457,940,1021
4458,938,1018
4459,939,1016
4460,939,1015
4461,940,1015
4462,941,1020
4463,942,1021
4464,946,1022
4465,946,1015
4466,947,1013
4467,949,1013
4468,948,1012
4469,946,1009
4470,945,1008
4471,944,1005
4472,942,1003
4473,946,1005
4474,948,1011
4475,948,1013
4476,952,1013
4477,952,1006
4478,956,1006
4479,957,1004
4480,956,1005
4481,956,1006
4482,955,1008
4483,954,1001
4484,954,1002
4485,953,1003
4486,955,1004
4487,952,1010
4488,953,1008
4489,952,1004
4490,954,1000
4491,955,1002
4492,955,1003
4493,956,1006
4494,957,1007
4495,957,1006
4496,960,1007
4497,962,1010
4498,961,1015
4499,963,1021
4500,965,1024
4501,968,1028
4502,970,1026
4503,970,1025
4504,968,1025
4505,969,1028
4506,967,1031
4507,965,1030
4508,969,1028
4509,969,1031
4510,970,1032
4511,974,1040
4512,974,1042
4513,971,1046
4514,973,1043
4515,969,1042
4516,969,1036
4517,966,1038
4518,966,1038
4519,965,1040
4520,964,1040
4521,963,1039
4522,965,1039
4523,968,1039
4524,968,1042
4525,968,1042
4526,969,1046
4527,968,1041
4528,966,1037
4529,964,1035
4530,962,1034
4531,961,1039
4532,962,1039
4533,963,1041
4534,965,1036
4535,967,1035
4536,970,1036
4537,970,1037
4538,970,1044
4539,970,1041
4540,970,1039
4541,968,1035
4542,967,1034
4543,964,1035
4544,963,1038
4545,962,1044
4546,963,1042
4547,967,1039
4548,969,1038
4549,971,1036
4550,972,1040
4551,971,1042
4552,972,1041
4553,971,1037
4554,971,1034
4555,969,1034
4556,966,1036
4557,965,1041
4558,968,1042
4559,969,1043
4560,971,1040
4561,971,1040
4562,971,1039
4563,974,1041
4564,970,1037
4565,970,1036
4566,971,1035
4567,972,1032
4568,970,1036
4569,970,1036
4570,968,1039
4571,969,1043
4572,969,1042
4573,970,1037
4574,970,1037
4575,969,1037
4576,969,1039
4577,966,1042
4578,967,1039
4579,969,1038
4580,970,1035
4581,972,1041
4582,975,1046
4583,978,1050
4584,978,1052
4585,978,1052
4586,979,1049
4587,981,1048
4588,983,1049
4589,982,1052
4590,981,1052
4591,986,1049
4592,990,1042
4593,994,1040
4594,1001,1039
4595,1002,1042
4596,1003,1043
4597,1002,1042
4598,1002,1039
4599,1000,1035
4600,998,1034
4601,998,1035
4602,995,1036
4603,993,1037
4604,994,1034
4605,992,1033
4606,987,1031
4607,984,1034
4608,983,1038
4609,978,1040
4610,975,1041
4611,971,1035
4612,967,1034
4613,961,1032
4614,955,1033
4615,953,1034
4616,950,1037
4617,951,1034
4618,953,1032
4619,954,1033
4620,957,1036
4621,956,1036
4622,952,1035
4623,951,1030
4624,950,1025
4625,948,1025
4626,946,1028
4627,942,1031
4628,943,1033
4629,943,1033
4630,941,1031
4631,940,1031
4632,941,1030
4633,940,1030
4634,943,1033
4635,949,1031
4636,962,1030
4637,980,1024
4638,1003,1021
4639,1035,1017
4640,1079,1019
4641,1127,1021
4642,1183,1027
4643,1236,1044
4644,1281,1061
4645,1314,1080
4646,1322,1102
4647,1303,1116
4648,1262,1120
4649,1202,1114
4650,1134,1095
4651,1066,1071
4652,1014,1046
4653,976,1025
4654,954,1009
4655,944,1002
4656,945,1004
4657,946,1014
4658,948,1026
4659,950,1032
4660,950,1031
4661,947,1028
4662,941,1026
4663,938,1023
4664,932,1028
4665,929,1026
4666,930,1027
4667,931,1029
4668,932,1029
4669,932,1033
4670,932,1034
4671,930,1036
4672,929,1033
4673,928,1026
4674,927,1023
4675,928,1024
4676,929,1026
4677,930,1030
4678,932,1031
4679,928,1029
4680,936,1026
4681,935,1025
4682,931,1027
4683,928,1028
4684,929,1026
4685,930,1023
4686,930,1021
4687,929,1021
4688,929,1020
4689,932,1026
4690,931,1024
4691,933,1024
4692,934,1024
4693,935,1024
4694,931,1028
4695,931,1027
4696,929,1020
4697,928,1016
4698,929,1014
4699,929,1012
4700,932,1016
4701,934,1020
4702,937,1015
4703,938,1016
4704,941,1016
4705,942,1017
4706,940,1018
4707,940,1016
4708,935,1012
4709,936,1005
4710,937,1003
4711,935,1004
4712,938,1007
4713,939,1010
4714,944,1006
4715,946,1006
4716,948,1010
4717,949,1009
4718,948,1008
4719,947,1004
4720,948,1000
4721,948,997
4722,948,997
4723,945,1000
4724,945,1001
4725,947,1000
4726,951,999
4727,953,998
4728,953,996
4729,953,1000
4730,952,1003
4731,952,1005
4732,950,999
4733,950,998
4734,947,1000
4735,948,1006
4736,949,1006
4737,951,1005
4738,956,1005
4739,957,1009
4740,958,1014
4741,960,1017
4742,963,1021
4743,965,1021
4744,965,1019
4745,962,1021
4746,963,1025
4747,961,1030
4748,962,1032
4749,962,1032
4750,961,1033
4751,961,1034
4752,963,1039
4753,961,1040
4754,964,1039
4755,960,1035
4756,960,1030
4757,961,1031
4758,959,1030
4759,957,1034
4760,957,1034
4761,960,1036
4762,962,1036
4763,959,1035
4764,960,1036
4765,961,1039
4766,960,1037
4767,958,1031
4768,957,1030
4769,957,1031
4770,954,1033
4771,952,1035
4772,955,1038
4773,956,1037
4774,958,1034
4775,960,1036
4776,962,1039
4777,961,1040
4778,962,1038
4779,959,1035
4780,959,1031
4781,954,1029
4782,954,1031
4783,954,1029
4784,958,1030
4785,960,1031
4786,962,1029
4787,962,1032
4788,964,1036
4789,962,1039
4790,963,1040
4791,961,1035
4792,962,1031
4793,960,1028
4794,956,1026
4795,956,1032
4796,953,1034
4797,955,1034
4798,958,1033
4799,961,1033
4800,964,1033
4801,965,1034
4802,963,1039
4803,963,1036
4804,961,1034
4805,960,1030
4806,959,1030
4807,957,1031
4808,957,1032
4809,958,1034
4810,960,1030
4811,961,1033
4812,963,1034
4813,964,1038
4814,964,1040
4815,964,1040
4816,962,1037
4817,964,1034
4818,963,1035
4819,965,1037
4820,966,1044
4821,967,1050
4822,969,1049
4823,972,1048
4824,977,1045
4825,979,1044
4826,982,1047
4827,982,1045
4828,985,1042
4829,989,1040
4830,993,1034
4831,994,1035
4832,992,1035
4833,991,1035
4834,990,1036
4835,991,1034
4836,992,1036
4837,992,1033
4838,991,1037
4839,988,1038
4840,988,1032
4841,984,1029
4842,978,1021
4843,974,1024
4844,968,1026
4845,964,1032
4846,963,1034
4847,962,1033
4848,959,1034
4849,952,1030
4850,948,1032
4851,948,1030
4852,945,1026
4853,946,1022
4854,946,1021
4855,944,1025
4856,945,1030
4857,943,1029
4858,943,1027
4859,943,1026
4860,942,1028
4861,942,1028
4862,941,1034
4863,941,1034
4864,939,1030
4865,939,1021
4866,935,1016
4867,933,1011
4868,934,1016
4869,936,1024
4870,942,1028
4871,957,1028
4872,975,1025
4873,998,1019
4874,1028,1014
4875,1067,1011
4876,1111,1014
4877,1167,1020
4878,1222,1033
4879,1272,1050
4880,1299,1078
4881,1305,1102
4882,1283,1121
4883,1236,1128
4884,1177,1119
4885,1112,1095
4886,1047,1061
4887,995,1034
4888,957,1011
4889,937,998
4890,930,993
4891,931,1000
4892,937,1009
4893,942,1021
4894,947,1025
4895,945,1030
4896,943,1026
4897,938,1025
4898,934,1022
4899,928,1023
4900,923,1026
4901,923,1026
4902,921,1025
4903,920,1023
4904,920,1022
4905,920,1026
4906,921,1029
4907,922,1029
4908,923,1030
4909,924,1022
4910,926,1019
4911,925,1018
4912,924,1020
4913,923,1020
4914,922,1020
4915,920,1020
4916,921,1019
4917,924,1019
4918,921,1022
4919,921,1026
4920,921,1026
4921,922,1026
4922,929,1021
4923,929,1021
4924,927,1021
4925,926,1023
4926,924,1020
4927,923,1018
4928,924,1015
4929,925,1015
4930,926,1018
4931,929,1022
4932,929,1023
4933,931,1019
4934,932,1016
4935,935,1015
4936,934,1013
4937,934,1014
4938,931,1013
4939,932,1010
4940,933,1007
4941,932,1007
4942,934,1012
4943,936,1016
4944,938,1016
4945,935,1014
4946,939,1008
4947,940,1007
4948,939,1001
4949,940,1003
4950,939,999
4951,940,999
4952,939,992
4953,943,999
4954,943,1000
4955,944,1001
4956,947,1004
4957,948,1002
4958,948,999
4959,948,999
4960,947,998
4961,947,997
4962,945,993
4963,944,992
4964,947,992
4965,946,997
4966,947,1001
4967,949,1006
4968,949,1002
4969,949,999
4970,949,999
4971,948,1000
4972,948,1003
4973,948,1004
4974,950,1001
4975,952,1003
4976,952,1006
4977,956,1012
4978,958,1016
4979,960,1021
4980,963,1021
4981,964,1022
4982,962,1025
4983,965,1028
4984,962,1029
4985,959,1028
4986,960,1026
4987,962,1025
4988,964,1029
4989,961,1031
4990,962,1034
4991,963,1038
4992,962,1035
4993,963,1033
4994,961,1034
4995,958,1035
4996,955,1036
4997,955,1032
4998,955,1030
4999,953,1028
5000,956,1033
5001,955,1036
5002,958,1037
5003,958,1031
5004,958,1033
5005,960,1031
5006,958,1032
5007,957,1032
5008,954,1031
5009,954,1029
5010,955,1029
5011,954,1030
5012,955,1032
5013,955,1035
5014,956,1033
5015,960,1030
5016,960,1032
5017,960,1031
5018,958,1032
5019,956,1032
5020,957,1029
5021,958,1027
5022,956,1026
5023,955,1029
5024,953,1034
5025,956,1034
5026,958,1032
5027,959,1033
5028,960,1032
5029,959,1036
5030,960,1034
5031,960,1032
5032,958,1028
5033,960,1026
5034,957,1027
5035,956,1029
5036,954,1028
5037,955,1030
5038,958,1028
5039,962,1030
5040,960,1037
5041,961,1038
5042,960,1036
5043,957,1033
5044,956,1032
5045,958,1032
5046,957,1035
5047,956,1037
5048,960,1038
5049,963,1037
5050,967,1039
5051,971,1043
5052,976,1045
5053,978,1046
5054,976,1041
5055,979,1041
5056,978,1039
5057,978,1038
5058,982,1040
5059,985,1036
5060,991,1031
5061,990,1029
5062,991,1034
5063,992,1038
5064,993,1037
5065,991,1035
5066,990,1034
5067,988,1030
5068,985,1027
5069,978,1025
5070,977,1026
5071,972,1023
5072,966,1023
5073,963,1024
5074,962,1027
5075,961,1032
5076,960,1035
5077,959,1031
5078,955,1027
5079,954,1026
5080,948,1028
5081,948,1029
5082,944,1028
5083,943,1024
5084,942,1023
5085,942,1024
5086,941,1028
5087,942,1030
5088,945,1031
5089,947,1027
5090,948,1026
5091,948,1026
5092,946,1027
5093,943,1025
5094,940,1019
5095,935,1015
5096,933,1011
5097,935,1017
5098,942,1024
5099,956,1027
5100,975,1028
5101,1008,1018
5102,1045,1010
5103,1089,1006
5104,1141,1018
5105,1188,1033
5106,1236,1053
5107,1273,1076
5108,1287,1099
5109,1281,1123
5110,1245,1140
5111,1190,1141
5112,1124,1124
5113,1063,1089
5114,1010,1054
5115,970,1021
5116,944,1001
5117,934,996
5118,933,999
5119,940,1008
5120,947,1018
5121,949,1028
5122,949,1033
5123,943,1037
5124,938,1034
5125,934,1029
5126,934,1025
5127,932,1023
5128,928,1023
5129,928,1025
5130,928,1023
5131,930,1018
5132,930,1020
5133,932,1021
5134,929,1024
5135,930,1027
5136,933,1027
5137,935,1022
5138,934,1022
5139,934,1021
5140,932,1023
5141,933,1022
5142,932,1020
5143,929,1017
5144,931,1017
5145,931,1021
5146,934,1024
5147,935,1027
5148,934,1025
5149,937,1025
5150,937,1022
5151,937,1021
5152,937,1022
5153,935,1019
5154,936,1019
5155,937,1014
5156,940,1010
5157,938,1010
5158,937,1015
5159,940,1019
5160,939,1020
5161,940,1014
5162,939,1013
5163,939,1013
5164,938,1015
5165,936,1016
5166,938,1015
5167,939,1009
5168,942,1007
5169,940,1006
5170,942,1008
5171,943,1011
5172,945,1010
5173,948,1008
5174,947,1006
5175,948,1002
5176,947,1002
5177,948,1001
5178,944,1002
5179,944,998
5180,948,994
5181,950,994
5182,949,998
5183,954,1003
5184,953,1006
5185,955,1004
5186,955,999
5187,954,994
5188,952,997
5189,948,995
5190,947,996
5191,949,995
5192,950,995
5193,953,994
5194,954,996
5195,956,1001
5196,959,1004
5197,957,1008
5198,960,1003
5199,960,1000
5200,955,998
5201,955,1000
5202,954,1005
5203,955,1008
5204,958,1010
5205,959,1007
5206,962,1013
5207,965,1016
5208,964,1020
5209,970,1024
5210,971,1022
5211,973,1024
5212,972,1023
5213,971,1030
5214,969,1031
5215,967,1032
5216,966,1029
5217,965,1029
5218,964,1027
5219,963,1031
5220,963,1034
5221,968,1038
5222,966,1038
5223,968,1033
5224,968,1030
5225,965,1029
5226,964,1032
5227,963,1035
5228,961,1035
5229,962,1034
5230,963,1034
5231,962,1038
5232,964,1039
5233,965,1038
5234,965,1035
5235,966,1032
5236,966,1030
5237,965,1031
5238,965,1031
5239,964,1035
5240,962,1033
5241,965,1032
5242,962,1030
5243,965,1032
5244,966,1037
5245,970,1037
5246,967,1034
5247,965,1035
5248,962,1035
5249,963,1035
5250,965,1038
5251,963,1035
5252,964,1030
5253,965,1028
5254,966,1029
5255,965,1033
5256,966,1038
5257,966,1037
5258,966,1036
5259,965,1036
5260,965,1033
5261,965,1032
5262,964,1034
5263,965,1030
5264,966,1030
5265,966,1029
5266,967,1032
5267,966,1034
5268,964,1037
5269,965,1037
5270,963,1033
5271,965,1034
5272,965,1035
5273,963,1034
5274,965,1036
5275,964,1032
5276,967,1032
5277,968,1032
5278,970,1036
5279,970,1043
5280,972,1045
5281,974,1045
5282,975,1043
5283,979,1042
5284,979,1042
5285,982,1045
5286,983,1045
5287,984,1040
5288,989,1036
5289,992,1036
5290,995,1040
5291,998,1040
5292,1001,1041
5293,1002,1037
5294,1002,1036
5295,999,1033
5296,997,1034
5297,997,1034
5298,994,1031
5299,995,1028
5300,992,1023
5301,988,1023
5302,985,1027
5303,979,1030
5304,976,1034
5305,973,1030
5306,969,1030
5307,965,1030
5308,961,1032
5309,958,1034
5310,954,1029
5311,952,1027
5312,951,1025
5313,952,1026
5314,955,1030
5315,954,1034
5316,957,1035
5317,955,1030
5318,954,1030
5319,953,1029
5320,949,1027
5321,947,1028
5322,948,1025
5323,947,1023
5324,945,1023
5325,945,1022
5326,944,1024
5327,944,1025
5328,949,1027
5329,955,1027
5330,968,1027
5331,985,1023
5332,1011,1020
5333,1048,1014
5334,1090,1010
5335,1141,1017
5336,1196,1031
5337,1248,1060
5338,1286,1088
5339,1304,1117
5340,1294,1139
5341,1260,1147
5342,1201,1146
5343,1134,1125
5344,1065,1096
5345,1005,1055
5346,964,1021
5347,941,996
5348,932,992
5349,933,998
5350,941,1015
5351,953,1029
5352,959,1033
5353,962,1036
5354,953,1034
5355,947,1031
5356,942,1029
5357,937,1027
5358,935,1024
5359,933,1018
5360,931,1020
5361,933,1024
5362,935,1027
5363,937,1030
5364,936,1029
5365,940,1028
5366,941,1027
5367,939,1026
5368,939,1026
5369,937,1025
5370,936,1022
5371,935,1019
5372,934,1021
5373,930,1024
5374,933,1025
5375,935,1027
5376,933,1029
5377,937,1025
5378,938,1022
5379,939,1022
5380,938,1023
5381,939,1024
5382,938,1021
5383,937,1018
5384,936,1016
5385,938,1019
5386,938,1024
5387,936,1024
5388,938,1026
5389,941,1023
5390,942,1016
5391,943,1013
5392,941,1013
5393,940,1015
5394,938,1016
5395,939,1015
5396,944,1011
5397,943,1013
5398,944,1012
5399,943,1017
5400,944,1020
5401,947,1016
5402,949,1015
5403,946,1009
5404,949,1005
5405,948,1006
5406,947,1005
5407,948,1002
5408,950,1000
5409,951,1001
5410,954,1003
5411,953,1008
5412,954,1009
5413,954,1007
5414,953,999
5415,955,996
5416,955,998
5417,950,997
5418,953,1002
5419,952,999
5420,953,998
5421,955,997
5422,959,999
5423,959,1003
5424,958,1005
5425,960,1004
5426,960,1002
5427,958,997
5428,957,996
5429,957,999
5430,953,1001
5431,954,1002
5432,956,1001
5433,959,1003
5434,963,1005
5435,965,1011
5436,969,1018
5437,972,1020
5438,974,1018
5439,971,1019
5440,971,1018
5441,973,1023
5442,971,1029
5443,968,1029
5444,969,1027
5445,967,1028
5446,967,1030
5447,968,1032
5448,970,1037
5449,972,1037
5450,970,1038
5451,972,1035
5452,971,1034
5453,969,1035
5454,967,1037
5455,966,1037
5456,964,1038
5457,965,1035
5458,967,1034
5459,969,1036
5460,970,1042
5461,971,1043
5462,971,1041
5463,970,1037
5464,967,1032
5465,962,1031
5466,961,1031
5467,959,1034
5468,961,1034
5469,962,1034
5470,965,1033
5471,967,1039
5472,968,1039
5473,969,1042
5474,966,1042
5475,968,1037
5476,968,1031
5477,967,1029
5478,967,1029
5479,966,1035
5480,962,1037
5481,962,1037
5482,963,1035
5483,968,1033
5484,967,1032
5485,967,1036
5486,968,1036
5487,968,1038
5488,968,1034
5489,970,1032
5490,969,1030
5491,967,1030
5492,966,1035
5493,966,1035
5494,965,1034
5495,965,1033
5496,968,1032
5497,968,1035
5498,963,1038
5499,966,1041
5500,965,1038
5501,966,1034
5502,966,1030
5503,966,1032
5504,966,1034
5505,967,1039
5506,966,1040
5507,966,1038
5508,968,1038
5509,970,1036
5510,969,1037
5511,968,1040
5512,968,1039
5513,969,1040
5514,970,1036
5515,973,1037
5516,974,1042
5517,976,1045
5518,979,1051
5519,983,1051
5520,985,1048
5521,987,1048
5522,987,1047
5523,988,1047
5524,990,1048
5525,994,1044
5526,996,1040
5527,997,1036
5528,996,1036
5529,994,1038
5530,996,1040
5531,995,1040
5532,995,1037
5533,998,1035
5534,996,1035
5535,992,1034
5536,986,1032
5537,980,1032
5538,974,1028
5539,970,1027
5540,968,1032
5541,964,1038
5542,962,1040
5543,963,1039
5544,962,1038
5545,962,1037
5546,959,1039
5547,956,1037
5548,952,1036
5549,950,1032
5550,950,1030
5551,949,1027
5552,948,1028
5553,944,1034
5554,946,1033
5555,946,1031
5556,949,1033
5557,954,1033
5558,952,1036
5559,951,1035
5560,947,1029
5561,940,1024
5562,937,1022
5563,940,1025
5564,948,1028
5565,967,1027
5566,995,1024
5567,1036,1020
5568,1086,1021
5569,1145,1031
5570,1207,1049
5571,1260,1070
5572,1294,1097
5573,1301,1123
5574,1270,1142
5575,1217,1147
5576,1144,1130
5577,1068,1098
5578,1006,1061
5579,960,1034
5580,939,1013
5581,932,1006
5582,935,1009
5583,943,1016
5584,950,1025
5585,950,1037
5586,949,1040
5587,941,1040
5588,935,1036
5589,932,1029
5590,931,1027
5591,930,1031
5592,929,1033
5593,932,1033
5594,936,1030
5595,937,1028
5596,934,1026
5597,930,1031
5598,930,1032
5599,929,1030
5600,927,1026
5601,929,1027
5602,930,1029
5603,932,1032
5604,933,1035
5605,935,1031
5606,937,1029
5607,936,1029
5608,936,1031
5609,933,1033
5610,933,1028
5611,932,1024
5612,933,1020
5613,932,1020
5614,930,1025
5615,932,1026
5616,937,1029
5617,939,1026
5618,938,1024
5619,940,1027
5620,940,1024
5621,939,1023
5622,938,1021
5623,934,1016
5624,935,1014
5625,934,1015
5626,937,1021
5627,940,1023
5628,943,1023
5629,946,1019
5630,944,1016
5631,944,1016
5632,945,1015
5633,945,1016
5634,946,1011
5635,947,1010
5636,946,1007
5637,947,1004
5638,950,1008
5639,951,1009
5640,951,1011
5641,952,1006
5642,950,1009
5643,951,1007
5644,951,1010
5645,950,1008
5646,951,1006
5647,952,999
5648,953,998
5649,953,1002
5650,955,1006
5651,957,1010
5652,959,1010
5653,959,1007
5654,959,1005
5655,955,1004
5656,955,1005
5657,952,1006
5658,954,1005
5659,953,1003
5660,952,1003
5661,958,1006
5662,960,1009
5663,961,1016
5664,964,1019
5665,966,1017
5666,966,1017
5667,967,1020
5668,968,1026
5669,967,1029
5670,967,1031
5671,967,1029
5672,967,1029
5673,968,1028
5674,970,1029
5675,972,1034
5676,971,1036
5677,975,1038
5678,974,1040
5679,971,1038
5680,970,1038
5681,967,1041
5682,965,1041
5683,964,1037
5684,963,1036
5685,962,1035
5686,964,1040
5687,966,1046
5688,967,1050
5689,969,1047
5690,969,1044
5691,969,1042
5692,968,1040
5693,966,1040
5694,962,1043
5695,962,1038
5696,961,1039
5697,960,1036
5698,959,1036
5699,960,1039
5700,965,1040
5701,968,1042
5702,970,1039
5703,970,1038
5704,966,1039
5705,966,1040
5706,966,1042
5707,962,1042
5708,963,1039
5709,962,1038
5710,963,1037
5711,964,1041
5712,964,1046
5713,966,1046
5714,968,1043
5715,971,1042
5716,972,1039
5717,970,1039
5718,967,1040
5719,965,1038
5720,966,1038
5721,967,1037
5722,966,1039
5723,967,1041
5724,967,1047
5725,967,1049
5726,967,1043
5727,966,1039
5728,968,1039
5729,968,1037
5730,967,1041
5731,964,1042
5732,967,1039
5733,965,1040
5734,965,1038
5735,967,1041
5736,965,1046
5737,966,1046
5738,968,1046
5739,971,1044
5740,973,1040
5741,973,1042
5742,974,1047
5743,975,1050
5744,977,1052
5745,981,1050
5746,985,1047
5747,986,1048
5748,986,1053
5749,988,1056
5750,990,1059
5751,990,1055
5752,994,1049
5753,996,1046
5754,996,1045
5755,999,1043
5756,1000,1046
5757,1002,1045
5758,1003,1044
5759,1001,1041
5760,1001,1044
5761,1001,1045
5762,998,1044
5763,996,1039
5764,994,1035
5765,989,1031
5766,986,1030
5767,981,1035
5768,980,1040
5769,975,1042
5770,976,1042
5771,972,1040
5772,971,1041
5773,969,1045
5774,965,1045
5775,962,1043
5776,956,1040
5777,956,1035
5778,958,1035
5779,956,1036
5780,951,1037
5781,951,1040
5782,954,1039
5783,957,1037
5784,960,1036
5785,961,1038
5786,963,1040
5787,962,1039
5788,960,1039
5789,958,1034
5790,955,1030
5791,950,1029
5792,947,1028
5793,944,1031
5794,948,1033
5795,954,1032
5796,972,1032
5797,995,1033
5798,1025,1030
5799,1065,1028
5800,1111,1024
5801,1163,1027
5802,1214,1043
5803,1258,1063
5804,1289,1094
5805,1299,1126
5806,1282,1152
5807,1243,1162
5808,1185,1157
5809,1122,1136
5810,1056,1104
5811,1005,1070
5812,970,1038
5813,949,1015
5814,938,1006
5815,940,1008
5816,948,1019
5817,957,1030
5818,962,1036
5819,963,1037
5820,962,1036
5821,960,1036
5822,954,1037
5823,950,1037
5824,948,1036
5825,947,1032
5826,947,1030
5827,948,1028
5828,946,1030
5829,944,1038
5830,942,1036
5831,943,1035
5832,943,1034
5833,947,1037
5834,946,1038
5835,950,1038
5836,947,1035
5837,949,1029
5838,946,1026
5839,949,1024
5840,947,1030
5841,948,1031
5842,949,1031
5843,951,1029
5844,953,1031
5845,954,1034
5846,953,1034
5847,953,1035
5848,953,1031
5849,952,1029
5850,953,1028
5851,951,1031
5852,951,1030
5853,952,1032
5854,952,1029
5855,955,1028
5856,954,1027
5857,956,1027
5858,956,1026
5859,953,1029
5860,956,1024
5861,957,1019
5862,957,1019
5863,956,1019
5864,958,1021
5865,960,1022
5866,962,1019
5867,963,1018
5868,964,1018
5869,965,1021
5870,964,1022
5871,966,1021
5872,965,1016
5873,967,1011
5874,968,1010
5875,966,1009
5876,967,1011
5877,970,1014
5878,971,1010
5879,971,1009
5880,972,1009
5881,971,1010
5882,971,1015
5883,973,1015
5884,972,1011
5885,972,1006
5886,973,1002
5887,972,1006
5888,971,1008
5889,969,1012
5890,972,1008
5891,973,1006
5892,975,1008
5893,976,1011
5894,979,1013
5895,977,1017
5896,977,1014
5897,979,1013
5898,981,1013
5899,982,1017
5900,982,1022
5901,985,1025
5902,989,1027
5903,993,1029
5904,996,1032
5905,998,1038
5906,997,1043
5907,997,1044
5908,997,1039
5909,998,1037
5910,995,1035
5911,994,1037
5912,990,1040
5913,990,1043
5914,990,1045
5915,991,1045
5916,993,1047
5917,992,1050
5918,993,1053
5919,991,1053
5920,991,1046
5921,991,1041
5922,989,1041
5923,986,1042
5924,988,1043
5925,987,1045
5926,986,1045
5927,991,1042
5928,995,1042
5929,999,1044
5930,997,1049
5931,999,1046
5932,997,1043
5933,995,1040
5934,995,1036
5935,992,1038
5936,991,1041
5937,988,1049
5938,991,1052
5939,991,1050
5940,993,1048
5941,994,1047
5942,995,1046
5943,994,1045
5944,996,1045
5945,999,1044
5946,997,1038
5947,996,1039
5948,993,1043
5949,992,1046
5950,993,1045
5951,993,1045
5952,995,1041
5953,999,1042
5954,995,1045
5955,997,1047
5956,999,1049
5957,1000,1046
5958,1000,1042
5959,999,1040
5960,996,1043
5961,995,1046
5962,994,1051
5963,998,1051
5964,1000,1049
5965,1000,1044
5966,998,1043
5967,997,1047
5968,993,1044
5969,996,1044
5970,995,1040
5971,992,1037
5972,995,1041
5973,995,1046
5974,998,1050
5975,1001,1054
5976,1004,1054
5977,1008,1055
5978,1010,1055
5979,1010,1055
5980,1009,1059
5981,1010,1062
5982,1010,1057
5983,1012,1053
5984,1015,1051
5985,1019,1053
5986,1023,1054
5987,1028,1057
5988,1032,1055
5989,1037,1050
5990,1036,1047
5991,1034,1047
5992,1031,1048
5993,1029,1046
5994,1027,1044
5995,1027,1041
5996,1029,1040
5997,1026,1041
5998,1025,1043
5999,1021,1045
6000,1018,1044
6001,1014,1045
6002,1009,1046
6003,1004,1049
6004,998,1050
6005,993,1046
6006,992,1040
6007,989,1038
6008,988,1034
6009,988,1037
6010,990,1042
6011,990,1043
6012,989,1039
6013,990,1039
6014,990,1039
6015,992,1042
6016,987,1043
6017,985,1038
6018,985,1035
6019,985,1034
6020,987,1033
6021,985,1037
6022,982,1041
6023,981,1041
6024,979,1035
6025,983,1035
6026,989,1036
6027,1000,1040
6028,1017,1043
6029,1041,1041
6030,1072,1032
6031,1113,1028
6032,1160,1024
6033,1211,1031
6034,1261,1048
6035,1310,1068
6036,1342,1088
6037,1353,1110
6038,1337,1127
6039,1297,1138
6040,1239,1138
6041,1172,1119
6042,1106,1090
6043,1050,1055
6044,1009,1026
6045,984,1009
6046,972,1008
6047,971,1012
6048,979,1021
6049,990,1026
6050,996,1032
6051,999,1036
6052,994,1036
6053,986,1038
6054,983,1032
6055,979,1029
6056,975,1027
6057,972,1026
6058,974,1031
6059,973,1035
6060,974,1040
6061,977,1037
6062,980,1034
6063,981,1033
6064,980,1033
6065,979,1034
6066,976,1035
6067,974,1033
6068,974,1030
6069,975,1029
6070,977,1032
6071,973,1034
6072,978,1036
6073,981,1038
6074,981,1034
6075,982,1029
6076,979,1028
6077,979,1028
6078,980,1029
6079,970,1029
6080,971,1030
6081,973,1024
6082,978,1027
6083,980,1029
6084,981,1032
6085,983,1035
6086,984,1034
6087,982,1030
6088,980,1025
6089,978,1025
6090,978,1028
6091,975,1029
6092,980,1027
6093,982,1022
6094,984,1021
6095,983,1020
6096,986,1023
6097,988,1024
6098,987,1024
6099,989,1020
6100,990,1018
6101,989,1016
6102,984,1019
6103,985,1018
6104,985,1019
6105,985,1017
6106,987,1014
6107,989,1012
6108,993,1013
6109,996,1017
6110,994,1021
6111,993,1018
6112,993,1012
6113,993,1008
6114,992,1004
6115,992,1006
6116,992,1009
6117,993,1012
6118,993,1012
6119,996,1008
6120,997,1009
6121,996,1008
6122,997,1006
6123,996,1006
6124,997,1004
6125,997,1002
6126,995,999
6127,994,1003
6128,991,1004
6129,992,1010
6130,994,1008
6131,998,1008
6132,997,1009
6133,1000,1011
6134,1002,1015
6135,1001,1021
6136,1003,1022
6137,1005,1019
6138,1006,1016
6139,1005,1016
6140,1007,1020
6141,1004,1026
6142,1008,1031
6143,1011,1032
6144,1010,1033
6145,1009,1034
6146,1007,1038
6147,1006,1043
6148,1006,1038
6149,1007,1038
6150,1005,1034
6151,1004,1030
6152,1003,1033
6153,1002,1037
6154,1002,1039
6155,1004,1041
6156,1005,1039
6157,1008,1039
6158,1008,1041
6159,1003,1043
6160,1001,1044
6161,1003,1039
6162,1003,1035
6163,1002,1034
6164,1000,1034
6165,999,1037
6166,1000,1039
6167,1002,1040
6168,1003,1040
6169,1005,1041
6170,1004,1043
6171,1004,1043
6172,1002,1041
6173,1002,1035
6174,1003,1030
6175,1002,1035
6176,1001,1038
6177,1001,1039
6178,1002,1040
6179,1005,1041
6180,1003,1039
6181,1003,1042
6182,1002,1042
6183,1003,1042
6184,1004,1037
6185,1006,1032
6186,1004,1032
6187,1003,1030
6188,1002,1034
6189,1004,1037
6190,1004,1036
6191,1008,1038
6192,1009,1041
6193,1010,1044
6194,1009,1045
6195,1008,1041
6196,1005,1037
6197,1005,1032
6198,1002,1031
6199,1003,1036
6200,1003,1037
6201,1004,1036
6202,1005,1035
6203,1008,1035
6204,1007,1036
6205,1008,1038
6206,1008,1038
6207,1009,1038
6208,1007,1036
6209,1007,1034
6210,1007,1039
6211,1005,1045
6212,1007,1048
6213,1010,1046
6214,1014,1046
6215,1018,1046
6216,1021,1047
6217,1027,1051
6218,1027,1051
6219,1027,1050
6220,1028,1041
6221,1031,1037
6222,1032,1039
6223,1030,1037
6224,1032,1035
6225,1030,1034
6226,1032,1036
6227,1034,1036
6228,1033,1039
6229,1035,1041
6230,1033,1037
6231,1034,1033
6232,1029,1032
6233,1024,1032
6234,1018,1031
6235,1010,1032
6236,1003,1033
6237,1001,1033
6238,1000,1032
6239,999,1033
6240,999,1037
6241,996,1035
6242,994,1034
6243,994,1033
6244,992,1027
6245,991,1027
6246,986,1029
6247,985,1029
6248,982,1032
6249,982,1028
6250,984,1028
6251,985,1033
6252,987,1036
6253,989,1038
6254,988,1036
6255,987,1030
6256,983,1025
6257,980,1023
6258,975,1023
6259,972,1021
6260,975,1026
6261,982,1029
6262,999,1030
6263,1021,1031
6264,1046,1031
6265,1083,1028
6266,1128,1025
6267,1178,1023
6268,1231,1023
6269,1279,1032
6270,1320,1051
6271,1341,1070
6272,1341,1093
6273,1316,1107
6274,1265,1111
6275,1199,1101
6276,1128,1083
6277,1070,1059
6278,1023,1032
6279,995,1012
6280,981,1000
6281,975,997
6282,975,1005
6283,979,1018
6284,980,1026
6285,980,1031
6286,979,1032
6287,974,1029
6288,968,1030
6289,964,1032
6290,962,1031
6291,960,1026
6292,959,1024
6293,963,1022
6294,960,1025
6295,959,1028
6296,960,1028
6297,958,1023
6298,958,1023
6299,958,1025
6300,958,1030
6301,959,1030
6302,960,1029
6303,959,1027
6304,957,1025
6305,958,1022
6306,957,1023
6307,956,1022
6308,958,1022
6309,959,1021
6310,962,1022
6311,962,1023
6312,963,1028
6313,962,1030
6314,961,1026
6315,962,1022
6316,961,1020
6317,960,1020
6318,959,1021
6319,961,1022
6320,962,1020
6321,960,1016
6322,965,1017
6323,966,1019
6324,966,1021
6325,966,1025
6326,970,1023
6327,969,1020
6328,967,1014
6329,968,1012
6330,963,1011
6331,966,1011
6332,967,1011
6333,968,1011
6334,969,1008
6335,970,1010
6336,972,1015
6337,976,1016
6338,971,1014
6339,972,1009
6340,973,1004
6341,968,1002
6342,969,1002
6343,970,1006
6344,971,1007
6345,974,1005
6346,976,1002
6347,978,1002
6348,979,1001
6349,981,1007
6350,981,1007
6351,982,1005
6352,985,998
6353,982,997
6354,979,999
6355,979,1002
6356,975,1002
6357,975,1001
6358,975,1000
6359,978,1001
6360,982,1002
6361,981,1007
6362,980,1011
6363,980,1011
6364,983,1009
6365,981,1005
6366,982,1008
6367,980,1008
6368,982,1011
6369,981,1019
6370,985,1019
6371,990,1021
6372,990,1022
6373,994,1026
6374,992,1029
6375,991,1036
6376,989,1035
6377,988,1033
6378,987,1029
6379,987,1028
6380,984,1031
6381,985,1035
6382,987,1037
6383,986,1034
6384,988,1037
6385,988,1038
6386,989,1037
6387,988,1039
6388,987,1036
6389,986,1031
6390,985,1026
6391,983,1025
6392,982,1029
6393,981,1033
6394,980,1037
6395,981,1034
6396,982,1037
6397,986,1036
6398,985,1038
6399,985,1038
6400,986,1037
6401,987,1033
6402,987,1030
6403,982,1029
6404,982,1030
6405,983,1035
6406,981,1034
6407,988,1035
6408,989,1032
6409,991,1033
6410,987,1033
6411,988,1036
6412,986,1038
6413,987,1034
6414,987,1030
6415,987,1028
6416,988,1028
6417,988,1035
6418,985,1038
6419,987,1038
6420,988,1035
6421,991,1035
6422,989,1033
6423,985,1036
6424,985,1038
6425,985,1039
6426,986,1035
6427,987,1030
6428,985,1030
6429,984,1030
6430,988,1034
6431,989,1039
6432,990,1040
6433,990,1037
6434,989,1032
6435,990,1035
6436,987,1033
6437,985,1035
6438,983,1031
6439,983,1028
6440,983,1029
6441,983,1033
6442,987,1039
6443,988,1040
6444,994,1044
6445,995,1043
6446,997,1047
6447,998,1049
6448,997,1050
6449,999,1050
6450,998,1044
6451,1000,1042
6452,1001,1042
6453,1001,1042
6454,1005,1045
6455,1011,1046
6456,1013,1043
6457,1019,1041
6458,1022,1034
6459,1018,1034
6460,1016,1036
6461,1013,1040
6462,1013,1035
6463,1007,1032
6464,1006,1032
6465,1008,1036
6466,1006,1037
6467,1007,1039
6468,1005,1036
6469,1005,1036
6470,1000,1033
6471,994,1033
6472,987,1033
6473,983,1033
6474,980,1030
6475,977,1028
6476,973,1027
6477,970,1032
6478,967,1034
6479,969,1033
6480,970,1029
6481,970,1026
6482,973,1026
6483,971,1031
6484,971,1030
6485,966,1032
6486,964,1029
6487,960,1025
6488,959,1026
6489,959,1032
6490,961,1033
6491,960,1032
6492,962,1028
6493,962,1023
6494,963,1021
6495,967,1026
6496,974,1031
6497,990,1028
6498,1012,1021
6499,1039,1019
6500,1075,1014
6501,1120,1016
6502,1172,1026
6503,1228,1036
6504,1277,1052
6505,1314,1069
6506,1322,1093
6507,1305,1111
6508,1262,1123
6509,1199,1114
6510,1130,1092
6511,1062,1060
6512,1008,1030
6513,971,1008
6514,954,999
6515,949,998
6516,953,1008
6517,961,1018
6518,969,1026
6519,969,1031
6520,968,1032
6521,964,1031
6522,958,1024
6523,951,1022
6524,946,1019
6525,941,1022
6526,944,1026
6527,943,1026
6528,945,1027
6529,949,1028
6530,951,1028
6531,949,1031
6532,948,1030
6533,947,1027
6534,945,1022
6535,945,1022
6536,945,1021
6537,943,1023
6538,944,1024
6539,945,1025
6540,944,1025
6541,951,1023
6542,949,1025
6543,948,1026
6544,946,1026
6545,945,1024
6546,945,1019
6547,945,1019
6548,945,1021
6549,946,1025
6550,946,1025
6551,947,1023
6552,949,1022
6553,951,1019
6554,948,1019
6555,946,1020
6556,948,1019
6557,948,1018
6558,948,1013
6559,949,1011
6560,946,1013
6561,948,1015
6562,948,1017
6563,950,1017
6564,953,1013
6565,955,1012
6566,955,1013
6567,957,1015
6568,956,1014
6569,954,1012
6570,954,1008
6571,953,1004
6572,955,1007
6573,960,1010
6574,958,1010
6575,961,1008
6576,964,1006
6577,965,1002
6578,965,1002
6579,965,1002
6580,966,1001
6581,966,1001
6582,963,998
6583,963,997
6584,963,999
6585,965,999
6586,967,1000
6587,967,1000
6588,969,1000
6589,969,1003
6590,967,1005
6591,967,1008
6592,968,1004
6593,968,1001
6594,967,1000
6595,965,998
6596,965,1001
6597,966,1007
6598,969,1007
6599,970,1010
6600,976,1012
6601,979,1019
6602,979,1024
6603,979,1026
6604,980,1026
6605,977,1024
6606,979,1024
6607,977,1027
6608,977,1030
6609,976,1033
6610,976,1034
6611,977,1033
6612,979,1033
6613,977,1034
6614,978,1036
6615,979,1036
6616,977,1032
6617,976,1030
6618,974,1030
6619,973,1029
6620,971,1033
6621,972,1034
6622,973,1034
6623,974,1033
6624,976,1033
6625,977,1034
6626,977,1035
6627,975,1035
6628,975,1032
6629,972,1027
6630,972,1029
6631,969,1031
6632,970,1033
6633,971,1035
6634,974,1031
6635,974,1029
6636,979,1030
6637,979,1033
6638,978,1035
6639,977,1034
6640,980,1030
6641,974,1028
6642,971,1027
6643,971,1030
6644,974,1031
6645,976,1030
6646,977,1032
6647,980,1028
6648,978,1031
6649,979,1034
6650,980,1038
6651,980,1036
6652,980,1032
6653,979,1032
6654,978,1029
6655,977,1030
6656,974,1033
6657,976,1033
6658,975,1030
6659,977,1028
6660,976,1030
6661,976,1033
6662,980,1034
6663,980,1034
6664,983,1030
6665,980,1027
6666,980,1027
6667,978,1031
6668,977,1030
6669,975,1034
6670,977,1032
6671,977,1031
6672,978,1034
6673,981,1039
6674,983,1040
6675,984,1042
6676,987,1037
6677,987,1037
6678,989,1038
6679,990,1043
6680,990,1046
6681,992,1045
6682,994,1043
6683,997,1042
6684,997,1044
6685,1002,1045
6686,1004,1043
6687,1007,1036
6688,1010,1031
6689,1009,1028
6690,1007,1029
6691,1002,1030
6692,1001,1032
6693,1001,1031
6694,1000,1030
6695,1000,1029
6696,999,1030
6697,998,1032
6698,994,1031
6699,989,1031
6700,985,1027
6701,977,1025
6702,976,1026
6703,969,1028
6704,966,1031
6705,961,1031
6706,963,1028
6707,963,1028
6708,965,1028
6709,965,1032
6710,965,1031
6711,964,1032
6712,964,1030
6713,961,1026
6714,957,1026
6715,956,1027
6716,955,1027
6717,952,1027
6718,954,1025
6719,955,1023
6720,958,1026
6721,959,1028
6722,960,1029
6723,957,1025
6724,954,1020
6725,952,1016
6726,952,1019
6727,959,1023
6728,972,1026
6729,995,1025
6730,1026,1020
6731,1068,1011
6732,1118,1011
6733,1171,1022
6734,1223,1039
6735,1269,1059
6736,1299,1078
6737,1305,1097
6738,1286,1112
6739,1244,1123
6740,1180,1121
6741,1111,1103
6742,1048,1071
6743,1002,1042
6744,970,1017
6745,953,1006
6746,949,1003
6747,953,1005
6748,957,1010
6749,962,1016
6750,962,1024
6751,958,1028
6752,954,1031
6753,944,1029
6754,940,1026
6755,939,1023
6756,938,1018
6757,939,1021
6758,939,1023
6759,940,1024
6760,941,1022
6761,939,1018
6762,939,1017
6763,938,1020
6764,936,1022
6765,935,1022
6766,935,1024
6767,937,1020
6768,935,1022
6769,937,1025
6770,935,1025
6771,938,1027
6772,938,1025
6773,939,1017
6774,939,1017
6775,939,1016
6776,938,1020
6777,939,1022
6778,937,1021
6779,940,1020
6780,939,1020
6781,940,1022
6782,941,1022
6783,942,1020
6784,942,1014
6785,942,1009
6786,944,1007
6787,943,1009
6788,941,1010
6789,942,1012
6790,940,1010
6791,943,1010
6792,946,1014
6793,945,1013
6794,946,1015
6795,947,1012
6796,945,1008
6797,945,1004
6798,946,1005
6799,946,1005
6800,947,1008
6801,948,1007
6802,950,1003
6803,949,1003
6804,951,1003
6805,952,1002
6806,951,1004
6807,954,1001
6808,954,995
6809,954,992
6810,954,990
6811,954,993
6812,954,996
6813,952,997
6814,955,998
6815,956,997
6816,959,997
6817,958,998
6818,958,1000
6819,957,1001
6820,958,999
6821,958,993
6822,956,991
6823,954,996
6824,953,998
6825,954,999
6826,956,998
6827,958,997
6828,960,1000
6829,961,1001
6830,963,1007
6831,963,1008
6832,964,1008
6833,965,1007
6834,966,1011
6835,964,1016
6836,963,1018
6837,962,1022
6838,967,1023
6839,970,1025
6840,971,1024
6841,971,1027
6842,971,1031
6843,971,1033
6844,968,1030
6845,967,1027
6846,969,1026
6847,965,1023
6848,962,1027
6849,962,1030
6850,963,1030
6851,961,1030
6852,963,1031
6853,965,1034
6854,964,1031
6855,966,1034
6856,965,1032
6857,963,1029
6858,963,1026
6859,960,1027
6860,960,1030
6861,958,1032
6862,959,1034
6863,962,1035
6864,964,1031
6865,965,1032
6866,966,1034
6867,964,1036
6868,965,1033
6869,966,1031
6870,964,1028
6871,963,1027
6872,960,1031
6873,960,1033
6874,958,1036
6875,961,1031
6876,961,1031
6877,964,1035
6878,965,1034
6879,966,1041
6880,967,1037
6881,967,1032
6882,964,1027
6883,963,1025
6884,962,1029
6885,960,1032
6886,959,1032
6887,961,1031
6888,963,1031
6889,963,1030
6890,966,1029
6891,963,1035
6892,964,1033
6893,963,1031
6894,963,1029
6895,962,1026
6896,959,1032
6897,960,1032
6898,961,1035
6899,961,1035
6900,962,1032
6901,961,1032
6902,962,1034
6903,964,1039
6904,963,1037
6905,964,1034
6906,963,1032
6907,962,1028
6908,962,1032
6909,964,1036
6910,965,1038
6911,970,1041
6912,971,1043
6913,975,1042
6914,975,1046
6915,975,1048
6916,977,1049
6917,979,1045
6918,980,1040
6919,983,1039
6920,985,1043
6921,991,1043
6922,992,1039
6923,992,1035
6924,994,1033
6925,995,1032
6926,993,1034
6927,992,1036
6928,990,1036
6929,987,1031
6930,986,1027
6931,983,1022
6932,978,1024
6933,978,1027
6934,972,1029
6935,971,1029
6936,969,1030
6937,970,1028
6938,966,1031
6939,963,1036
6940,960,1036
6941,956,1032
6942,952,1027
6943,949,1024
6944,946,1025
6945,946,1026
6946,949,1028
6947,950,1032
6948,951,1032
6949,953,1030
6950,950,1028
6951,947,1026
6952,948,1027
6953,944,1029
6954,943,1027
6955,944,1024
6956,944,1021
6957,941,1019
6958,939,1026
6959,940,1027
6960,940,1025
6961,940,1024
6962,943,1024
6963,948,1027
6964,958,1028
6965,974,1028
6966,996,1026
6967,1025,1020
6968,1064,1010
6969,1110,1013
6970,1163,1024
6971,1219,1045
6972,1264,1067
6973,1297,1093
6974,1305,1111
6975,1283,1129
6976,1241,1135
6977,1185,1134
6978,1118,1119
6979,1055,1090
6980,1006,1056
6981,966,1021
6982,941,1004
6983,933,999
6984,935,1004
6985,939,1016
6986,948,1024
6987,951,1028
6988,952,1029
6989,949,1030
6990,942,1032
6991,938,1028
6992,932,1027
6993,931,1024
6994,927,1021
6995,930,1021
6996,929,1025
6997,931,1030
6998,932,1029
6999,933,1027
7000,933,1024
7001,931,1021
7002,929,1023
7003,930,1025
7004,927,1028
7005,927,1027
7006,930,1026
7007,930,1025
7008,929,1026
7009,933,1030
7010,934,1029
7011,934,1030
7012,934,1024
7013,935,1019
7014,932,1017
7015,932,1018
7016,930,1021
7017,929,1022
7018,931,1024
7019,934,1020
7020,938,1020
7021,939,1022
7022,941,1023
7023,937,1027
7024,937,1023
7025,936,1017
7026,934,1013
7027,931,1012
7028,931,1016
7029,933,1018
7030,934,1020
7031,937,1016
7032,937,1014
7033,941,1017
7034,943,1017
7035,940,1020
7036,944,1017
7037,942,1016
7038,941,1009
7039,939,1008
7040,941,1007
7041,941,1009
7042,941,1008
7043,946,1005
7044,947,1005
7045,950,1004
7046,954,1006
7047,954,1009
7048,953,1009
7049,954,1005
7050,953,1001
7051,952,999
7052,950,999
7053,950,999
7054,949,1002
7055,950,1003
7056,952,1001
7057,955,1002
7058,958,1001
7059,958,1002
7060,958,1003
7061,955,1003
7062,956,1000
7063,954,998
7064,955,995
7065,956,999
7066,955,1006
7067,955,1010
7068,957,1009
7069,960,1008
7070,961,1005
7071,961,1006
7072,962,1007
7073,963,1011
7074,965,1010
7075,967,1009
7076,970,1011
7077,971,1017
7078,970,1025
7079,971,1030
7080,973,1035
7081,973,1034
7082,977,1034
7083,972,1035
7084,975,1034
7085,973,1034
7086,970,1030
7087,969,1029
7088,969,1031
7089,969,1033
7090,969,1038
7091,969,1040
7092,970,1040
7093,970,1038
7094,971,1035
7095,970,1034
7096,969,1037
7097,968,1039
7098,969,1038
7099,968,1036
7100,968,1033
7101,965,1035
7102,966,1036
7103,966,1039
7104,966,1041
7105,969,1039
7106,970,1035
7107,969,1035
7108,968,1035
7109,967,1037
7110,967,1035
7111,965,1034
7112,964,1031
7113,965,1033
7114,964,1036
7115,966,1037
7116,967,1039
7117,970,1040
7118,970,1038
7119,970,1037
7120,968,1040
7121,966,1040
7122,966,1038
7123,968,1034
7124,969,1032
7125,970,1034
7126,969,1037
7127,971,1040
7128,969,1041
7129,970,1036
7130,972,1035
7131,969,1036
7132,967,1038
7133,970,1040
7134,967,1040
7135,965,1033
7136,966,1036
7137,967,1040
7138,970,1045
7139,972,1045
7140,974,1043
7141,976,1039
7142,975,1034
7143,972,1036
7144,970,1037
7145,967,1040
7146,964,1036
7147,967,1034
7148,967,1036
7149,970,1035
7150,973,1044
7151,978,1048
7152,979,1050
7153,985,1049
7154,986,1050
7155,986,1052
7156,989,1053
7157,989,1051
7158,990,1049
7159,988,1045
7160,991,1043
7161,994,1043
7162,999,1046
7163,1004,1048
7164,1009,1048
7165,1011,1044
7166,1011,1041
7167,1007,1042
7168,1002,1040
7169,1001,1037
7170,1001,1033
7171,997,1029
7172,994,1027
7173,991,1029
7174,986,1035
7175,983,1039
7176,978,1041
7177,978,1041
7178,975,1039
7179,975,1040
7180,972,1036
7181,970,1038
7182,965,1031
7183,963,1027
7184,959,1027
7185,960,1031
7186,960,1034
7187,961,1036
7188,963,1035
7189,966,1035
7190,965,1034
7191,965,1036
7192,963,1034
7193,961,1030
7194,960,1028
7195,958,1027
7196,956,1027
7197,955,1028
7198,950,1030
7199,951,1029
7200,955,1030
7201,965,1028
7202,985,1031
7203,1012,1032
7204,1048,1025
7205,1089,1019
7206,1139,1020
7207,1189,1032
7208,1238,1049
7209,1279,1076
7210,1302,1102
7211,1304,1130
7212,1279,1147
7213,1232,1156
7214,1171,1149
7215,1105,1128
7216,1042,1092
7217,997,1053
7218,963,1018
7219,947,1002
7220,937,1000
7221,946,1010
7222,953,1019
7223,959,1027
7224,963,1032
7225,961,1035
7226,959,1039
7227,951,1036
7228,948,1032
7229,945,1027
7230,944,1024
7231,943,1021
7232,944,1023
7233,945,1027
7234,947,1031
7235,947,1027
7236,947,1025
7237,950,1028
7238,949,1031
7239,947,1031
7240,948,1031
7241,949,1030
7242,950,1025
7243,949,1023
7244,948,1028
7245,948,1031
7246,949,1028
7247,951,1027
7248,948,1024
7249,949,1025
7250,951,1027
7251,953,1027
7252,949,1026
7253,947,1021
7254,948,1018
7255,948,1019
7256,949,1021
7257,950,1027
7258,954,1024
7259,956,1026
7260,957,1023
7261,957,1024
7262,954,1023
7263,955,1026
7264,953,1020
7265,952,1019
7266,954,1012
7267,955,1010
7268,956,1013
7269,958,1015
7270,960,1015
7271,962,1013
7272,964,1014
7273,967,1015
7274,968,1016
7275,965,1018
7276,969,1012
7277,967,1006
7278,967,1004
7279,963,1002
7280,963,1005
7281,965,1008
7282,968,1009
7283,971,1005
7284,973,1004
7285,975,1004
7286,974,1006
7287,975,1008
7288,976,1004
7289,977,1002
7290,977,997
7291,978,996
7292,976,998
7293,977,1004
7294,977,1004
7295,978,1003
7296,979,1002
7297,983,1003
7298,976,1003
7299,978,1009
7300,979,1011
7301,978,1008
7302,978,1003
7303,975,1002
7304,975,1005
7305,980,1008
7306,984,1014
7307,989,1016
7308,991,1021
7309,995,1021
7310,995,1021
7311,996,1026
7312,996,1030
7313,997,1031
7314,997,1029
7315,997,1028
7316,1000,1028
7317,999,1031
7318,996,1036
7319,995,1038
7320,995,1040
7321,997,1039
7322,998,1035
7323,997,1039
7324,998,1039
7325,995,1039
7326,995,1038
7327,995,1037
7328,993,1034
7329,992,1038
7330,993,1039
7331,992,1044
7332,993,1040
7333,995,1039
7334,996,1037
7335,995,1036
7336,997,1036
7337,998,1039
7338,997,1039
7339,998,1038
7340,997,1035
7341,998,1037
7342,996,1038
7343,997,1039
7344,995,1039
7345,997,1041
7346,998,1039
7347,999,1040
7348,999,1041
7349,998,1040
7350,999,1038
7351,1000,1035
7352,1000,1033
7353,1000,1035
7354,1002,1038
7355,999,1040
7356,999,1038
7357,1000,1039
7358,999,1036
7359,997,1036
7360,1002,1038
7361,1001,1041
7362,1000,1041
7363,999,1035
7364,999,1034
7365,1001,1035
7366,999,1039
7367,1000,1043
7368,1002,1044
7369,1005,1040
7370,1006,1038
7371,1004,1036
7372,1004,1037
7373,999,1035
7374,1002,1039
7375,1000,1032
7376,999,1029
7377,999,1032
7378,1000,1035
7379,1000,1040
7380,1001,1040
7381,1008,1040
7382,1005,1040
7383,1007,1041
7384,1006,1044
7385,1003,1047
7386,1001,1045
7387,1004,1044
7388,1007,1045
7389,1012,1046
7390,1016,1047
7391,1017,1052
7392,1021,1053
7393,1025,1051
7394,1028,1049
7395,1031,1048
7396,1030,1049
7397,1033,1044
7398,1035,1037
7399,1035,1035
7400,1034,1034
7401,1033,1039
7402,1032,1044
7403,1035,1046
7404,1034,1044
7405,1035,1040
7406,1033,1040
7407,1031,1039
7408,1025,1039
7409,1018,1036
7410,1013,1035
7411,1006,1031
7412,1002,1030
7413,1001,1031
7414,998,1037
7415,995,1038
7416,997,1037
7417,998,1035
7418,998,1032
7419,996,1032
7420,995,1034
7421,992,1034
7422,990,1033
7423,989,1027
7424,989,1029
7425,989,1031
7426,990,1036
7427,990,1039
7428,992,1035
7429,995,1033
7430,995,1029
7431,991,1030
7432,990,1031
7433,988,1026
7434,986,1023
7435,992,1020
7436,1000,1022
7437,1015,1027
7438,1041,1031
7439,1078,1029
7440,1125,1024
7441,1177,1025
7442,1234,1034
7443,1284,1049
7444,1326,1069
7445,1350,1090
7446,1353,1107
7447,1326,1122
7448,1275,1128
7449,1208,1124
7450,1134,1105
7451,1074,1076
7452,1027,1046
7453,999,1019
7454,986,1003
7455,982,997
7456,986,1005
7457,990,1012
7458,998,1018
7459,999,1023
7460,994,1025
7461,988,1029
7462,981,1030
7463,976,1030
7464,974,1027
7465,975,1023
7466,982,1024
7467,980,1029
7468,983,1029
7469,983,1027
7470,982,1023
7471,978,1021
7472,975,1023
7473,976,1022
7474,975,1026
7475,978,1022
7476,977,1024
7477,979,1023
7478,980,1025
7479,978,1026
7480,981,1024
7481,982,1020
7482,980,1021
7483,978,1022
7484,978,1023
7485,976,1020
7486,976,1019
7487,976,1015
7488,978,1018
7489,978,1024
7490,980,1025
7491,980,1023
7492,982,1021
7493,982,1018
7494,981,1018
7495,979,1013
7496,980,1012
7497,983,1008
7498,980,1007
7499,985,1010
7500,985,1016
7501,987,1017
7502,988,1017
7503,988,1012
7504,992,1011
7505,991,1009
7506,989,1010
7507,990,1009
7508,988,1007
7509,988,1003
7510,989,1004
7511,990,1002
7512,991,1005
7513,995,1005
7514,999,1002
7515,1001,1000
7516,1001,1001
7517,1000,1003
7518,998,1002
7519,998,999
7520,998,995
7521,1000,993
7522,998,995
7523,997,1003
7524,999,1006
7525,1001,1008
7526,1002,1000
7527,1000,999
7528,1000,1002
7529,1002,1005
7530,1000,1004
7531,1002,1001
7532,1001,1001
7533,1003,1001
7534,1005,1005
7535,1007,1012
7536,1007,1014
7537,1011,1018
7538,1013,1014
7539,1014,1016
7540,1015,1021
7541,1015,1025
7542,1014,1027
7543,1014,1025
7544,1017,1026
7545,1012,1029
7546,1014,1033
7547,1015,1037
7548,1014,1039
7549,1017,1036
7550,1013,1031
7551,1012,1032
7552,1011,1034
7553,1011,1035
7554,1010,1031
7555,1011,1029
7556,1009,1027
7557,1009,1030
7558,1010,1033
7559,1009,1039
7560,1013,1037
7561,1014,1035
7562,1016,1033
7563,1013,1033
7564,1014,1036
7565,1010,1037
7566,1009,1034
7567,1008,1030
7568,1006,1028
7569,1006,1029
7570,1008,1035
7571,1011,1036
7572,1011,1038
7573,1013,1037
7574,1014,1032
7575,1015,1034
7576,1012,1036
7577,1011,1037
7578,1009,1033
7579,1008,1029
7580,1006,1027
7581,1007,1031
7582,1008,1035
7583,1009,1037
7584,1009,1036
7585,1013,1036
7586,1017,1036
7587,1016,1037
7588,1017,1038
7589,1014,1036
7590,1013,1033
7591,1012,1029
7592,1011,1027
7593,1009,1028
7594,1009,1032
7595,1009,1035
7596,1010,1035
7597,1013,1034
7598,1016,1033
7599,1015,1033
7600,1014,1033
7601,1013,1036
7602,1012,1035
7603,1010,1031
7604,1010,1028
7605,1008,1033
7606,1010,1035
7607,1010,1039
7608,1011,1041
7609,1012,1039
7610,1015,1036
7611,1013,1035
7612,1013,1035
7613,1013,1038
7614,1014,1038
7615,1016,1036
7616,1014,1037
7617,1016,1040
7618,1018,1045
7619,1020,1051
7620,1024,1053
7621,1026,1052
7622,1029,1047
7623,1032,1044
7624,1032,1042
7625,1038,1042
7626,1037,1038
7627,1042,1032
7628,1044,1030
7629,1042,1032
7630,1041,1035
7631,1039,1042
7632,1040,1042
7633,1040,1040
7634,1041,1036
7635,1041,1031
7636,1036,1033
7637,1034,1031
7638,1027,1031
7639,1020,1030
7640,1018,1027
7641,1013,1025
7642,1013,1027
7643,1008,1034
7644,1009,1039
7645,1006,1037
7646,1003,1033
7647,1002,1031
7648,998,1031
7649,996,1031
7650,993,1033
7651,991,1029
7652,992,1029
7653,993,1027
7654,992,1027
7655,991,1033
7656,991,1034
7657,993,1034
7658,995,1031
7659,994,1030
7660,991,1028
7661,990,1030
7662,988,1027
7663,984,1023
7664,980,1020
7665,983,1019
7666,991,1023
7667,1003,1028
7668,1021,1032
7669,1050,1031
7670,1088,1025
7671,1131,1020
7672,1182,1024
7673,1234,1032
7674,1284,1043
7675,1323,1052
7676,1350,1069
7677,1356,1084
7678,1333,1103
7679,1286,1113
7680,1227,1116
7681,1159,1099
7682,1098,1070
7683,1051,1037
7684,1016,1012
7685,995,1001
7686,985,1000
7687,983,1005
7688,985,1013
7689,988,1016
7690,989,1026
7691,990,1034
7692,987,1039
7693,985,1035
7694,981,1031
7695,977,1026
7696,975,1024
7697,974,1025
7698,974,1026
7699,972,1024
7700,971,1023
7701,971,1023
7702,971,1024
7703,968,1029
7704,970,1030
7705,974,1028
7706,975,1027
7707,974,1025
7708,973,1027
7709,972,1028
7710,973,1028
7711,971,1026
7712,970,1022
7713,968,1023
7714,968,1024
7715,970,1028
7716,972,1029
7717,974,1028
7718,976,1025
7719,975,1025
7720,974,1024
7721,974,1021
7722,974,1022
7723,973,1018
7724,972,1015
7725,973,1015
7726,972,1020
7727,969,1021
7728,972,1022
7729,978,1020
7730,981,1018
7731,984,1019
7732,983,1019
7733,982,1018
7734,981,1018
7735,980,1011
7736,982,1010
7737,979,1009
7738,977,1010
7739,979,1013
7740,982,1012
7741,984,1009
7742,987,1010
7743,989,1009
7744,991,1008
7745,990,1006
7746,992,1000
7747,988,1001
7748,989,1000
7749,989,1004
7750,988,1006
7751,992,1006
7752,991,1003
7753,995,1004
7754,995,1006
7755,997,1005
7756,997,1006
7757,995,1001
7758,996,1001
7759,993,999
7760,993,1001
7761,991,1004
7762,991,1003
7763,994,1003
7764,996,1008
7765,998,1012
7766,999,1015
7767,1003,1020
7768,1003,1017
7769,1005,1015
7770,1005,1017
7771,1004,1024
7772,1003,1028
7773,1006,1026
7774,1004,1028
7775,1005,1031
7776,1006,1037
7777,1006,1040
7778,1006,1044
7779,1007,1042
7780,1009,1039
7781,1007,1034
7782,1007,1032
7783,1003,1034
7784,1000,1034
7785,1001,1035
7786,998,1036
7787,1003,1035
7788,1002,1039
7789,1003,1041
7790,1004,1042
7791,1004,1041
7792,1003,1035
7793,1002,1034
7794,1003,1036
7795,1001,1040
7796,1001,1037
7797,1001,1035
7798,1000,1031
7799,1000,1030
7800,1002,1034
7801,1003,1037
7802,1004,1037
7803,1004,1038
7804,1005,1035
7805,1004,1033
7806,1003,1031
7807,1004,1030
7808,1003,1033
7809,1003,1032
7810,1004,1032
7811,1005,1035
7812,1004,1039
7813,1005,1042
7814,1006,1042
7815,1007,1041
7816,1007,1034
7817,1008,1033
7818,1006,1035
7819,1005,1036
7820,1005,1035
7821,1004,1036
7822,1006,1034
7823,1006,1034
7824,1008,1035
7825,1010,1038
7826,1010,1039
7827,1011,1039
7828,1010,1035
7829,1011,1033
7830,1008,1034
7831,1007,1037
7832,1005,1038
7833,1007,1039
7834,1006,1039
7835,1008,1036
7836,1010,1040
7837,1008,1043
7838,1012,1046
7839,1012,1044
7840,1013,1039
7841,1012,1036
7842,1010,1036
7843,1010,1041
7844,1008,1041
7845,1007,1039
7846,1011,1038
7847,1015,1038
7848,1017,1043
7849,1021,1050
7850,1025,1053
7851,1028,1055
7852,1029,1054
7853,1030,1050
7854,1029,1049
7855,1028,1049
7856,1029,1051
7857,1032,1046
7858,1035,1043
7859,1037,1039
7860,1040,1038
7861,1041,1040
7862,1043,1039
7863,1042,1039
7864,1042,1037
7865,1042,1034
7866,1039,1032
7867,1034,1033
7868,1031,1033
7869,1027,1035
7870,1021,1033
7871,1019,1032
7872,1015,1033
7873,1014,1037
7874,1012,1044
7875,1009,1043
7876,1008,1041
7877,1006,1035
7878,1003,1030
7879,999,1029
7880,997,1032
7881,995,1033
7882,995,1032
7883,995,1032
7884,996,1031
7885,995,1031
7886,994,1035
7887,993,1039
7888,993,1039
7889,994,1035
7890,993,1032
7891,993,1030
7892,990,1031
7893,989,1030
7894,987,1030
7895,986,1028
7896,983,1024
7897,985,1026
7898,987,1031
7899,994,1037
7900,1008,1038
7901,1027,1031
7902,1050,1023
7903,1085,1017
7904,1127,1013
7905,1178,1019
7906,1233,1030
7907,1287,1047
7908,1329,1065
7909,1354,1084
7910,1351,1104
7911,1322,1126
7912,1273,1137
7913,1207,1128
7914,1141,1101
7915,1080,1068
7916,1035,1036
7917,1005,1018
7918,986,1006
7919,982,1007
7920,985,1010
7921,993,1018
7922,996,1024
7923,997,1034
7924,994,1036
7925,987,1035
7926,982,1028
7927,976,1021
7928,972,1021
7929,971,1024
7930,970,1029
7931,973,1031
7932,976,1031
7933,975,1030
7934,979,1031
7935,978,1033
7936,977,1034
7937,972,1031
7938,971,1027
7939,968,1024
7940,970,1023
7941,967,1023
7942,969,1028
7943,971,1033
7944,972,1033
7945,976,1029
7946,978,1025
7947,978,1025
7948,976,1027
7949,974,1028
7950,973,1024
7951,973,1020
7952,970,1019
7953,974,1021
7954,971,1026
7955,974,1028
7956,974,1024
7957,977,1025
7958,978,1024
7959,979,1025
7960,979,1025
7961,978,1025
7962,979,1024
7963,980,1019
7964,978,1014
7965,977,1014
7966,980,1017
7967,980,1022
7968,982,1020
7969,984,1021
7970,985,1019
7971,988,1015
7972,986,1014
7973,987,1013
7974,988,1009
7975,984,1005
7976,987,1005
7977,987,1009
7978,989,1012
7979,989,1011
7980,992,1012
7981,996,1010
7982,998,1006
7983,998,1008
7984,996,1009
7985,992,1007
7986,994,1005
7987,994,1001
7988,995,998
7989,994,1002
7990,996,1001
7991,996,1004
7992,999,1002
7993,1001,1002
7994,1000,1003
7995,1000,1007
7996,999,1007
7997,998,1007
7998,999,1004
7999,999,1002
8000,999,1002
8001,999,1006
8002,1001,1011
8003,1002,1014
8004,1003,1015
8005,1005,1017
8006,1007,1023
8007,1009,1026
8008,1008,1032
8009,1011,1030
8010,1011,1029
8011,1009,1025
8012,1008,1028
8013,1008,1030
8014,1008,1034
8015,1008,1038
8016,1009,1037
8017,1011,1040
8018,1009,1040
8019,1009,1046
8020,1008,1047
8021,1006,1044
8022,1006,1040
8023,1005,1038
8024,1005,1041
8025,1006,1045
8026,1005,1043
8027,1006,1039
8028,1004,1036
8029,1006,1035
8030,1005,1039
8031,1004,1039
8032,1005,1042
8033,1005,1036
8034,1007,1036
8035,1004,1035
8036,1001,1037
8037,1002,1039
8038,1002,1040
8039,1003,1039
8040,1002,1038
8041,1005,1040
8042,1009,1045
8043,1005,1043
8044,1007,1041
8045,1006,1037
8046,1004,1035
8047,1005,1037
8048,1004,1036
8049,1002,1036
8050,1003,1035
8051,1006,1035
8052,1009,1037
8053,1010,1041
8054,1014,1043
8055,1014,1043
8056,1014,1039
8057,1009,1037
8058,1007,1037
8059,1006,1041
8060,1005,1039
8061,1006,1040
8062,1008,1038
8063,1011,1039
8064,1010,1041
8065,1012,1044
8066,1012,1046
8067,1009,1043
8068,1009,1041
8069,1007,1036
8070,1007,1037
8071,1007,1038
8072,1006,1039
8073,1007,1037
8074,1007,1037
8075,1009,1037
8076,1008,1040
8077,1010,1045
8078,1013,1048
8079,1013,1048
8080,1016,1046
8081,1016,1047
8082,1017,1047
8083,1016,1050
8084,1017,1051
8085,1022,1050
8086,1024,1049
8087,1027,1051
8088,1031,1052
8089,1032,1055
8090,1036,1057
8091,1038,1055
8092,1044,1049
8093,1046,1044
8094,1046,1042
8095,1046,1041
8096,1041,1038
8097,1040,1037
8098,1039,1038
8099,1038,1037
8100,1039,1040
8101,1039,1041
8102,1039,1041
8103,1038,1038
8104,1032,1035
8105,1029,1034
8106,1023,1034
8107,1017,1038
8108,1016,1040
8109,1009,1040
8110,1006,1036
8111,1004,1037
8112,1002,1040
8113,1002,1042
8114,1003,1042
8115,1003,1039
8116,1004,1036
8117,1003,1033
8118,1002,1033
8119,999,1035
8120,999,1036
8121,997,1036
8122,997,1037
8123,995,1035
8124,994,1036
8125,995,1040
8126,997,1042
8127,994,1037
8128,997,1034
8129,994,1029
8130,991,1025
8131,988,1027
8132,992,1031
8133,999,1033
8134,1017,1033
8135,1040,1031
8136,1069,1027
8137,1108,1025
8138,1159,1026
8139,1216,1035
8140,1273,1047
8141,1322,1069
8142,1351,1092
8143,1354,1121
8144,1329,1145
8145,1282,1155
8146,1221,1148
8147,1153,1125
8148,1090,1094
8149,1040,1062
8150,1004,1035
8151,988,1017
8152,984,1008
8153,992,1009
8154,996,1017
8155,1002,1026
8156,1002,1036
8157,1002,1041
8158,997,1042
8159,995,1036
8160,988,1036
8161,986,1035
8162,984,1035
8163,982,1037
8164,982,1034
8165,982,1033
8166,981,1031
8167,983,1028
8168,980,1033
8169,981,1036
8170,981,1038
8171,983,1037
8172,984,1036
8173,985,1033
8174,988,1035
8175,986,1035
8176,985,1034
8177,985,1033
8178,984,1027
8179,983,1025
8180,982,1027
8181,981,1030
8182,983,1035
8183,988,1036
8184,989,1037
8185,992,1035
8186,993,1035
8187,990,1034
8188,992,1035
8189,991,1033
8190,988,1026
8191,987,1022
8192,984,1020
8193,986,1026
8194,987,1029
8195,991,1031
8196,993,1030
8197,995,1027
8198,997,1026
8199,996,1026
8200,998,1030
8201,992,1027
8202,994,1023
8203,995,1019
8204,995,1017
8205,994,1021
8206,995,1022
8207,995,1026
8208,998,1024
8209,1001,1020
8210,1002,1021
8211,1002,1021
8212,1004,1023
8213,1003,1024
8214,1004,1019
8215,1004,1010
8216,1003,1007
8217,1002,1006
8218,1001,1011
8219,1003,1014
8220,1008,1016
8221,1011,1015
8222,1011,1011
8223,1014,1013
8224,1012,1010
8225,1012,1013
8226,1011,1011
8227,1010,1009
8228,1011,1003
8229,1012,1007
8230,1010,1009
8231,1010,1016
8232,1010,1016
8233,1010,1015
8234,1012,1014
8235,1013,1012
8236,1014,1011
8237,1012,1016
8238,1014,1018
8239,1014,1018
8240,1014,1017
8241,1014,1021
8242,1020,1026
8243,1022,1031
8244,1020,1034
8245,1023,1036
8246,1026,1036
8247,1027,1036
8248,1027,1041
8249,1024,1045
8250,1026,1044
8251,1024,1042
8252,1025,1042
8253,1024,1043
8254,1023,1046
8255,1023,1050
8256,1024,1051
8257,1022,1052
8258,1021,1050
8259,1020,1048
8260,1021,1047
8261,1019,1050
8262,1017,1051
8263,1018,1049
8264,1019,1050
8265,1019,1047
8266,1020,1046
8267,1020,1051
8268,1020,1054
8269,1019,1056
8270,1023,1054
8271,1022,1048
8272,1022,1049
8273,1022,1052
8274,1021,1052
8275,1020,1051
8276,1018,1050
8277,1018,1046
8278,1018,1046
8279,1021,1050
8280,1021,1052
8281,1022,1055
8282,1024,1053
8283,1025,1046
8284,1024,1045
8285,1021,1045
8286,1020,1048
8287,1018,1049
8288,1015,1047
8289,1014,1043
8290,1014,1045
8291,1016,1049
8292,1021,1052
8293,1022,1054
8294,1022,1054
8295,1022,1051
8296,1021,1051
8297,1020,1050
8298,1019,1052
8299,1019,1049
8300,1018,1046
8301,1017,1045
8302,1016,1045
8303,1017,1048
8304,1019,1054
8305,1020,1056
8306,1023,1056
8307,1024,1051
8308,1023,1051
8309,1019,1049
8310,1017,1050
8311,1018,1053
8312,1016,1050
8313,1013,1048
8314,1012,1051
8315,1014,1051
8316,1017,1056
8317,1020,1057
8318,1025,1059
8319,1027,1054
8320,1030,1056
8321,1031,1057
8322,1030,1062
8323,1031,1061
8324,1031,1059
8325,1029,1057
8326,1031,1059
8327,1032,1064
8328,1036,1065
8329,1039,1067
8330,1048,1063
8331,1052,1058
8332,1057,1054
8333,1059,1054
8334,1056,1054
8335,1053,1052
8336,1051,1049
8337,1048,1051
8338,1046,1049
8339,1044,1051
8340,1045,1052
8341,1044,1050
8342,1044,1047
8343,1038,1045
8344,1035,1048
8345,1029,1052
8346,1023,1051
8347,1020,1051
8348,1016,1047
8349,1013,1049
8350,1011,1051
8351,1009,1051
8352,1005,1049
8353,1005,1047
8354,1005,1044
8355,1008,1045
8356,1009,1049
8357,1008,1051
8358,1008,1048
8359,1007,1044
8360,1003,1040
8361,1002,1040
8362,1000,1043
8363,997,1047
8364,1002,1047
8365,1004,1045
8366,1002,1043
8367,998,1038
8368,995,1038
8369,998,1042
8370,1002,1042
8371,1014,1037
8372,1033,1036
8373,1056,1032
8374,1091,1031
8375,1137,1033
8376,1184,1039
8377,1236,1046
8378,1288,1064
8379,1328,1090
8380,1350,1120
8381,1347,1148
8382,1315,1165
8383,1267,1170
8384,1201,1158
8385,1132,1132
8386,1074,1099
8387,1031,1066
8388,1002,1038
8389,992,1020
8390,991,1015
8391,998,1023
8392,1001,1036
8393,1008,1049
8394,1009,1056
8395,1004,1053
8396,997,1046
8397,992,1043
8398,988,1042
8399,984,1046
8400,986,1047
8401,988,1050
8402,991,1047
8403,992,1044
8404,991,1045
8405,991,1044
8406,988,1045
8407,986,1046
8408,986,1043
8409,985,1038
8410,985,1041
8411,985,1043
8412,987,1049
8413,990,1049
8414,990,1045
8415,991,1043
8416,992,1043
8417,992,1042
8418,990,1044
8419,988,1044
8420,991,1040
8421,990,1040
8422,989,1037
8423,988,1041
8424,987,1044
8425,991,1047
8426,992,1046
8427,993,1042
8428,996,1038
8429,996,1036
8430,996,1038
8431,994,1038
8432,993,1038
8433,993,1034
8434,994,1036
8435,995,1037
8436,995,1039
8437,994,1041
8438,997,1043
8439,999,1038
8440,1000,1034
8441,1001,1029
8442,997,1034
8443,999,1032
8444,1001,1033
8445,1000,1031
8446,1001,1028
8447,999,1027
8448,1003,1027
8449,1003,1030
8450,1004,1031
8451,1004,1029
8452,1005,1026
8453,1009,1022
8454,1007,1023
8455,1009,1023
8456,1007,1024
8457,1012,1024
8458,1010,1022
8459,1011,1021
8460,1013,1021
8461,1012,1027
