'sample #','V5','V2'
0,984,1025
1,984,1025
2,984,1025
3,984,1025
4,984,1025
5,984,1025
6,984,1025
7,984,1025
8,986,1025
9,989,1025
10,986,1025
11,983,1023
12,982,1023
13,984,1026
14,985,1022
15,982,1022
16,978,1020
17,977,1017
18,975,1019
19,977,1022
20,978,1018
21,978,1016
22,975,1014
23,970,1012
24,972,1015
25,976,1017
26,979,1013
27,980,1011
28,979,1009
29,979,1005
30,979,1007
31,979,1009
32,980,1007
33,977,1006
34,972,1004
35,972,1000
36,972,1003
37,972,1004
38,973,1003
39,973,999
40,972,997
41,972,995
42,971,998
43,974,1002
44,976,998
45,973,996
46,971,994
47,968,994
48,972,993
49,973,996
50,974,994
51,975,994
52,974,989
53,973,990
54,975,993
55,976,993
56,974,993
57,975,990
58,971,988
59,970,989
60,974,991
61,974,994
62,975,992
63,974,992
64,973,994
65,973,994
66,976,996
67,975,999
68,971,999
69,972,998
70,970,999
71,968,997
72,968,999
73,971,1001
74,971,999
75,972,997
76,971,997
77,973,996
78,975,997
79,978,998
80,978,995
81,977,993
82,978,991
83,977,987
84,981,985
85,986,988
86,989,986
87,989,984
88,985,982
89,979,980
90,979,983
91,979,981
92,978,979
93,981,977
94,979,973
95,979,974
96,983,975
97,991,979
98,997,978
99,997,980
100,995,980
101,991,978
102,990,982
103,990,983
104,987,981
105,983,985
106,979,992
107,978,1008
108,985,1053
109,993,1130
110,1000,1185
111,1010,1171
112,1023,1121
113,1067,1081
114,1139,1072
115,1193,1068
116,1184,1055
117,1129,1044
118,1079,1031
119,1060,1011
120,1063,993
121,1070,970
122,1075,941
123,1080,905
124,1081,871
125,1084,835
126,1088,812
127,1092,793
128,1095,776
129,1093,755
130,1090,733
131,1088,703
132,1092,673
133,1100,638
134,1104,604
135,1106,577
136,1103,552
137,1097,526
138,1091,505
139,1086,484
140,1076,466
141,1063,452
142,1049,438
143,1034,423
144,1017,415
145,998,411
146,974,405
147,953,398
148,940,393
149,937,393
150,945,395
151,948,405
152,946,418
153,943,433
154,936,459
155,931,486
156,930,519
157,932,555
158,937,594
159,940,636
160,943,682
161,948,729
162,956,776
163,962,825
164,965,864
165,963,902
166,962,935
167,960,968
168,960,1007
169,962,1037
170,962,1068
171,963,1094
172,966,1116
173,966,1135
174,971,1151
175,972,1162
176,976,1172
177,975,1179
178,976,1189
179,977,1194
180,981,1205
181,984,1213
182,985,1218
183,983,1225
184,981,1233
185,984,1238
186,984,1249
187,986,1258
188,986,1263
189,986,1271
190,987,1274
191,985,1285
192,987,1295
193,989,1304
194,991,1311
195,990,1317
196,990,1325
197,992,1334
198,994,1345
199,996,1354
200,997,1360
201,997,1366
202,994,1370
203,994,1380
204,996,1390
205,998,1397
206,1000,1402
207,1000,1404
208,1001,1408
209,1001,1410
210,1004,1414
211,1006,1419
212,1007,1415
213,1008,1416
214,1006,1415
215,1006,1412
216,1008,1413
217,1012,1409
218,1012,1403
219,1014,1395
220,1015,1388
221,1010,1380
222,1013,1376
223,1013,1367
224,1016,1355
225,1016,1345
226,1015,1331
227,1014,1318
228,1014,1310
229,1014,1296
230,1014,1284
231,1014,1271
232,1014,1255
233,1011,1241
234,1011,1230
235,1011,1220
236,1010,1206
237,1010,1191
238,1006,1176
239,1003,1167
240,1003,1155
241,1003,1147
242,1002,1135
243,1002,1123
244,996,1113
245,994,1104
246,994,1097
247,993,1089
248,994,1079
249,993,1071
250,987,1061
251,987,1056
252,988,1054
253,987,1051
254,989,1044
255,986,1039
256,983,1033
257,979,1028
258,980,1030
259,983,1028
260,984,1024
261,981,1021
262,979,1020
263,979,1017
264,978,1017
265,978,1016
266,979,1014
267,979,1010
268,978,1010
269,976,1011
270,975,1010
271,978,1013
272,977,1010
273,978,1009
274,975,1008
275,974,1007
276,978,1010
277,977,1011
278,978,1010
279,977,1010
280,974,1008
281,975,1007
282,975,1009
283,977,1013
284,976,1012
285,978,1012
286,977,1011
287,975,1010
288,977,1012
289,978,1016
290,979,1017
291,980,1016
292,980,1016
293,977,1016
294,978,1016
295,980,1020
296,983,1020
297,979,1016
298,978,1018
299,978,1017
300,978,1021
301,981,1020
302,981,1020
303,980,1018
304,977,1019
305,976,1018
306,977,1017
307,978,1021
308,979,1020
309,978,1017
310,974,1015
311,973,1015
312,975,1017
313,976,1016
314,976,1015
315,976,1015
316,973,1012
317,973,1008
318,972,1011
319,975,1012
320,975,1011
321,974,1006
322,971,1005
323,969,1004
324,970,1005
325,974,1004
326,973,1003
327,970,1001
328,969,997
329,967,996
330,967,997
331,971,1000
332,969,997
333,969,995
334,968,993
335,966,994
336,969,994
337,969,994
338,971,993
339,969,992
340,966,990
341,963,988
342,964,990
343,966,991
344,967,988
345,967,987
346,965,986
347,963,987
348,966,987
349,965,987
350,969,985
351,969,986
352,963,983
353,965,982
354,964,983
355,967,984
356,968,982
357,966,981
358,963,980
359,964,979
360,963,981
361,966,983
362,965,980
363,966,981
364,963,977
365,962,978
366,962,980
367,966,981
368,966,981
369,964,980
370,965,979
371,963,979
372,964,980
373,965,981
374,966,980
375,966,981
376,965,975
377,964,977
378,967,978
379,968,981
380,967,978
381,969,978
382,963,975
383,965,977
384,966,978
385,967,982
386,968,981
387,967,978
388,964,978
389,963,976
390,963,980
391,966,983
392,966,983
393,968,981
394,967,982
395,967,983
396,969,990
397,970,996
398,972,997
399,972,994
400,973,998
401,973,1011
402,978,1049
403,986,1122
404,993,1182
405,1004,1173
406,1026,1123
407,1072,1088
408,1150,1073
409,1207,1066
410,1201,1052
411,1143,1039
412,1088,1022
413,1064,1002
414,1062,982
415,1066,954
416,1065,921
417,1066,885
418,1063,847
419,1062,803
420,1064,770
421,1069,743
422,1070,718
423,1068,692
424,1065,661
425,1061,621
426,1063,579
427,1060,540
428,1059,510
429,1055,482
430,1047,458
431,1038,437
432,1033,419
433,1024,407
434,1016,399
435,1003,390
436,993,383
437,981,380
438,968,376
439,954,380
440,943,378
441,934,375
442,936,376
443,946,382
444,958,390
445,967,405
446,968,426
447,963,449
448,959,473
449,951,506
450,952,546
451,954,589
452,957,636
453,962,680
454,966,728
455,966,784
456,966,832
457,962,875
458,960,916
459,957,956
460,956,996
461,955,1030
462,953,1062
463,957,1095
464,957,1116
465,957,1134
466,956,1151
467,955,1159
468,958,1173
469,960,1183
470,963,1192
471,964,1201
472,964,1208
473,964,1216
474,966,1226
475,967,1234
476,967,1241
477,968,1246
478,966,1252
479,968,1261
480,967,1270
481,971,1279
482,971,1284
483,970,1288
484,971,1294
485,970,1304
486,971,1311
487,974,1322
488,975,1327
489,975,1334
490,975,1338
491,974,1349
492,974,1357
493,979,1364
494,979,1371
495,978,1376
496,977,1381
497,975,1390
498,981,1396
499,982,1404
500,985,1408
501,984,1409
502,984,1411
503,983,1416
504,985,1417
505,990,1421
506,992,1420
507,991,1416
508,992,1411
509,991,1409
510,995,1407
511,997,1403
512,997,1396
513,997,1386
514,998,1376
515,997,1369
516,999,1359
517,1000,1350
518,1002,1335
519,999,1322
520,999,1308
521,997,1294
522,998,1284
523,999,1271
524,1000,1256
525,999,1237
526,998,1224
527,996,1210
528,997,1199
529,997,1190
530,998,1176
531,997,1162
532,994,1151
533,992,1139
534,992,1132
535,995,1123
536,994,1113
537,993,1104
538,989,1092
539,986,1083
540,987,1080
541,987,1073
542,987,1065
543,986,1058
544,983,1052
545,983,1047
546,983,1046
547,984,1043
548,983,1037
549,982,1033
550,978,1030
551,980,1029
552,979,1027
553,981,1028
554,980,1025
555,980,1020
556,978,1017
557,979,1017
558,980,1016
559,979,1020
560,978,1016
561,978,1015
562,977,1014
563,976,1013
564,979,1015
565,979,1019
566,979,1017
567,980,1016
568,979,1014
569,977,1013
570,979,1017
571,980,1018
572,982,1019
573,981,1017
574,978,1017
575,977,1017
576,979,1018
577,982,1021
578,982,1020
579,980,1021
580,980,1018
581,978,1019
582,979,1023
583,981,1025
584,980,1024
585,981,1022
586,978,1021
587,978,1018
588,980,1019
589,982,1023
590,981,1025
591,981,1020
592,979,1017
593,979,1017
594,979,1018
595,981,1019
596,980,1018
597,977,1016
598,976,1013
599,977,1012
600,976,1014
601,978,1015
602,979,1014
603,978,1010
604,976,1007
605,975,1007
606,975,1007
607,976,1009
608,978,1005
609,976,1002
610,975,999
611,974,1001
612,974,1001
613,975,1001
614,976,998
615,976,995
616,973,994
617,970,995
618,973,994
619,973,997
620,975,993
621,973,991
622,972,989
623,970,988
624,971,989
625,971,991
626,971,990
627,973,986
628,971,987
629,970,985
630,969,986
631,972,987
632,972,988
633,971,984
634,970,981
635,970,981
636,969,983
637,972,982
638,973,981
639,971,981
640,968,978
641,966,981
642,967,981
643,970,982
644,971,983
645,970,980
646,968,978
647,966,977
648,966,981
649,969,981
650,971,979
651,970,978
652,966,977
653,968,977
654,969,977
655,972,978
656,972,980
657,970,976
658,967,976
659,967,975
660,970,975
661,971,978
662,970,978
663,971,976
664,967,974
665,967,975
666,968,977
667,971,979
668,971,977
669,970,975
670,970,972
671,970,972
672,971,977
673,971,976
674,971,976
675,970,973
676,970,973
677,968,975
678,968,975
679,972,978
680,973,978
681,973,977
682,972,973
683,971,977
684,973,979
685,975,983
686,977,983
687,976,987
688,978,999
689,977,1037
690,985,1113
691,994,1191
692,1000,1202
693,1017,1151
694,1058,1094
695,1127,1068
696,1198,1059
697,1198,1048
698,1138,1031
699,1079,1014
700,1055,992
701,1054,964
702,1059,937
703,1060,902
704,1059,866
705,1056,821
706,1056,779
707,1056,748
708,1058,720
709,1057,699
710,1055,667
711,1051,628
712,1047,584
713,1047,544
714,1048,512
715,1046,490
716,1042,470
717,1032,447
718,1024,423
719,1012,406
720,1002,401
721,992,394
722,983,387
723,970,381
724,957,375
725,939,374
726,923,376
727,918,375
728,920,373
729,928,374
730,935,375
731,943,380
732,949,392
733,955,408
734,957,427
735,956,450
736,958,476
737,960,515
738,965,554
739,970,606
740,973,661
741,979,716
742,980,769
743,979,824
744,973,871
745,970,918
746,966,961
747,963,999
748,962,1035
749,959,1074
750,960,1104
751,962,1129
752,966,1146
753,965,1155
754,963,1164
755,961,1174
756,963,1184
757,963,1192
758,964,1200
759,964,1205
760,963,1208
761,961,1216
762,963,1223
763,965,1230
764,965,1233
765,962,1240
766,961,1242
767,961,1251
768,960,1258
769,963,1263
770,964,1267
771,961,1277
772,962,1278
773,961,1289
774,963,1295
775,965,1304
776,966,1310
777,964,1316
778,964,1321
779,965,1329
780,965,1338
781,969,1348
782,972,1352
783,968,1358
784,968,1364
785,970,1372
786,972,1379
787,973,1389
788,975,1395
789,976,1399
790,975,1400
791,975,1406
792,977,1412
793,983,1415
794,982,1418
795,984,1415
796,982,1416
797,983,1415
798,988,1418
799,991,1413
800,993,1411
801,993,1405
802,993,1396
803,993,1390
804,996,1384
805,997,1379
806,1001,1368
807,999,1354
808,999,1342
809,997,1329
810,1000,1318
811,999,1308
812,1002,1292
813,1001,1274
814,998,1261
815,997,1248
816,998,1234
817,1001,1222
818,999,1207
819,1001,1192
820,1000,1178
821,996,1165
822,999,1156
823,998,1146
824,999,1134
825,997,1122
826,995,1112
827,994,1101
828,994,1095
829,995,1089
830,994,1080
831,989,1073
832,988,1064
833,984,1061
834,986,1055
835,986,1053
836,987,1050
837,984,1046
838,982,1040
839,980,1037
840,982,1037
841,982,1035
842,979,1034
843,979,1029
844,978,1026
845,977,1023
846,979,1025
847,979,1026
848,980,1025
849,979,1025
850,975,1023
851,974,1024
852,976,1024
853,977,1025
854,978,1024
855,979,1023
856,976,1020
857,976,1022
858,977,1023
859,976,1024
860,977,1025
861,975,1022
862,973,1022
863,972,1022
864,973,1024
865,975,1024
866,973,1023
867,973,1021
868,973,1022
869,972,1021
870,973,1021
871,976,1023
872,976,1022
873,975,1020
874,971,1019
875,967,1016
876,968,1019
877,969,1021
878,973,1020
879,975,1014
880,974,1011
881,971,1012
882,974,1012
883,974,1013
884,974,1013
885,973,1009
886,969,1004
887,966,1004
888,967,1007
889,966,1006
890,970,1003
891,969,1002
892,968,1000
893,967,999
894,967,1001
895,966,999
896,967,1000
897,964,999
898,965,996
899,964,992
900,966,995
901,966,992
902,969,993
903,967,989
904,962,988
905,963,988
906,962,989
907,963,991
908,964,988
909,963,987
910,963,983
911,961,983
912,964,986
913,965,985
914,965,984
915,965,982
916,962,980
917,958,983
918,963,983
919,964,984
920,966,981
921,966,981
922,964,978
923,962,978
924,963,980
925,964,981
926,965,981
927,964,977
928,963,974
929,961,975
930,964,977
931,963,977
932,964,978
933,966,976
934,963,973
935,961,975
936,963,975
937,963,976
938,965,974
939,965,974
940,963,971
941,963,973
942,965,976
943,963,976
944,965,973
945,965,973
946,961,969
947,962,972
948,961,974
949,964,976
950,965,976
951,963,973
952,962,969
953,960,971
954,962,973
955,964,972
956,967,974
957,968,973
958,967,970
959,966,970
960,966,974
961,970,976
962,970,973
963,968,972
964,965,971
965,963,972
966,966,974
967,966,976
968,967,974
969,967,973
970,967,970
971,965,971
972,965,974
973,968,977
974,970,977
975,970,973
976,969,973
977,970,974
978,974,977
979,976,987
980,978,998
981,979,1039
982,984,1112
983,990,1168
984,1005,1157
985,1035,1106
986,1094,1071
987,1167,1056
988,1200,1043
989,1164,1033
990,1102,1019
991,1065,1003
992,1054,977
993,1054,949
994,1053,918
995,1049,883
996,1046,844
997,1049,805
998,1051,766
999,1052,704
1000,1048,678
1001,1046,651
1002,1042,621
1003,1042,583
1004,1042,538
1005,1040,506
1006,1036,483
1007,1033,466
1008,1031,449
1009,1022,428
1010,1015,410
1011,1004,395
1012,990,390
1013,980,385
1014,971,383
1015,962,376
1016,949,373
1017,932,368
1018,914,369
1019,904,374
1020,904,372
1021,906,375
1022,910,377
1023,919,377
1024,924,385
1025,927,400
1026,928,419
1027,927,444
1028,926,470
1029,928,502
1030,927,543
1031,934,589
1032,940,639
1033,949,687
1034,957,736
1035,960,787
1036,961,837
1037,960,882
1038,960,925
1039,963,964
1040,965,995
1041,964,1025
1042,965,1059
1043,968,1088
1044,970,1115
1045,973,1131
1046,974,1142
1047,978,1151
1048,979,1163
1049,980,1171
1050,982,1178
1051,981,1182
1052,979,1187
1053,977,1190
1054,975,1198
1055,979,1203
1056,982,1209
1057,982,1216
1058,985,1219
1059,984,1226
1060,981,1233
1061,981,1241
1062,980,1247
1063,979,1251
1064,978,1254
1065,978,1255
1066,974,1262
1067,975,1270
1068,974,1275
1069,976,1282
1070,977,1286
1071,977,1290
1072,975,1296
1073,976,1305
1074,975,1311
1075,973,1320
1076,972,1322
1077,969,1324
1078,969,1332
1079,972,1340
1080,973,1349
1081,973,1351
1082,972,1353
1083,971,1357
1084,971,1365
1085,974,1374
1086,976,1379
1087,977,1381
1088,979,1384
1089,978,1386
1090,978,1389
1091,981,1394
1092,982,1397
1093,980,1399
1094,982,1398
1095,981,1394
1096,982,1396
1097,985,1396
1098,989,1397
1099,994,1396
1100,995,1390
1101,993,1383
1102,992,1378
1103,991,1377
1104,995,1371
1105,996,1363
1106,998,1353
1107,999,1342
1108,1003,1332
1109,1004,1323
1110,1007,1315
1111,1009,1301
1112,1008,1289
1113,1003,1273
1114,1004,1265
1115,1005,1253
1116,1005,1243
1117,1007,1232
1118,1006,1216
1119,1004,1201
1120,1001,1193
1121,1004,1182
1122,1006,1174
1123,1006,1162
1124,1005,1147
1125,1001,1135
1126,999,1125
1127,1000,1117
1128,1002,1109
1129,1001,1101
1130,1000,1091
1131,1000,1082
1132,996,1075
1133,996,1072
1134,997,1067
1135,996,1062
1136,992,1055
1137,990,1046
1138,988,1044
1139,989,1042
1140,989,1040
1141,991,1037
1142,988,1030
1143,986,1027
1144,984,1024
1145,984,1023
1146,987,1023
1147,985,1022
1148,988,1018
1149,983,1016
1150,981,1018
1151,981,1017
1152,982,1018
1153,982,1016
1154,980,1014
1155,978,1012
1156,977,1014
1157,978,1016
1158,980,1017
1159,980,1015
1160,979,1015
1161,978,1013
1162,977,1014
1163,978,1014
1164,979,1017
1165,979,1017
1166,977,1014
1167,976,1016
1168,973,1014
1169,976,1015
1170,978,1016
1171,978,1018
1172,977,1011
1173,973,1012
1174,972,1014
1175,974,1016
1176,975,1016
1177,975,1016
1178,975,1013
1179,974,1010
1180,972,1013
1181,972,1013
1182,976,1015
1183,974,1015
1184,972,1011
1185,974,1008
1186,972,1007
1187,973,1010
1188,975,1011
1189,975,1008
1190,972,1006
1191,972,1003
1192,973,1003
1193,972,1005
1194,972,1005
1195,973,1003
1196,971,1001
1197,969,998
1198,968,996
1199,970,999
1200,971,997
1201,972,997
1202,969,995
1203,969,992
1204,967,992
1205,968,993
1206,970,992
1207,969,990
1208,969,991
1209,966,988
1210,964,986
1211,967,985
1212,968,989
1213,968,989
1214,966,983
1215,966,983
1216,964,981
1217,964,982
1218,969,984
1219,967,984
1220,967,980
1221,965,979
1222,963,978
1223,964,982
1224,966,983
1225,967,982
1226,967,976
1227,963,974
1228,963,976
1229,964,978
1230,966,978
1231,964,978
1232,965,974
1233,961,973
1234,961,975
1235,962,975
1236,964,975
1237,964,976
1238,963,971
1239,963,972
1240,960,973
1241,964,974
1242,965,975
1243,965,975
1244,964,973
1245,961,970
1246,960,970
1247,962,969
1248,963,974
1249,966,973
1250,964,972
1251,962,968
1252,961,969
1253,963,972
1254,964,971
1255,964,972
1256,965,970
1257,961,968
1258,961,969
1259,961,970
1260,964,971
1261,965,970
1262,963,967
1263,961,966
1264,961,968
1265,963,970
1266,965,971
1267,964,971
1268,965,967
1269,960,968
1270,960,967
1271,966,971
1272,964,971
1273,965,971
1274,964,971
1275,965,967
1276,964,969
1277,964,971
1278,964,973
1279,964,970
1280,966,968
1281,963,966
1282,964,971
1283,962,970
1284,964,971
1285,967,972
1286,965,969
1287,963,968
1288,962,970
1289,966,971
1290,969,973
1291,970,971
1292,970,972
1293,967,972
1294,968,981
1295,971,991
1296,974,1020
1297,978,1074
1298,983,1150
1299,990,1194
1300,998,1175
1301,1021,1126
1302,1067,1090
1303,1140,1072
1304,1193,1058
1305,1187,1049
1306,1132,1036
1307,1078,1027
1308,1055,1013
1309,1051,992
1310,1052,965
1311,1051,938
1312,1052,909
1313,1052,876
1314,1054,843
1315,1057,805
1316,1056,773
1317,1056,741
1318,1058,714
1319,1058,690
1320,1056,663
1321,1053,630
1322,1049,591
1323,1049,547
1324,1044,512
1325,1044,492
1326,1040,473
1327,1034,455
1328,1028,432
1329,1018,414
1330,1008,399
1331,998,394
1332,992,388
1333,980,382
1334,968,376
1335,956,370
1336,942,371
1337,928,372
1338,918,373
1339,911,371
1340,913,370
1341,919,370
1342,926,375
1343,931,382
1344,935,393
1345,934,407
1346,935,423
1347,935,440
1348,934,468
1349,938,501
1350,942,531
1351,944,567
1352,947,602
1353,950,643
1354,956,690
1355,963,739
1356,968,787
1357,968,830
1358,965,867
1359,960,902
1360,959,944
1361,960,980
1362,960,1013
1363,959,1046
1364,960,1074
1365,958,1101
1366,959,1127
1367,960,1147
1368,965,1162
1369,965,1173
1370,966,1181
1371,966,1189
1372,966,1197
1373,969,1207
1374,969,1216
1375,967,1222
1376,969,1226
1377,971,1230
1378,971,1237
1379,974,1246
1380,974,1253
1381,975,1256
1382,975,1260
1383,974,1261
1384,976,1271
1385,979,1274
1386,978,1281
1387,979,1282
1388,978,1284
1389,979,1286
1390,977,1292
1391,981,1297
1392,984,1302
1393,988,1306
1394,987,1309
1395,988,1315
1396,989,1324
1397,989,1333
1398,989,1341
1399,988,1351
1400,984,1356
1401,980,1361
1402,978,1366
1403,979,1375
1404,977,1380
1405,976,1385
1406,973,1389
1407,974,1389
1408,973,1395
1409,976,1402
1410,978,1405
1411,977,1408
1412,978,1408
1413,976,1405
1414,976,1405
1415,978,1407
1416,981,1406
1417,979,1402
1418,980,1395
1419,982,1388
1420,982,1385
1421,985,1381
1422,985,1373
1423,987,1364
1424,986,1353
1425,986,1343
1426,987,1334
1427,990,1325
1428,991,1318
1429,990,1302
1430,992,1291
1431,990,1274
1432,991,1262
1433,995,1251
1434,994,1241
1435,995,1228
1436,994,1213
1437,993,1198
1438,992,1185
1439,992,1173
1440,994,1165
1441,993,1151
1442,994,1137
1443,991,1125
1444,989,1117
1445,991,1110
1446,991,1101
1447,989,1093
1448,987,1080
1449,983,1073
1450,983,1066
1451,984,1062
1452,985,1058
1453,984,1051
1454,981,1042
1455,981,1039
1456,979,1032
1457,980,1034
1458,982,1031
1459,981,1028
1460,981,1024
1461,976,1018
1462,975,1017
1463,974,1018
1464,976,1019
1465,975,1016
1466,974,1013
1467,972,1011
1468,972,1013
1469,972,1015
1470,974,1015
1471,975,1014
1472,973,1011
1473,974,1009
1474,971,1011
1475,970,1014
1476,975,1015
1477,973,1015
1478,974,1011
1479,971,1009
1480,969,1014
1481,969,1015
1482,971,1016
1483,968,1015
1484,968,1013
1485,967,1009
1486,966,1011
1487,969,1014
1488,970,1013
1489,967,1013
1490,969,1012
1491,966,1010
1492,965,1013
1493,970,1013
1494,969,1013
1495,969,1012
1496,967,1012
1497,966,1007
1498,965,1007
1499,966,1008
1500,966,1009
1501,965,1008
1502,963,1004
1503,963,1002
1504,962,1002
1505,964,1006
1506,966,1006
1507,967,1006
1508,963,997
1509,965,996
1510,962,999
1511,962,999
1512,964,998
1513,963,996
1514,961,995
1515,959,989
1516,960,990
1517,963,993
1518,963,992
1519,960,989
1520,961,987
1521,958,983
1522,959,985
1523,959,985
1524,961,986
1525,963,986
1526,960,983
1527,956,981
1528,958,982
1529,960,982
1530,960,980
1531,960,981
1532,959,980
1533,957,976
1534,957,977
1535,955,976
1536,958,978
1537,960,978
1538,959,975
1539,956,974
1540,955,974
1541,956,976
1542,960,974
1543,961,976
1544,957,975
1545,955,972
1546,957,973
1547,957,973
1548,958,976
1549,957,976
1550,957,972
1551,956,971
1552,956,970
1553,958,973
1554,960,972
1555,958,973
1556,957,972
1557,955,969
1558,954,971
1559,957,971
1560,959,972
1561,960,972
1562,958,967
1563,956,967
1564,955,968
1565,958,969
1566,959,970
1567,959,971
1568,957,967
1569,955,967
1570,956,967
1571,955,968
1572,960,972
1573,961,972
1574,958,968
1575,957,967
1576,956,969
1577,958,970
1578,958,972
1579,959,972
1580,960,973
1581,957,969
1582,958,969
1583,959,972
1584,961,972
1585,961,973
1586,958,972
1587,956,968
1588,958,967
1589,959,971
1590,962,973
1591,963,972
1592,962,972
1593,962,970
1594,959,970
1595,961,970
1596,964,973
1597,964,973
1598,963,972
1599,962,970
1600,962,975
1601,964,978
1602,966,979
1603,968,984
1604,969,991
1605,971,1015
1606,971,1072
1607,978,1147
1608,988,1190
1609,1002,1165
1610,1025,1110
1611,1076,1073
1612,1153,1060
1613,1202,1050
1614,1184,1039
1615,1115,1024
1616,1062,1008
1617,1044,984
1618,1043,963
1619,1048,939
1620,1048,907
1621,1046,872
1622,1045,828
1623,1046,789
1624,1044,754
1625,1048,729
1626,1048,705
1627,1049,679
1628,1043,649
1629,1039,609
1630,1036,572
1631,1037,537
1632,1040,508
1633,1036,482
1634,1030,461
1635,1021,440
1636,1014,425
1637,1008,410
1638,1001,398
1639,990,391
1640,979,384
1641,966,379
1642,954,374
1643,943,376
1644,931,375
1645,915,375
1646,904,371
1647,899,372
1648,906,374
1649,914,377
1650,923,382
1651,929,384
1652,933,391
1653,932,402
1654,933,418
1655,932,444
1656,935,470
1657,936,502
1658,938,536
1659,942,577
1660,946,628
1661,956,681
1662,965,734
1663,965,785
1664,964,831
1665,961,875
1666,953,923
1667,958,967
1668,958,1007
1669,955,1044
1670,953,1077
1671,954,1108
1672,954,1136
1673,958,1156
1674,960,1171
1675,965,1181
1676,963,1188
1677,963,1194
1678,962,1203
1679,962,1213
1680,964,1220
1681,966,1228
1682,968,1232
1683,966,1236
1684,967,1243
1685,967,1251
1686,969,1257
1687,972,1262
1688,970,1269
1689,970,1271
1690,970,1279
1691,973,1287
1692,973,1292
1693,972,1301
1694,972,1304
1695,973,1311
1696,971,1318
1697,972,1327
1698,976,1332
1699,976,1341
1700,976,1348
1701,976,1352
1702,974,1358
1703,976,1368
1704,979,1377
1705,982,1380
1706,980,1385
1707,981,1391
1708,981,1398
1709,984,1407
1710,984,1412
1711,985,1415
1712,984,1419
1713,984,1423
1714,985,1430
1715,987,1432
1716,990,1436
1717,992,1439
1718,994,1436
1719,994,1437
1720,992,1436
1721,995,1438
1722,996,1438
1723,996,1431
1724,996,1425
1725,996,1418
1726,996,1414
1727,997,1410
1728,999,1399
1729,999,1389
1730,1002,1379
1731,1001,1364
1732,999,1356
1733,1006,1346
1734,1008,1331
1735,1008,1318
1736,1008,1303
1737,1006,1286
1738,1005,1268
1739,1007,1253
1740,1008,1238
1741,1009,1220
1742,1008,1203
1743,1006,1187
1744,1007,1171
1745,1007,1160
1746,1008,1151
1747,1006,1134
1748,1004,1122
1749,1002,1109
1750,997,1100
1751,998,1096
1752,999,1092
1753,997,1085
1754,994,1075
1755,989,1068
1756,986,1062
1757,984,1060
1758,984,1056
1759,985,1051
1760,982,1045
1761,978,1040
1762,980,1037
1763,978,1038
1764,980,1039
1765,980,1034
1766,975,1033
1767,970,1028
1768,973,1029
1769,973,1028
1770,974,1030
1771,973,1029
1772,972,1026
1773,973,1023
1774,971,1024
1775,971,1025
1776,974,1027
1777,973,1027
1778,973,1025
1779,970,1027
1780,969,1026
1781,970,1028
1782,971,1028
1783,970,1027
1784,971,1029
1785,969,1023
1786,968,1025
1787,969,1030
1788,970,1030
1789,969,1030
1790,967,1027
1791,965,1023
1792,965,1027
1793,966,1029
1794,969,1027
1795,967,1030
1796,963,1026
1797,964,1024
1798,965,1023
1799,965,1024
1800,966,1026
1801,966,1023
1802,966,1021
1803,963,1018
1804,962,1020
1805,961,1022
1806,965,1021
1807,963,1017
1808,962,1016
1809,961,1013
1810,958,1013
1811,960,1015
1812,960,1015
1813,961,1013
1814,958,1009
1815,955,1008
1816,956,1009
1817,957,1009
1818,959,1010
1819,957,1007
1820,959,1006
1821,958,1004
1822,956,1005
1823,957,1005
1824,960,1004
1825,958,1003
1826,957,1001
1827,957,1000
1828,955,1000
1829,957,1002
1830,958,1001
1831,958,1002
1832,956,998
1833,954,996
1834,956,998
1835,956,1002
1836,958,1001
1837,959,1001
1838,958,997
1839,956,995
1840,956,993
1841,957,997
1842,958,997
1843,958,997
1844,958,996
1845,956,992
1846,954,995
1847,956,996
1848,958,996
1849,958,996
1850,958,994
1851,957,992
1852,956,991
1853,955,995
1854,958,995
1855,957,997
1856,957,993
1857,956,991
1858,957,994
1859,959,994
1860,960,995
1861,960,996
1862,960,991
1863,958,990
1864,960,991
1865,961,994
1866,962,993
1867,960,991
1868,958,991
1869,957,990
1870,957,992
1871,960,994
1872,961,994
1873,958,993
1874,959,991
1875,961,990
1876,962,990
1877,963,992
1878,967,991
1879,965,994
1880,965,992
1881,963,987
1882,960,989
1883,963,988
1884,968,993
1885,969,992
1886,967,989
1887,966,988
1888,964,987
1889,966,992
1890,967,992
1891,968,991
1892,965,988
1893,965,987
1894,965,990
1895,967,990
1896,967,994
1897,968,992
1898,968,993
1899,968,992
1900,969,994
1901,970,1001
1902,972,1018
1903,978,1061
1904,982,1142
1905,992,1193
1906,1007,1178
1907,1043,1127
1908,1108,1091
1909,1186,1077
1910,1211,1063
1911,1171,1049
1912,1101,1035
1913,1061,1019
1914,1052,994
1915,1054,964
1916,1055,930
1917,1053,893
1918,1053,855
1919,1053,814
1920,1054,773
1921,1055,739
1922,1052,707
1923,1050,678
1924,1046,651
1925,1047,622
1926,1046,586
1927,1049,542
1928,1047,506
1929,1044,480
1930,1037,463
1931,1032,449
1932,1028,432
1933,1022,419
1934,1010,406
1935,996,399
1936,985,396
1937,974,395
1938,965,392
1939,951,388
1940,933,386
1941,918,386
1942,908,388
1943,912,388
1944,918,392
1945,929,392
1946,933,397
1947,932,405
1948,932,423
1949,930,444
1950,931,472
1951,933,506
1952,938,545
1953,939,592
1954,947,649
1955,958,706
1956,966,760
1957,970,817
1958,968,868
1959,961,915
1960,960,961
1961,962,1007
1962,960,1044
1963,960,1081
1964,960,1111
1965,961,1135
1966,961,1159
1967,967,1174
1968,973,1187
1969,975,1194
1970,974,1201
1971,972,1209
1972,974,1219
1973,974,1227
1974,977,1234
1975,977,1242
1976,975,1247
1977,976,1252
1978,975,1258
1979,978,1268
1980,980,1273
1981,982,1278
1982,977,1281
1983,978,1287
1984,979,1298
1985,983,1304
1986,985,1311
1987,982,1319
1988,987,1325
1989,985,1331
1990,985,1338
1991,988,1346
1992,989,1354
1993,989,1360
1994,991,1364
1995,986,1371
1996,987,1379
1997,989,1388
1998,991,1395
1999,992,1402
2000,991,1410
2001,995,1411
2002,995,1416
2003,998,1425
2004,1001,1427
2005,1001,1431
2006,1002,1433
2007,1001,1429
2008,1002,1434
2009,1003,1437
2010,1005,1436
2011,1006,1433
2012,1005,1430
2013,1008,1424
2014,1005,1419
2015,1009,1417
2016,1011,1413
2017,1011,1404
2018,1011,1393
2019,1010,1381
2020,1012,1377
2021,1015,1368
2022,1016,1359
2023,1018,1346
2024,1019,1333
2025,1018,1318
2026,1015,1306
2027,1020,1293
2028,1019,1277
2029,1020,1264
2030,1019,1245
2031,1014,1226
2032,1016,1215
2033,1017,1201
2034,1022,1190
2035,1023,1174
2036,1022,1158
2037,1018,1145
2038,1018,1135
2039,1018,1125
2040,1015,1117
2041,1016,1106
2042,1013,1094
2043,1012,1085
2044,1007,1079
2045,1005,1074
2046,1005,1071
2047,1005,1063
2048,1002,1060
2049,1002,1053
2050,1002,1053
2051,1000,1052
2052,1000,1049
2053,998,1042
2054,996,1039
2055,992,1035
2056,990,1036
2057,991,1037
2058,990,1037
2059,987,1032
2060,987,1031
2061,984,1028
2062,983,1029
2063,984,1029
2064,987,1028
2065,986,1029
2066,984,1026
2067,986,1024
2068,984,1025
2069,987,1026
2070,988,1029
2071,987,1027
2072,986,1024
2073,983,1025
2074,980,1027
2075,982,1027
2076,984,1030
2077,984,1030
2078,985,1028
2079,983,1030
2080,984,1028
2081,985,1031
2082,984,1031
2083,984,1031
2084,981,1028
2085,980,1027
2086,981,1029
2087,983,1030
2088,985,1029
2089,985,1029
2090,983,1025
2091,979,1021
2092,979,1027
2093,977,1027
2094,979,1026
2095,979,1024
2096,979,1021
2097,977,1019
2098,975,1019
2099,975,1022
2100,975,1021
2101,975,1020
2102,975,1017
2103,975,1014
2104,973,1016
2105,974,1013
2106,975,1015
2107,972,1013
2108,972,1008
2109,971,1009
2110,970,1009
2111,973,1010
2112,973,1010
2113,972,1008
2114,973,1005
2115,973,1006
2116,971,1004
2117,972,1005
2118,974,1004
2119,968,1004
2120,971,1000
2121,971,998
2122,969,1000
2123,971,999
2124,971,1001
2125,971,999
2126,969,996
2127,970,997
2128,968,997
2129,971,996
2130,973,995
2131,974,997
2132,969,996
2133,968,994
2134,969,994
2135,969,995
2136,970,994
2137,969,994
2138,972,993
2139,970,993
2140,971,994
2141,969,995
2142,973,993
2143,973,996
2144,972,992
2145,971,992
2146,970,990
2147,972,992
2148,974,994
2149,972,992
2150,973,992
2151,971,988
2152,972,990
2153,974,992
2154,976,990
2155,974,991
2156,973,990
2157,972,988
2158,972,990
2159,973,994
2160,974,992
2161,973,991
2162,975,990
2163,970,988
2164,969,989
2165,970,991
2166,973,991
2167,973,990
2168,972,989
2169,971,987
2170,972,989
2171,972,989
2172,973,990
2173,975,990
2174,975,989
2175,973,987
2176,972,988
2177,973,989
2178,973,990
2179,974,989
2180,974,988
2181,972,985
2182,971,988
2183,973,991
2184,976,992
2185,975,990
2186,975,990
2187,974,989
2188,973,990
2189,976,994
2190,979,996
2191,980,1002
2192,980,1005
2193,979,1025
2194,979,1079
2195,989,1165
2196,1001,1215
2197,1017,1185
2198,1055,1124
2199,1126,1091
2200,1200,1077
2201,1215,1071
2202,1161,1059
2203,1093,1042
2204,1061,1022
2205,1055,994
2206,1059,964
2207,1062,934
2208,1063,899
2209,1063,857
2210,1061,812
2211,1062,771
2212,1062,740
2213,1064,712
2214,1063,686
2215,1057,654
2216,1052,617
2217,1051,571
2218,1050,531
2219,1050,506
2220,1049,485
2221,1041,466
2222,1033,444
2223,1021,423
2224,1009,411
2225,1000,405
2226,990,399
2227,976,394
2228,960,389
2229,946,385
2230,928,386
2231,913,388
2232,908,389
2233,909,392
2234,916,393
2235,922,395
2236,927,403
2237,930,418
2238,934,439
2239,934,462
2240,936,494
2241,937,528
2242,941,574
2243,950,626
2244,956,680
2245,967,738
2246,971,792
2247,968,841
2248,967,889
2249,966,939
2250,967,984
2251,965,1022
2252,963,1059
2253,961,1098
2254,963,1130
2255,967,1153
2256,970,1168
2257,974,1180
2258,972,1187
2259,972,1194
2260,971,1205
2261,972,1214
2262,976,1221
2263,977,1228
2264,975,1235
2265,975,1237
2266,974,1247
2267,974,1255
2268,979,1263
2269,980,1271
2270,977,1272
2271,974,1277
2272,975,1288
2273,978,1295
2274,980,1304
2275,981,1310
2276,981,1313
2277,976,1321
2278,979,1330
2279,982,1337
2280,985,1347
2281,984,1353
2282,983,1358
2283,978,1365
2284,981,1372
2285,983,1381
2286,985,1386
2287,986,1395
2288,987,1399
2289,987,1402
2290,989,1407
2291,991,1417
2292,992,1422
2293,993,1423
2294,992,1426
2295,992,1424
2296,992,1428
2297,998,1429
2298,998,1432
2299,1000,1428
2300,999,1422
2301,1000,1420
2302,1002,1416
2303,1005,1413
2304,1008,1407
2305,1009,1398
2306,1006,1389
2307,1005,1379
2308,1004,1370
2309,1010,1361
2310,1010,1349
2311,1008,1336
2312,1007,1320
2313,1008,1306
2314,1009,1295
2315,1014,1284
2316,1015,1267
2317,1013,1256
2318,1012,1239
2319,1011,1221
2320,1009,1212
2321,1012,1200
2322,1012,1187
2323,1012,1174
2324,1010,1159
2325,1008,1147
2326,1004,1138
2327,1004,1128
2328,1007,1120
2329,1005,1110
2330,1002,1100
2331,999,1091
2332,996,1086
2333,997,1082
2334,996,1074
2335,998,1069
2336,996,1063
2337,993,1057
2338,990,1054
2339,991,1051
2340,991,1050
2341,991,1047
2342,990,1042
2343,988,1038
2344,989,1038
2345,988,1038
2346,989,1038
2347,989,1035
2348,987,1034
2349,985,1032
2350,984,1033
2351,986,1032
2352,987,1036
2353,986,1033
2354,984,1032
2355,981,1030
2356,979,1030
2357,982,1034
2358,984,1032
2359,983,1032
2360,981,1031
2361,983,1029
2362,980,1031
2363,982,1032
2364,984,1034
2365,982,1035
2366,982,1033
2367,981,1032
2368,980,1033
2369,982,1036
2370,985,1037
2371,982,1039
2372,981,1040
2373,977,1036
2374,976,1039
2375,978,1042
2376,980,1042
2377,980,1043
2378,978,1037
2379,975,1036
2380,974,1039
2381,975,1041
2382,976,1039
2383,979,1038
2384,978,1034
2385,979,1030
2386,977,1030
2387,980,1030
2388,982,1028
2389,980,1023
2390,978,1019
2391,978,1014
2392,980,1014
2393,982,1013
2394,986,1010
2395,985,1008
2396,984,1005
2397,978,998
2398,977,998
2399,978,1000
2400,980,1000
2401,980,999
2402,978,998
2403,978,996
2404,975,1000
2405,976,1000
2406,976,1000
2407,975,998
2408,972,996
2409,968,995
2410,963,994
2411,967,996
2412,968,996
2413,968,997
2414,967,993
2415,965,990
2416,962,993
2417,965,992
2418,967,995
2419,969,991
2420,965,991
2421,962,989
2422,962,991
2423,961,990
2424,965,991
2425,965,989
2426,961,987
2427,960,986
2428,960,987
2429,963,990
2430,965,991
2431,964,987
2432,960,985
2433,961,983
2434,961,986
2435,963,987
2436,965,988
2437,963,986
2438,962,987
2439,962,984
2440,962,986
2441,964,990
2442,964,989
2443,964,989
2444,961,985
2445,960,984
2446,962,986
2447,963,987
2448,965,988
2449,965,988
2450,964,985
2451,965,981
2452,962,986
2453,963,987
2454,963,988
2455,965,990
2456,964,987
2457,964,986
2458,964,985
2459,965,987
2460,967,989
2461,967,988
2462,966,985
2463,962,986
2464,963,988
2465,966,989
2466,967,989
2467,966,989
2468,964,986
2469,966,984
2470,964,985
2471,967,990
2472,967,989
2473,967,991
2474,967,987
2475,968,988
2476,969,991
2477,970,996
2478,974,1000
2479,974,1005
2480,973,1013
2481,974,1040
2482,978,1095
2483,986,1160
2484,998,1170
2485,1018,1127
2486,1069,1084
2487,1141,1065
2488,1181,1056
2489,1154,1046
2490,1092,1035
2491,1054,1012
2492,1046,986
2493,1048,954
2494,1055,920
2495,1055,885
2496,1055,843
2497,1054,800
2498,1055,754
2499,1056,717
2500,1057,687
2501,1055,658
2502,1053,630
2503,1049,599
2504,1051,564
2505,1051,533
2506,1051,510
2507,1049,494
2508,1046,481
2509,1039,465
2510,1032,444
2511,1020,428
2512,1009,423
2513,1000,419
2514,990,413
2515,978,406
2516,967,400
2517,949,397
2518,931,396
2519,928,396
2520,932,399
2521,943,403
2522,950,404
2523,951,410
2524,951,422
2525,952,441
2526,951,460
2527,949,479
2528,948,501
2529,944,524
2530,945,554
2531,948,590
2532,953,634
2533,958,683
2534,959,728
2535,960,776
2536,958,822
2537,958,872
2538,960,915
2539,959,959
2540,957,997
2541,954,1031
2542,952,1066
2543,954,1099
2544,954,1130
2545,955,1152
2546,959,1168
2547,959,1181
2548,957,1195
2549,961,1208
2550,964,1217
2551,967,1225
2552,965,1233
2553,964,1240
2554,962,1251
2555,965,1262
2556,969,1270
2557,969,1278
2558,970,1285
2559,967,1291
2560,966,1299
2561,970,1311
2562,974,1320
2563,971,1326
2564,971,1333
2565,968,1339
2566,969,1351
2567,969,1361
2568,973,1369
2569,973,1378
2570,973,1382
2571,972,1390
2572,971,1397
2573,975,1406
2574,976,1412
2575,977,1419
2576,976,1425
2577,976,1427
2578,976,1437
2579,979,1440
2580,981,1445
2581,982,1447
2582,980,1447
2583,983,1449
2584,985,1453
2585,986,1456
2586,990,1458
2587,989,1455
2588,989,1450
2589,988,1444
2590,988,1441
2591,995,1437
2592,996,1432
2593,995,1426
2594,996,1414
2595,996,1404
2596,995,1397
2597,1000,1388
2598,1003,1378
2599,1002,1366
2600,1000,1351
2601,999,1339
2602,1000,1329
2603,1001,1318
2604,1005,1304
2605,1005,1292
2606,1002,1274
2607,1002,1263
2608,1001,1249
2609,1002,1237
2610,1003,1226
2611,1003,1211
2612,1002,1197
2613,1001,1185
2614,997,1175
2615,999,1164
2616,1000,1154
2617,998,1141
2618,998,1132
2619,995,1118
2620,994,1111
2621,994,1108
2622,995,1100
2623,994,1094
2624,993,1085
2625,989,1077
2626,987,1072
2627,990,1070
2628,988,1065
2629,990,1062
2630,986,1056
2631,986,1051
2632,985,1047
2633,986,1049
2634,988,1043
2635,986,1039
2636,984,1035
2637,982,1033
2638,984,1033
2639,985,1033
2640,987,1029
2641,988,1031
2642,984,1026
2643,982,1025
2644,983,1025
2645,984,1025
2646,987,1026
2647,984,1022
2648,983,1020
2649,982,1021
2650,983,1022
2651,983,1024
2652,984,1026
2653,984,1022
2654,982,1021
2655,982,1020
2656,980,1021
2657,984,1025
2658,986,1024
2659,984,1023
2660,982,1024
2661,981,1021
2662,979,1024
2663,981,1025
2664,985,1024
2665,983,1024
2666,982,1024
2667,980,1022
2668,980,1025
2669,982,1027
2670,984,1026
2671,982,1028
2672,981,1024
2673,981,1023
2674,980,1024
2675,981,1025
2676,982,1026
2677,982,1024
2678,981,1023
2679,981,1020
2680,978,1022
2681,981,1023
2682,982,1022
2683,981,1019
2684,979,1020
2685,978,1016
2686,975,1018
2687,979,1018
2688,980,1017
2689,979,1016
2690,978,1013
2691,975,1011
2692,976,1011
2693,977,1012
2694,979,1012
2695,979,1010
2696,977,1008
2697,976,1006
2698,974,1008
2699,976,1007
2700,979,1007
2701,978,1006
2702,976,1003
2703,975,1001
2704,973,1002
2705,974,1005
2706,975,1004
2707,975,1003
2708,974,1000
2709,972,998
2710,971,999
2711,975,1003
2712,975,1002
2713,975,1002
2714,975,998
2715,970,999
2716,971,1003
2717,972,1003
2718,973,1004
2719,972,1004
2720,971,1003
2721,969,1003
2722,967,1003
2723,970,1006
2724,970,1006
2725,970,1005
2726,969,1003
2727,970,1000
2728,972,1000
2729,975,999
2730,978,1000
2731,978,996
2732,975,992
2733,975,990
2734,976,989
2735,979,988
2736,982,986
2737,981,982
2738,980,979
2739,981,976
2740,977,979
2741,977,977
2742,979,976
2743,978,975
2744,979,972
2745,977,971
2746,976,976
2747,978,980
2748,980,981
2749,976,980
2750,976,979
2751,972,977
2752,972,980
2753,970,981
2754,971,981
2755,973,984
2756,971,979
2757,968,979
2758,971,981
2759,972,982
2760,972,982
2761,972,984
2762,971,981
2763,970,979
2764,969,984
2765,973,986
2766,974,986
2767,972,986
2768,971,985
2769,970,987
2770,971,990
2771,973,998
2772,977,1008
2773,979,1028
2774,980,1068
2775,985,1134
2776,992,1189
2777,1003,1176
2778,1026,1123
2779,1086,1086
2780,1160,1069
2781,1189,1063
2782,1143,1055
2783,1083,1051
2784,1053,1044
2785,1050,1035
2786,1056,1022
2787,1061,999
2788,1062,974
2789,1066,939
2790,1073,900
2791,1076,853
2792,1077,806
2793,1082,756
2794,1084,708
2795,1085,667
2796,1088,629
2797,1090,604
2798,1093,580
2799,1097,559
2800,1100,544
2801,1100,523
2802,1106,502
2803,1103,477
2804,1103,452
2805,1093,439
2806,1081,430
2807,1070,421
2808,1063,413
2809,1055,403
2810,1037,395
2811,1017,391
2812,998,391
2813,992,391
2814,996,392
2815,998,390
2816,997,390
2817,996,395
2818,991,405
2819,990,417
2820,986,432
2821,979,450
2822,967,470
2823,960,496
2824,955,526
2825,955,557
2826,954,598
2827,952,644
2828,950,690
2829,944,743
2830,943,791
2831,945,841
2832,950,889
2833,950,938
2834,951,979
2835,945,1016
2836,946,1052
2837,942,1088
2838,945,1120
2839,944,1150
2840,946,1169
2841,944,1182
2842,945,1198
2843,948,1211
2844,954,1222
2845,957,1231
2846,957,1239
2847,956,1247
2848,954,1257
2849,957,1268
2850,961,1278
2851,959,1286
2852,958,1293
2853,958,1301
2854,959,1314
2855,961,1324
2856,963,1333
2857,961,1340
2858,960,1350
2859,960,1356
2860,960,1368
2861,960,1378
2862,963,1387
2863,965,1394
2864,961,1401
2865,964,1407
2866,965,1418
2867,968,1426
2868,969,1433
2869,966,1438
2870,967,1442
2871,964,1449
2872,965,1456
2873,968,1460
2874,972,1464
2875,970,1464
2876,970,1463
2877,970,1465
2878,973,1466
2879,976,1466
2880,979,1465
2881,981,1462
2882,983,1455
2883,982,1448
2884,982,1443
2885,984,1438
2886,988,1429
2887,991,1421
2888,991,1410
2889,991,1400
2890,990,1387
2891,994,1376
2892,995,1367
2893,995,1352
2894,997,1338
2895,995,1322
2896,996,1308
2897,995,1296
2898,999,1281
2899,998,1264
2900,996,1246
2901,995,1232
2902,992,1216
2903,994,1204
2904,997,1192
2905,995,1178
2906,993,1163
2907,991,1149
2908,990,1140
2909,992,1128
2910,995,1119
2911,992,1109
2912,990,1099
2913,986,1087
2914,986,1081
2915,988,1075
2916,989,1068
2917,990,1061
2918,985,1055
2919,982,1046
2920,981,1046
2921,982,1043
2922,982,1038
2923,980,1035
2924,979,1029
2925,977,1024
2926,977,1024
2927,980,1024
2928,981,1023
2929,980,1021
2930,981,1018
2931,980,1016
2932,978,1013
2933,977,1017
2934,980,1016
2935,978,1016
2936,975,1011
2937,974,1010
2938,976,1009
2939,978,1011
2940,981,1012
2941,978,1009
2942,976,1009
2943,975,1008
2944,975,1009
2945,978,1011
2946,979,1012
2947,979,1013
2948,977,1010
2949,978,1007
2950,978,1010
2951,979,1012
2952,983,1013
2953,981,1016
2954,979,1012
2955,976,1011
2956,974,1010
2957,977,1016
2958,981,1017
2959,979,1014
2960,979,1016
2961,977,1013
2962,974,1017
2963,975,1020
2964,977,1017
2965,976,1019
2966,972,1017
2967,973,1017
2968,974,1017
2969,976,1019
2970,979,1018
2971,976,1016
2972,974,1014
2973,972,1013
2974,971,1012
2975,973,1016
2976,977,1014
2977,972,1014
2978,972,1011
2979,972,1009
2980,969,1009
2981,973,1010
2982,973,1011
2983,970,1006
2984,968,1003
2985,969,1002
2986,967,1000
2987,968,1003
2988,971,1002
2989,967,1001
2990,967,999
2991,965,998
2992,966,998
2993,967,1000
2994,971,999
2995,969,997
2996,969,994
2997,966,991
2998,968,992
2999,970,994
3000,970,993
3001,969,989
3002,968,986
3003,964,986
3004,963,988
3005,963,989
3006,968,988
3007,965,984
3008,967,982
3009,964,983
3010,961,982
3011,962,984
3012,964,983
3013,966,984
3014,965,981
3015,963,979
3016,962,980
3017,964,983
3018,965,983
3019,966,982
3020,967,978
3021,964,979
3022,965,978
3023,964,981
3024,968,980
3025,968,981
3026,967,981
3027,962,976
3028,964,978
3029,965,980
3030,971,982
3031,970,978
3032,966,977
3033,964,976
3034,967,977
3035,969,978
3036,968,979
3037,968,977
3038,963,978
3039,964,977
3040,964,980
3041,963,982
3042,967,984
3043,967,985
3044,961,985
3045,960,984
3046,961,987
3047,963,990
3048,967,990
3049,966,990
3050,965,986
3051,966,986
3052,962,988
3053,967,989
3054,970,991
3055,970,989
3056,972,985
3057,973,982
3058,973,981
3059,977,985
3060,979,984
3061,979,987
3062,980,987
3063,981,997
3064,986,1024
3065,990,1078
3066,995,1157
3067,999,1191
3068,1007,1156
3069,1036,1098
3070,1106,1067
3071,1186,1055
3072,1212,1042
3073,1164,1028
3074,1097,1010
3075,1060,997
3076,1052,974
3077,1058,947
3078,1060,916
3079,1055,883
3080,1048,843
3081,1047,798
3082,1046,760
3083,1053,731
3084,1056,707
3085,1054,683
3086,1050,651
3087,1049,615
3088,1048,579
3089,1053,544
3090,1057,512
3091,1054,488
3092,1052,466
3093,1044,443
3094,1040,428
3095,1040,413
3096,1035,403
3097,1024,396
3098,1021,387
3099,1008,380
3100,997,376
3101,982,377
3102,968,373
3103,950,373
3104,941,371
3105,942,371
3106,947,374
3107,954,383
3108,958,394
3109,955,408
3110,950,427
3111,943,452
3112,940,484
3113,939,515
3114,942,558
3115,945,600
3116,953,642
3117,956,688
3118,961,738
3119,968,788
3120,969,833
3121,963,873
3122,960,912
3123,956,952
3124,954,992
3125,955,1028
3126,960,1060
3127,958,1089
3128,960,1110
3129,960,1133
3130,962,1148
3131,967,1164
3132,969,1173
3133,971,1183
3134,969,1188
3135,971,1197
3136,972,1209
3137,973,1217
3138,976,1223
3139,975,1230
3140,974,1235
3141,977,1240
3142,975,1249
3143,978,1258
3144,982,1267
3145,983,1273
3146,981,1279
3147,980,1284
3148,981,1296
3149,982,1304
3150,982,1311
3151,984,1319
3152,984,1324
3153,983,1330
3154,984,1341
3155,983,1352
3156,987,1359
3157,989,1362
3158,990,1368
3159,992,1373
3160,992,1381
3161,997,1387
3162,1000,1393
3163,999,1398
3164,996,1400
3165,996,1401
3166,998,1407
3167,1002,1411
3168,1002,1415
3169,1003,1414
3170,1004,1412
3171,1004,1414
3172,1003,1413
3173,1006,1415
3174,1011,1410
3175,1009,1407
3176,1012,1400
3177,1011,1394
3178,1010,1389
3179,1014,1382
3180,1016,1373
3181,1014,1364
3182,1016,1353
3183,1014,1343
3184,1014,1333
3185,1017,1323
3186,1018,1313
3187,1017,1297
3188,1012,1285
3189,1011,1268
3190,1011,1256
3191,1012,1244
3192,1016,1232
3193,1012,1216
3194,1010,1200
3195,1009,1186
3196,1004,1174
3197,1004,1166
3198,1004,1155
3199,1001,1140
3200,1000,1130
3201,997,1116
3202,995,1108
3203,997,1099
3204,997,1089
3205,995,1083
3206,992,1074
3207,991,1065
3208,991,1063
3209,991,1057
3210,990,1053
3211,992,1047
3212,985,1042
3213,988,1037
3214,984,1037
3215,985,1035
3216,986,1031
3217,984,1024
3218,981,1024
3219,980,1021
3220,979,1019
3221,980,1019
3222,983,1019
3223,983,1018
3224,983,1013
3225,980,1011
3226,980,1010
3227,980,1015
3228,984,1012
3229,982,1011
3230,981,1009
3231,980,1009
3232,980,1010
3233,980,1014
3234,982,1013
3235,982,1012
3236,978,1012
3237,977,1008
3238,977,1013
3239,979,1013
3240,980,1013
3241,980,1014
3242,979,1012
3243,975,1014
3244,975,1014
3245,977,1016
3246,977,1015
3247,980,1018
3248,979,1013
3249,980,1013
3250,977,1015
3251,979,1019
3252,980,1019
3253,975,1017
3254,976,1016
3255,973,1013
3256,972,1013
3257,974,1017
3258,978,1018
3259,979,1016
3260,974,1015
3261,973,1013
3262,975,1014
3263,978,1016
3264,979,1017
3265,977,1015
3266,975,1013
3267,974,1010
3268,973,1012
3269,972,1013
3270,975,1013
3271,974,1010
3272,972,1006
3273,966,1006
3274,967,1007
3275,969,1009
3276,971,1008
3277,969,1006
3278,968,1004
3279,967,1002
3280,967,1002
3281,968,1003
3282,971,1002
3283,970,1000
3284,968,997
3285,964,996
3286,963,997
3287,964,999
3288,965,996
3289,967,995
3290,967,993
3291,966,990
3292,965,993
3293,964,992
3294,966,993
3295,965,992
3296,962,989
3297,963,990
3298,959,990
3299,962,989
3300,966,989
3301,963,989
3302,962,985
3303,959,984
3304,958,988
3305,961,987
3306,964,987
3307,964,985
3308,961,981
3309,960,982
3310,958,986
3311,960,986
3312,963,983
3313,963,984
3314,959,980
3315,959,978
3316,959,981
3317,960,985
3318,962,983
3319,961,982
3320,960,978
3321,960,977
3322,957,980
3323,959,982
3324,960,981
3325,959,982
3326,958,980
3327,956,977
3328,957,980
3329,957,981
3330,959,981
3331,960,981
3332,956,977
3333,954,976
3334,954,979
3335,955,981
3336,957,980
3337,954,981
3338,954,977
3339,953,976
3340,953,977
3341,953,982
3342,957,979
3343,954,981
3344,954,978
3345,951,979
3346,952,979
3347,953,981
3348,955,981
3349,955,980
3350,953,980
3351,953,980
3352,953,982
3353,955,986
3354,959,987
3355,959,987
3356,957,989
3357,955,989
3358,957,992
3359,957,995
3360,962,995
3361,958,995
3362,959,993
3363,961,996
3364,963,1007
3365,966,1040
3366,976,1107
3367,979,1173
3368,987,1173
3369,1004,1127
3370,1046,1086
3371,1119,1073
3372,1176,1064
3373,1170,1049
3374,1113,1033
3375,1060,1020
3376,1040,1002
3377,1041,980
3378,1046,951
3379,1046,916
3380,1044,878
3381,1044,841
3382,1044,799
3383,1047,767
3384,1050,739
3385,1050,708
3386,1042,678
3387,1036,646
3388,1032,614
3389,1035,577
3390,1033,536
3391,1034,500
3392,1030,476
3393,1023,457
3394,1018,436
3395,1011,419
3396,1009,405
3397,996,395
3398,984,387
3399,977,379
3400,968,375
3401,959,377
3402,949,376
3403,934,373
3404,919,370
3405,908,370
3406,910,374
3407,918,377
3408,930,383
3409,936,386
3410,939,394
3411,941,409
3412,939,432
3413,936,456
3414,936,478
3415,934,511
3416,931,541
3417,931,580
3418,936,621
3419,942,664
3420,950,708
3421,954,759
3422,953,801
3423,947,843
3424,944,887
3425,942,928
3426,943,965
3427,941,1001
3428,937,1031
3429,934,1063
3430,934,1091
3431,936,1119
3432,938,1137
3433,937,1151
3434,938,1164
3435,936,1172
3436,940,1183
3437,942,1194
3438,945,1202
3439,946,1212
3440,945,1214
3441,944,1223
3442,945,1233
3443,949,1242
3444,949,1245
3445,949,1251
3446,948,1257
3447,949,1260
3448,950,1271
3449,952,1278
3450,956,1285
3451,953,1290
3452,952,1295
3453,950,1301
3454,955,1309
3455,955,1320
3456,958,1323
3457,957,1330
3458,958,1332
3459,956,1337
3460,958,1346
3461,956,1353
3462,958,1361
3463,960,1365
3464,962,1370
3465,959,1373
3466,959,1382
3467,963,1389
3468,966,1394
3469,966,1399
3470,965,1399
3471,964,1406
3472,965,1411
3473,966,1415
3474,972,1418
3475,971,1419
3476,969,1419
3477,969,1419
3478,969,1422
3479,973,1423
3480,978,1423
3481,975,1422
3482,974,1418
3483,974,1413
3484,976,1410
3485,978,1408
3486,979,1402
3487,979,1395
3488,977,1386
3489,979,1377
3490,982,1370
3491,982,1363
3492,983,1355
3493,984,1343
3494,983,1329
3495,981,1317
3496,983,1309
3497,985,1295
3498,984,1285
3499,983,1270
3500,982,1255
3501,981,1243
3502,978,1235
3503,982,1224
3504,985,1215
3505,982,1203
3506,979,1188
3507,979,1176
3508,979,1165
3509,978,1156
3510,977,1145
3511,976,1135
3512,975,1122
3513,973,1112
3514,973,1107
3515,973,1101
3516,974,1094
3517,973,1084
3518,970,1076
3519,966,1067
3520,967,1063
3521,967,1061
3522,968,1055
3523,965,1048
3524,964,1041
3525,961,1037
3526,959,1035
3527,962,1034
3528,964,1030
3529,964,1027
3530,962,1022
3531,958,1021
3532,958,1019
3533,960,1019
3534,959,1018
3535,961,1016
3536,959,1012
3537,957,1009
3538,956,1010
3539,957,1012
3540,959,1009
3541,959,1009
3542,959,1009
3543,956,1005
3544,956,1009
3545,956,1012
3546,958,1010
3547,958,1011
3548,957,1009
3549,957,1010
3550,956,1011
3551,957,1012
3552,957,1013
3553,958,1013
3554,957,1012
3555,957,1010
3556,955,1012
3557,956,1018
3558,960,1016
3559,962,1015
3560,958,1015
3561,954,1012
3562,956,1017
3563,958,1019
3564,957,1018
3565,961,1019
3566,960,1019
3567,957,1016
3568,958,1020
3569,958,1022
3570,959,1019
3571,960,1017
3572,958,1018
3573,958,1018
3574,955,1019
3575,957,1021
3576,958,1018
3577,957,1016
3578,956,1016
3579,956,1014
3580,956,1016
3581,954,1017
3582,956,1016
3583,956,1015
3584,954,1011
3585,953,1010
3586,955,1007
3587,956,1012
3588,957,1010
3589,954,1007
3590,953,1004
3591,953,1003
3592,948,1003
3593,950,1003
3594,953,1005
3595,954,1001
3596,950,1001
3597,950,997
3598,952,1001
3599,952,999
3600,953,997
3601,953,997
3602,952,993
3603,949,989
3604,950,992
3605,951,994
3606,953,992
3607,951,993
3608,948,990
3609,945,989
3610,948,990
3611,948,990
3612,948,990
3613,949,988
3614,948,987
3615,945,986
3616,945,986
3617,946,988
3618,950,986
3619,949,985
3620,947,982
3621,945,982
3622,945,986
3623,947,984
3624,949,985
3625,949,985
3626,949,982
3627,943,980
3628,945,982
3629,947,985
3630,949,981
3631,948,981
3632,948,979
3633,945,979
3634,943,981
3635,945,982
3636,947,979
3637,948,981
3638,945,978
3639,944,978
3640,943,976
3641,944,982
3642,947,982
3643,945,980
3644,945,975
3645,942,978
3646,943,977
3647,943,979
3648,944,979
3649,945,978
3650,944,975
3651,945,976
3652,944,979
3653,947,982
3654,950,979
3655,948,978
3656,947,977
3657,945,977
3658,944,979
3659,944,978
3660,946,980
3661,948,980
3662,944,977
3663,945,976
3664,946,977
3665,949,978
3666,947,979
3667,946,978
3668,947,977
3669,944,975
3670,947,978
3671,948,981
3672,950,979
3673,947,979
3674,947,976
3675,944,976
3676,946,978
3677,948,980
3678,950,982
3679,950,984
3680,949,981
3681,948,985
3682,952,996
3683,954,1022
3684,960,1081
3685,963,1157
3686,969,1191
3687,979,1159
3688,1005,1107
3689,1066,1081
3690,1141,1068
3691,1166,1054
3692,1129,1040
3693,1068,1026
3694,1034,1012
3695,1031,997
3696,1034,973
3697,1033,944
3698,1029,913
3699,1027,880
3700,1027,842
3701,1027,804
3702,1029,768
3703,1030,739
3704,1026,709
3705,1022,682
3706,1019,653
3707,1016,623
3708,1020,584
3709,1019,541
3710,1018,506
3711,1014,482
3712,1009,462
3713,1007,445
3714,1003,428
3715,997,409
3716,986,392
3717,973,382
3718,959,377
3719,944,377
3720,936,372
3721,924,369
3722,908,366
3723,890,366
3724,880,364
3725,884,368
3726,894,370
3727,905,371
3728,911,372
3729,919,376
3730,924,387
3731,924,404
3732,926,424
3733,923,449
3734,922,480
3735,920,519
3736,924,563
3737,928,614
3738,937,666
3739,946,718
3740,949,767
3741,948,817
3742,945,864
3743,944,907
3744,942,949
3745,938,991
3746,936,1024
3747,934,1059
3748,935,1095
3749,935,1123
3750,938,1140
3751,936,1154
3752,936,1166
3753,935,1175
3754,935,1185
3755,936,1193
3756,938,1200
3757,940,1207
3758,938,1211
3759,938,1218
3760,938,1225
3761,941,1234
3762,940,1240
3763,940,1244
3764,940,1248
3765,938,1253
3766,942,1260
3767,939,1268
3768,944,1273
3769,944,1278
3770,943,1280
3771,941,1287
3772,941,1296
3773,943,1302
3774,946,1310
3775,943,1316
3776,943,1321
3777,944,1327
3778,946,1334
3779,949,1343
3780,950,1348
3781,953,1356
3782,951,1362
3783,949,1368
3784,949,1377
3785,955,1384
3786,958,1390
3787,955,1396
3788,956,1399
3789,958,1404
3790,958,1411
3791,961,1418
3792,965,1422
3793,967,1426
3794,966,1428
3795,965,1425
3796,969,1427
3797,970,1431
3798,975,1429
3799,976,1428
3800,974,1421
3801,974,1417
3802,976,1414
3803,978,1413
3804,984,1404
3805,984,1397
3806,982,1386
3807,981,1377
3808,981,1367
3809,984,1359
3810,987,1348
3811,989,1336
3812,984,1319
3813,982,1304
3814,984,1293
3815,987,1280
3816,990,1265
3817,990,1250
3818,987,1231
3819,985,1217
3820,983,1206
3821,982,1192
3822,983,1179
3823,984,1168
3824,982,1152
3825,979,1141
3826,978,1132
3827,980,1125
3828,981,1116
3829,980,1106
3830,975,1095
3831,973,1089
3832,973,1083
3833,974,1075
3834,973,1069
3835,973,1067
3836,970,1058
3837,966,1051
3838,969,1050
3839,968,1050
3840,970,1047
3841,967,1042
3842,968,1040
3843,965,1036
3844,966,1035
3845,965,1038
3846,967,1031
3847,967,1032
3848,965,1030
3849,963,1029
3850,961,1028
3851,964,1031
3852,964,1028
3853,965,1026
3854,963,1024
3855,959,1026
3856,958,1027
3857,962,1031
3858,963,1029
3859,963,1028
3860,961,1026
3861,956,1026
3862,957,1029
3863,961,1029
3864,960,1030
3865,962,1031
3866,959,1028
3867,958,1026
3868,958,1029
3869,959,1030
3870,963,1032
3871,961,1031
3872,959,1029
3873,956,1029
3874,955,1028
3875,959,1029
3876,962,1031
3877,960,1027
3878,958,1027
3879,957,1026
3880,958,1027
3881,960,1026
3882,959,1025
3883,957,1024
3884,957,1022
3885,954,1020
3886,955,1020
3887,959,1022
3888,958,1020
3889,959,1020
3890,957,1017
3891,952,1015
3892,952,1017
3893,953,1017
3894,954,1016
3895,955,1014
3896,952,1010
3897,951,1010
3898,951,1008
3899,955,1008
3900,956,1007
3901,954,1006
3902,954,1002
3903,951,1002
3904,950,1002
3905,953,1005
3906,952,1002
3907,951,1002
3908,949,999
3909,947,999
3910,946,1001
3911,951,1000
3912,952,1000
3913,950,999
3914,948,997
3915,946,997
3916,950,996
3917,951,998
3918,950,997
3919,952,996
3920,951,988
3921,947,992
3922,949,995
3923,949,994
3924,949,994
3925,948,992
3926,948,989
3927,944,990
3928,949,991
3929,948,992
3930,950,990
3931,947,992
3932,947,987
3933,944,986
3934,946,987
3935,946,990
3936,949,991
3937,950,987
3938,950,986
3939,946,987
3940,949,988
3941,951,990
3942,951,987
3943,949,988
3944,947,986
3945,943,986
3946,945,987
3947,949,990
3948,952,988
3949,953,985
3950,954,985
3951,951,984
3952,954,987
3953,950,987
3954,951,988
3955,951,985
3956,948,984
3957,948,985
3958,949,988
3959,952,987
3960,954,988
3961,954,987
3962,954,984
3963,952,982
3964,954,986
3965,953,987
3966,955,986
3967,954,983
3968,951,983
3969,949,983
3970,950,984
3971,952,986
3972,953,987
3973,955,984
3974,951,982
3975,952,981
3976,952,986
3977,956,988
3978,956,986
3979,955,988
3980,952,983
3981,952,984
3982,954,987
3983,955,989
3984,958,988
3985,960,989
3986,961,992
3987,960,995
3988,963,1011
3989,965,1041
3990,970,1108
3991,974,1182
3992,977,1209
3993,989,1172
3994,1018,1121
3995,1081,1092
3996,1156,1077
3997,1186,1063
3998,1146,1049
3999,1083,1034
4000,1049,1020
4001,1041,999
4002,1047,971
4003,1049,939
4004,1045,903
4005,1042,861
4006,1042,815
4007,1044,774
4008,1043,735
4009,1046,707
4010,1041,673
4011,1036,643
4012,1032,607
4013,1033,567
4014,1033,527
4015,1031,495
4016,1027,471
4017,1021,453
4018,1015,437
4019,1012,422
4020,1004,407
4021,992,394
4022,979,386
4023,964,379
4024,952,376
4025,940,377
4026,926,375
4027,908,373
4028,891,370
4029,882,371
4030,885,373
4031,893,378
4032,904,382
4033,912,386
4034,916,397
4035,914,415
4036,914,442
4037,916,475
4038,920,511
4039,921,553
4040,927,596
4041,933,647
4042,943,700
4043,953,754
4044,956,806
4045,954,854
4046,951,896
4047,953,943
4048,956,987
4049,958,1026
4050,961,1060
4051,959,1092
4052,958,1120
4053,957,1145
4054,959,1164
4055,964,1178
4056,969,1188
4057,973,1195
4058,975,1199
4059,976,1205
4060,976,1211
4061,979,1217
4062,980,1224
4063,978,1228
4064,978,1232
4065,976,1237
4066,978,1246
4067,977,1252
4068,980,1259
4069,981,1265
4070,980,1271
4071,975,1274
4072,972,1278
4073,974,1288
4074,973,1294
4075,973,1299
4076,972,1301
4077,969,1311
4078,969,1319
4079,968,1325
4080,971,1334
4081,970,1339
4082,968,1345
4083,966,1350
4084,969,1357
4085,971,1366
4086,974,1372
4087,974,1379
4088,973,1383
4089,970,1388
4090,967,1393
4091,969,1402
4092,972,1404
4093,972,1408
4094,974,1409
4095,975,1415
4096,978,1420
4097,979,1421
4098,983,1422
4099,983,1422
4100,984,1418
4101,983,1417
4102,986,1414
4103,991,1413
4104,996,1408
4105,1000,1400
4106,999,1390
4107,998,1381
4108,997,1374
4109,998,1363
4110,998,1353
4111,1001,1337
4112,1004,1322
4113,1006,1309
4114,1004,1297
4115,1009,1285
4116,1008,1269
4117,1006,1252
4118,1004,1237
4119,1003,1221
4120,1002,1208
4121,1003,1196
4122,1006,1182
4123,1004,1169
4124,1001,1155
4125,1000,1140
4126,1000,1132
4127,1000,1124
4128,1000,1116
4129,999,1106
4130,996,1096
4131,995,1089
4132,995,1082
4133,995,1081
4134,995,1071
4135,994,1065
4136,990,1060
4137,989,1057
4138,987,1056
4139,988,1054
4140,987,1050
4141,984,1046
4142,981,1041
4143,979,1044
4144,980,1041
4145,984,1042
4146,988,1040
4147,982,1038
4148,981,1036
4149,979,1036
4150,981,1037
4151,982,1038
4152,982,1038
4153,981,1034
4154,977,1031
4155,976,1032
4156,973,1034
4157,978,1036
4158,980,1035
4159,978,1035
4160,979,1034
4161,976,1033
4162,978,1037
4163,975,1036
4164,978,1037
4165,977,1038
4166,975,1032
4167,973,1034
4168,974,1035
4169,978,1035
4170,980,1034
4171,976,1034
4172,974,1033
4173,972,1030
4174,974,1033
4175,974,1036
4176,978,1035
4177,977,1033
4178,976,1031
4179,973,1030
4180,972,1030
4181,975,1030
4182,973,1031
4183,973,1028
4184,973,1024
4185,970,1023
4186,970,1025
4187,971,1025
4188,974,1024
4189,975,1022
4190,974,1018
4191,971,1019
4192,970,1020
4193,970,1019
4194,971,1018
4195,970,1017
4196,968,1011
4197,971,1013
4198,970,1014
4199,968,1014
4200,970,1013
4201,970,1010
4202,967,1006
4203,966,1005
4204,966,1006
4205,967,1008
4206,969,1007
4207,968,1004
4208,966,1001
4209,963,1002
4210,965,1003
4211,966,1006
4212,968,1004
4213,968,1003
4214,968,1000
4215,962,1000
4216,964,999
4217,964,1002
4218,969,998
4219,967,999
4220,967,996
4221,965,996
4222,965,999
4223,964,998
4224,967,999
4225,966,997
4226,965,996
4227,963,994
4228,965,997
4229,966,998
4230,967,996
4231,966,996
4232,966,993
4233,962,994
4234,962,995
4235,964,994
4236,965,995
4237,965,995
4238,965,991
4239,964,991
4240,965,993
4241,966,996
4242,967,995
4243,968,994
4244,965,991
4245,964,990
4246,962,993
4247,966,995
4248,966,993
4249,966,991
4250,965,990
4251,965,991
4252,965,992
4253,965,994
4254,963,994
4255,965,992
4256,963,991
4257,963,991
4258,962,992
4259,963,994
4260,966,993
4261,965,991
4262,966,989
4263,964,988
4264,966,991
4265,967,992
4266,970,990
4267,968,991
4268,968,987
4269,966,988
4270,964,989
4271,970,992
4272,968,990
4273,967,990
4274,967,990
4275,964,991
4276,966,992
4277,969,996
4278,971,996
4279,973,1001
4280,973,1011
4281,972,1040
4282,978,1110
4283,984,1191
4284,996,1208
4285,1011,1160
4286,1050,1108
4287,1124,1083
4288,1187,1073
4289,1176,1067
4290,1113,1053
4291,1064,1039
4292,1047,1017
4293,1048,988
4294,1054,958
4295,1056,924
4296,1058,883
4297,1057,834
4298,1056,789
4299,1055,748
4300,1056,717
4301,1053,685
4302,1051,651
4303,1050,612
4304,1042,567
4305,1043,525
4306,1039,498
4307,1035,478
4308,1027,459
4309,1018,436
4310,1009,418
4311,994,402
4312,984,396
4313,969,393
4314,958,386
4315,942,381
4316,924,377
4317,905,377
4318,896,377
4319,894,379
4320,902,382
4321,909,383
4322,914,385
4323,917,395
4324,919,414
4325,922,436
4326,925,465
4327,926,497
4328,931,534
4329,934,579
4330,940,631
4331,950,685
4332,960,740
4333,962,793
4334,961,839
4335,957,887
4336,955,934
4337,956,977
4338,957,1020
4339,956,1055
4340,955,1092
4341,954,1124
4342,956,1150
4343,959,1167
4344,961,1183
4345,963,1191
4346,963,1197
4347,960,1205
4348,963,1217
4349,966,1228
4350,966,1232
4351,965,1237
4352,965,1244
4353,963,1247
4354,966,1254
4355,969,1264
4356,970,1270
4357,970,1274
4358,970,1276
4359,968,1286
4360,969,1292
4361,971,1301
4362,972,1307
4363,973,1315
4364,972,1315
4365,969,1322
4366,971,1331
4367,971,1339
4368,974,1347
4369,974,1354
4370,973,1360
4371,972,1368
4372,974,1377
4373,977,1386
4374,978,1390
4375,977,1398
4376,977,1401
4377,976,1407
4378,979,1415
4379,981,1420
4380,983,1425
4381,985,1428
4382,982,1430
4383,981,1433
4384,985,1437
4385,988,1442
4386,992,1442
4387,993,1442
4388,992,1438
4389,992,1438
4390,995,1437
4391,999,1433
4392,1002,1429
4393,1002,1424
4394,1002,1412
4395,998,1404
4396,1003,1394
4397,1005,1383
4398,1010,1370
4399,1009,1356
4400,1009,1341
4401,1010,1326
4402,1010,1312
4403,1015,1300
4404,1016,1282
4405,1014,1264
4406,1009,1248
4407,1006,1232
4408,1008,1220
4409,1010,1209
4410,1009,1194
4411,1008,1180
4412,1005,1167
4413,1001,1155
4414,1002,1147
4415,1002,1139
4416,1000,1131
4417,994,1121
4418,989,1108
4419,986,1102
4420,985,1096
4421,988,1093
4422,985,1086
4423,984,1079
4424,981,1071
4425,978,1066
4426,980,1063
4427,977,1061
4428,979,1056
4429,977,1052
4430,974,1050
4431,973,1046
4432,973,1046
4433,973,1045
4434,974,1046
4435,973,1041
4436,971,1038
4437,968,1037
4438,967,1039
4439,971,1040
4440,970,1036
4441,967,1037
4442,964,1034
4443,963,1034
4444,968,1035
4445,968,1037
4446,969,1037
4447,966,1035
4448,965,1032
4449,961,1030
4450,964,1035
4451,966,1039
4452,966,1039
4453,966,1039
4454,964,1036
4455,962,1034
4456,962,1036
4457,964,1039
4458,965,1038
4459,960,1038
4460,963,1035
4461,959,1033
4462,961,1036
4463,964,1039
4464,963,1037
4465,962,1036
4466,963,1033
4467,959,1034
4468,959,1035
4469,961,1035
4470,961,1034
4471,961,1031
4472,959,1028
4473,956,1028
4474,958,1029
4475,960,1030
4476,962,1028
4477,959,1026
4478,956,1024
4479,955,1024
4480,955,1025
4481,957,1028
4482,955,1026
4483,955,1021
4484,953,1021
4485,951,1020
4486,950,1018
4487,955,1019
4488,952,1017
4489,954,1016
4490,952,1014
4491,949,1013
4492,949,1013
4493,951,1014
4494,953,1013
4495,952,1012
4496,950,1007
4497,945,1008
4498,946,1008
4499,948,1010
4500,949,1010
4501,950,1008
4502,951,1005
4503,947,1006
4504,948,1004
4505,949,1007
4506,951,1008
4507,952,1002
4508,949,1003
4509,945,1003
4510,947,1004
4511,949,1006
4512,949,1004
4513,950,1000
4514,950,1001
4515,948,1001
4516,948,1003
4517,949,1003
4518,950,1004
4519,948,1003
4520,945,1000
4521,942,999
4522,945,999
4523,948,1003
4524,948,1002
4525,951,998
4526,948,997
4527,948,999
4528,945,1000
4529,947,1003
4530,949,1001
4531,948,999
4532,948,997
4533,947,997
4534,944,999
4535,949,1000
4536,948,998
4537,950,998
4538,947,996
4539,946,995
4540,944,997
4541,947,1000
4542,950,999
4543,949,997
4544,946,995
4545,946,993
4546,947,995
4547,949,998
4548,949,998
4549,946,996
4550,946,994
4551,946,994
4552,948,995
4553,952,997
4554,953,995
4555,953,996
4556,953,992
4557,948,993
4558,949,995
4559,951,996
4560,954,996
4561,951,994
4562,950,994
4563,951,993
4564,951,997
4565,954,1000
4566,957,999
4567,956,1001
4568,954,1001
4569,955,1013
4570,958,1042
4571,962,1100
4572,966,1187
4573,976,1225
4574,989,1181
4575,1019,1121
4576,1090,1088
4577,1157,1080
4578,1160,1067
4579,1106,1048
4580,1055,1027
4581,1031,1003
4582,1034,973
4583,1039,939
4584,1040,895
4585,1041,845
4586,1038,794
4587,1038,752
4588,1039,720
4589,1038,689
4590,1035,655
4591,1031,613
4592,1027,563
4593,1026,512
4594,1024,482
4595,1019,464
4596,1012,445
4597,1003,423
4598,992,404
4599,977,397
4600,963,392
4601,951,389
4602,939,387
4603,924,382
4604,905,379
4605,888,377
4606,877,379
4607,881,382
4608,892,383
4609,905,388
4610,913,392
4611,914,406
4612,915,429
4613,917,460
4614,920,493
4615,920,539
4616,924,585
4617,929,641
4618,940,702
4619,950,763
4620,952,824
4621,951,872
4622,946,919
4623,942,967
4624,941,1011
4625,941,1051
4626,944,1085
4627,946,1121
4628,945,1144
4629,947,1161
4630,946,1178
4631,949,1191
4632,954,1200
4633,954,1210
4634,953,1216
4635,952,1224
4636,952,1234
4637,955,1240
4638,955,1249
4639,957,1254
4640,958,1258
4641,956,1265
4642,957,1272
4643,956,1281
4644,961,1284
4645,961,1291
4646,960,1294
4647,958,1299
4648,959,1311
4649,962,1317
4650,962,1325
4651,963,1331
4652,961,1334
4653,960,1343
4654,961,1351
4655,963,1360
4656,964,1370
4657,964,1374
4658,964,1380
4659,962,1385
4660,963,1395
4661,968,1404
4662,971,1409
4663,969,1414
4664,968,1416
4665,969,1422
4666,969,1427
4667,973,1432
4668,974,1436
4669,976,1436
4670,977,1436
4671,976,1437
4672,978,1437
4673,982,1438
4674,983,1434
4675,983,1430
4676,983,1425
4677,983,1421
4678,985,1414
4679,987,1409
4680,988,1402
4681,989,1390
4682,988,1377
4683,988,1368
4684,989,1356
4685,990,1346
4686,992,1333
4687,992,1318
4688,993,1301
4689,990,1289
4690,991,1277
4691,993,1263
4692,994,1249
4693,993,1233
4694,991,1216
4695,988,1204
4696,990,1190
4697,990,1179
4698,992,1167
4699,990,1155
4700,987,1143
4701,982,1133
4702,983,1123
4703,983,1119
4704,985,1109
4705,983,1100
4706,980,1089
4707,977,1081
4708,976,1079
4709,977,1074
4710,979,1069
4711,976,1063
4712,972,1055
4713,970,1052
4714,970,1050
4715,970,1051
4716,970,1046
4717,968,1042
4718,968,1041
4719,964,1036
4720,963,1039
4721,965,1039
4722,966,1037
4723,962,1037
4724,962,1032
4725,961,1033
4726,958,1033
4727,962,1037
4728,961,1037
4729,962,1035
4730,961,1035
4731,958,1033
4732,959,1036
4733,962,1036
4734,963,1034
4735,963,1034
4736,960,1032
4737,958,1031
4738,958,1035
4739,958,1035
4740,958,1035
4741,957,1033
4742,956,1032
4743,954,1033
4744,956,1034
4745,958,1035
4746,959,1035
4747,959,1032
4748,958,1031
4749,956,1030
4750,955,1030
4751,956,1033
4752,956,1034
4753,957,1032
4754,953,1029
4755,952,1030
4756,951,1030
4757,955,1032
4758,956,1031
4759,954,1030
4760,953,1026
4761,953,1025
4762,951,1029
4763,954,1032
4764,955,1033
4765,952,1030
4766,953,1028
4767,950,1028
4768,949,1030
4769,951,1031
4770,951,1031
4771,949,1031
4772,948,1027
4773,943,1026
4774,943,1027
4775,944,1028
4776,948,1027
4777,951,1026
4778,949,1024
4779,951,1021
4780,950,1021
4781,950,1023
4782,952,1019
4783,955,1015
4784,956,1008
4785,955,1004
4786,956,1005
4787,960,1006
4788,962,1005
4789,960,1000
4790,957,999
4791,955,997
4792,957,998
4793,957,995
4794,957,996
4795,959,993
4796,956,991
4797,953,988
4798,954,989
4799,957,995
4800,957,996
4801,955,993
4802,953,993
4803,952,995
4804,948,995
4805,947,998
4806,949,995
4807,946,996
4808,943,992
4809,941,993
4810,943,997
4811,944,995
4812,945,995
4813,947,994
4814,943,991
4815,943,992
4816,942,993
4817,945,993
4818,944,994
4819,943,993
4820,942,990
4821,941,990
4822,943,991
4823,944,995
4824,944,992
4825,945,992
4826,943,990
4827,943,991
4828,941,992
4829,943,993
4830,945,993
4831,945,992
4832,945,991
4833,942,990
4834,943,991
4835,943,993
4836,944,993
4837,946,990
4838,946,990
4839,945,989
4840,944,991
4841,946,993
4842,948,994
4843,948,992
4844,944,990
4845,944,989
4846,944,991
4847,949,994
4848,950,992
4849,949,995
4850,947,993
4851,945,992
4852,944,994
4853,946,995
4854,948,1000
4855,950,1000
4856,952,1006
4857,952,1024
4858,956,1073
4859,963,1152
4860,972,1195
4861,982,1168
4862,1004,1118
4863,1062,1083
4864,1130,1074
4865,1150,1069
4866,1109,1060
4867,1054,1043
4868,1028,1025
4869,1028,1004
4870,1035,978
4871,1038,946
4872,1040,907
4873,1043,861
4874,1043,817
4875,1042,771
4876,1044,737
4877,1047,702
4878,1045,671
4879,1044,639
4880,1040,603
4881,1041,565
4882,1047,536
4883,1050,511
4884,1047,491
4885,1040,476
4886,1034,454
4887,1025,434
4888,1016,419
4889,1005,415
4890,995,408
4891,982,397
4892,971,393
4893,952,385
4894,931,386
4895,919,388
4896,910,386
4897,913,385
4898,921,388
4899,924,394
4900,927,403
4901,925,417
4902,925,438
4903,925,460
4904,920,480
4905,919,509
4906,920,539
4907,922,573
4908,927,618
4909,928,666
4910,929,711
4911,932,759
4912,933,810
4913,934,859
4914,934,900
4915,934,941
4916,931,979
4917,927,1014
4918,925,1049
4919,927,1082
4920,932,1110
4921,927,1139
4922,932,1158
4923,932,1174
4924,934,1191
4925,936,1206
4926,940,1216
4927,941,1222
4928,943,1231
4929,941,1239
4930,945,1250
4931,946,1257
4932,948,1265
4933,947,1273
4934,946,1280
4935,945,1287
4936,946,1295
4937,949,1307
4938,950,1313
4939,953,1320
4940,951,1326
4941,948,1335
4942,949,1345
4943,948,1356
4944,954,1362
4945,954,1370
4946,952,1378
4947,950,1387
4948,951,1395
4949,955,1407
4950,955,1412
4951,954,1417
4952,955,1425
4953,952,1433
4954,955,1441
4955,959,1450
4956,959,1453
4957,960,1458
4958,960,1460
4959,959,1462
4960,964,1467
4961,965,1472
4962,965,1471
4963,965,1471
4964,965,1469
4965,964,1467
4966,968,1468
4967,975,1468
4968,978,1462
4969,979,1455
4970,978,1450
4971,979,1441
4972,979,1437
4973,979,1427
4974,982,1419
4975,984,1409
4976,980,1398
4977,978,1385
4978,982,1373
4979,983,1362
4980,983,1350
4981,985,1335
4982,984,1323
4983,981,1305
4984,983,1296
4985,986,1283
4986,986,1267
4987,985,1253
4988,983,1237
4989,984,1225
4990,986,1217
4991,986,1203
4992,987,1190
4993,983,1180
4994,982,1165
4995,979,1156
4996,981,1146
4997,979,1136
4998,978,1128
4999,974,1117
5000,975,1108
5001,974,1099
5002,973,1093
5003,972,1088
5004,974,1082
5005,974,1076
5006,969,1070
5007,969,1064
5008,970,1062
5009,970,1061
5010,971,1056
5011,970,1052
5012,970,1048
5013,968,1046
5014,968,1045
5015,964,1044
5016,967,1041
5017,965,1037
5018,963,1034
5019,962,1033
5020,964,1033
5021,967,1034
5022,968,1032
5023,965,1032
5024,967,1028
5025,962,1027
5026,963,1027
5027,962,1028
5028,965,1026
5029,967,1026
5030,964,1027
5031,961,1024
5032,963,1026
5033,965,1029
5034,970,1027
5035,967,1025
5036,968,1024
5037,966,1025
5038,969,1025
5039,968,1025
5040,971,1027
5041,970,1026
5042,968,1025
5043,966,1024
5044,967,1027
5045,966,1031
5046,966,1028
5047,962,1030
5048,963,1027
5049,963,1027
5050,963,1031
5051,963,1031
5052,963,1033
5053,963,1030
5054,960,1030
5055,963,1029
5056,965,1031
5057,968,1034
5058,968,1031
5059,965,1029
5060,962,1026
5061,959,1026
5062,962,1029
5063,962,1029
5064,962,1028
5065,958,1028
5066,960,1023
5067,960,1024
5068,960,1025
5069,962,1028
5070,965,1024
5071,964,1023
5072,964,1021
5073,961,1020
5074,960,1021
5075,962,1022
5076,962,1021
5077,961,1017
5078,959,1016
5079,956,1015
5080,957,1016
5081,958,1014
5082,960,1016
5083,958,1014
5084,959,1011
5085,954,1009
5086,957,1008
5087,957,1010
5088,959,1009
5089,962,1007
5090,961,1004
5091,961,1005
5092,963,1005
5093,964,1008
5094,967,1006
5095,961,1005
5096,962,1002
5097,958,1001
5098,961,1002
5099,961,1002
5100,964,1001
5101,964,999
5102,962,996
5103,959,997
5104,960,996
5105,959,1000
5106,957,997
5107,955,996
5108,952,997
5109,951,995
5110,953,996
5111,960,998
5112,964,998
5113,966,997
5114,965,996
5115,963,993
5116,963,996
5117,964,995
5118,966,997
5119,962,994
5120,962,993
5121,963,993
5122,964,994
5123,967,999
5124,965,1001
5125,963,1000
5126,962,1000
5127,959,1003
5128,957,1004
5129,962,1006
5130,964,1004
5131,962,1004
5132,961,1003
5133,960,1000
5134,958,1001
5135,962,1004
5136,965,1003
5137,966,1001
5138,967,1001
5139,965,998
5140,970,999
5141,973,1002
5142,977,998
5143,976,993
5144,975,991
5145,977,988
5146,978,990
5147,983,989
5148,983,988
5149,981,986
5150,980,985
5151,978,984
5152,980,987
5153,981,989
5154,984,993
5155,984,1003
5156,985,1034
5157,987,1105
5158,994,1185
5159,1007,1206
5160,1022,1161
5161,1063,1110
5162,1134,1085
5163,1197,1075
5164,1202,1068
5165,1146,1057
5166,1090,1045
5167,1061,1028
5168,1057,1007
5169,1055,981
5170,1060,953
5171,1061,922
5172,1062,880
5173,1065,836
5174,1062,795
5175,1065,760
5176,1067,734
5177,1069,708
5178,1070,679
5179,1070,641
5180,1073,600
5181,1073,563
5182,1074,536
5183,1076,516
5184,1072,496
5185,1067,481
5186,1060,459
5187,1052,443
5188,1046,433
5189,1038,425
5190,1027,415
5191,1015,405
5192,997,395
5193,974,395
5194,952,392
5195,936,390
5196,929,388
5197,930,387
5198,934,385
5199,935,393
5200,937,403
5201,935,421
5202,932,444
5203,926,471
5204,920,498
5205,921,533
5206,923,574
5207,930,621
5208,939,667
5209,944,713
5210,950,761
5211,950,813
5212,951,860
5213,948,902
5214,949,942
5215,947,980
5216,946,1014
5217,946,1048
5218,946,1080
5219,950,1109
5220,952,1130
5221,952,1150
5222,952,1159
5223,953,1170
5224,955,1180
5225,957,1192
5226,960,1201
5227,961,1209
5228,960,1215
5229,958,1221
5230,961,1231
5231,963,1240
5232,966,1247
5233,967,1252
5234,966,1258
5235,963,1264
5236,965,1275
5237,968,1282
5238,972,1289
5239,972,1297
5240,971,1304
5241,969,1310
5242,970,1321
5243,974,1330
5244,975,1339
5245,975,1343
5246,974,1349
5247,971,1357
5248,974,1366
5249,977,1373
5250,979,1382
5251,979,1387
5252,978,1392
5253,976,1398
5254,979,1406
5255,980,1414
5256,981,1419
5257,981,1420
5258,981,1422
5259,980,1424
5260,985,1428
5261,983,1433
5262,987,1431
5263,989,1428
5264,988,1428
5265,989,1423
5266,991,1424
5267,993,1423
5268,994,1415
5269,996,1407
5270,995,1399
5271,996,1389
5272,995,1383
5273,999,1373
5274,1001,1361
5275,999,1351
5276,998,1339
5277,997,1325
5278,997,1316
5279,1001,1306
5280,1000,1290
5281,998,1275
5282,998,1261
5283,994,1247
5284,994,1237
5285,997,1229
5286,997,1214
5287,994,1201
5288,993,1190
5289,992,1178
5290,989,1165
5291,992,1158
5292,991,1148
5293,989,1136
5294,985,1129
5295,983,1115
5296,985,1109
5297,985,1105
5298,983,1096
5299,981,1085
5300,979,1080
5301,973,1074
5302,975,1072
5303,976,1066
5304,977,1061
5305,975,1056
5306,974,1049
5307,971,1048
5308,971,1047
5309,972,1044
5310,974,1042
5311,973,1036
5312,970,1032
5313,967,1030
5314,967,1029
5315,967,1029
5316,969,1027
5317,967,1027
5318,968,1023
5319,964,1021
5320,965,1022
5321,967,1022
5322,967,1022
5323,966,1019
5324,964,1018
5325,962,1019
5326,962,1021
5327,968,1020
5328,967,1019
5329,965,1018
5330,964,1016
5331,964,1018
5332,963,1019
5333,966,1022
5334,968,1020
5335,966,1018
5336,964,1015
5337,964,1019
5338,965,1021
5339,966,1023
5340,965,1022
5341,966,1022
5342,964,1022
5343,963,1023
5344,964,1026
5345,967,1026
5346,968,1024
5347,966,1021
5348,964,1022
5349,963,1024
5350,964,1023
5351,966,1028
5352,967,1026
5353,966,1025
5354,963,1023
5355,961,1024
5356,964,1026
5357,966,1028
5358,965,1027
5359,964,1026
5360,964,1023
5361,960,1020
5362,961,1023
5363,964,1025
5364,966,1023
5365,965,1021
5366,961,1021
5367,960,1020
5368,962,1020
5369,962,1022
5370,964,1017
5371,962,1018
5372,959,1018
5373,957,1016
5374,959,1016
5375,959,1016
5376,959,1014
5377,960,1013
5378,959,1011
5379,955,1008
5380,956,1010
5381,957,1010
5382,959,1010
5383,958,1006
5384,956,1003
5385,953,1004
5386,955,1004
5387,954,1005
5388,955,1006
5389,954,1000
5390,952,999
5391,951,999
5392,952,1000
5393,952,1002
5394,954,1000
5395,953,999
5396,950,996
5397,949,996
5398,951,997
5399,951,996
5400,951,998
5401,952,993
5402,949,992
5403,948,994
5404,948,996
5405,950,997
5406,953,994
5407,951,993
5408,948,992
5409,949,992
5410,950,992
5411,950,993
5412,953,994
5413,950,991
5414,949,990
5415,947,990
5416,951,992
5417,950,992
5418,950,990
5419,953,987
5420,947,987
5421,945,988
5422,949,989
5423,949,990
5424,950,988
5425,952,988
5426,948,987
5427,948,986
5428,947,989
5429,949,991
5430,949,988
5431,950,987
5432,948,984
5433,948,985
5434,949,986
5435,948,989
5436,951,987
5437,950,986
5438,949,986
5439,947,984
5440,950,986
5441,949,990
5442,951,989
5443,950,986
5444,947,988
5445,948,988
5446,948,989
5447,951,992
5448,953,994
5449,953,995
5450,953,994
5451,949,994
5452,950,1000
5453,952,1005
5454,952,1006
5455,953,1005
5456,954,1012
5457,951,1028
5458,955,1079
5459,968,1156
5460,980,1203
5461,997,1184
5462,1030,1132
5463,1097,1100
5464,1175,1088
5465,1203,1080
5466,1157,1068
5467,1087,1051
5468,1046,1032
5469,1036,1008
5470,1041,977
5471,1050,946
5472,1051,905
5473,1049,855
5474,1048,806
5475,1048,765
5476,1054,732
5477,1059,704
5478,1056,676
5479,1052,646
5480,1043,613
5481,1041,579
5482,1043,543
5483,1041,511
5484,1036,485
5485,1025,466
5486,1015,447
5487,1006,427
5488,997,408
5489,986,401
5490,977,395
5491,964,388
5492,953,382
5493,941,378
5494,929,377
5495,913,378
5496,901,378
5497,898,376
5498,902,377
5499,910,381
5500,922,391
5501,934,402
5502,939,417
5503,940,439
5504,937,462
5505,932,489
5506,931,519
5507,934,558
5508,935,599
5509,937,642
5510,939,689
5511,943,736
5512,946,787
5513,945,832
5514,943,870
5515,937,910
5516,934,945
5517,931,982
5518,934,1016
5519,933,1051
5520,933,1080
5521,930,1107
5522,931,1125
5523,932,1142
5524,935,1160
5525,937,1170
5526,937,1181
5527,938,1186
5528,937,1193
5529,937,1202
5530,939,1210
5531,942,1222
5532,942,1230
5533,943,1233
5534,941,1241
5535,941,1245
5536,944,1255
5537,946,1265
5538,946,1272
5539,947,1277
5540,946,1281
5541,946,1288
5542,947,1300
5543,949,1306
5544,950,1315
5545,948,1321
5546,948,1326
5547,949,1334
5548,950,1342
5549,952,1353
5550,954,1357
5551,955,1359
5552,954,1367
5553,952,1372
5554,954,1382
5555,955,1388
5556,958,1395
5557,957,1400
5558,956,1402
5559,955,1407
5560,958,1413
5561,961,1420
5562,962,1423
5563,963,1422
5564,962,1424
5565,961,1423
5566,964,1427
5567,968,1428
5568,969,1426
5569,969,1420
5570,971,1417
5571,969,1413
5572,971,1411
5573,974,1408
5574,976,1398
5575,976,1387
5576,974,1377
5577,974,1369
5578,975,1362
5579,978,1352
5580,979,1341
5581,978,1327
5582,978,1314
5583,977,1302
5584,979,1291
5585,980,1282
5586,982,1265
5587,982,1252
5588,980,1239
5589,977,1222
5590,978,1215
5591,981,1206
5592,979,1193
5593,979,1180
5594,976,1167
5595,973,1156
5596,974,1147
5597,977,1141
5598,975,1128
5599,975,1120
5600,971,1108
5601,968,1098
5602,969,1093
5603,969,1090
5604,971,1081
5605,967,1073
5606,966,1067
5607,965,1062
5608,965,1061
5609,965,1057
5610,965,1050
5611,964,1045
5612,963,1042
5613,961,1035
5614,962,1034
5615,962,1035
5616,963,1032
5617,961,1028
5618,960,1023
5619,958,1021
5620,959,1023
5621,960,1024
5622,960,1022
5623,959,1021
5624,961,1020
5625,958,1017
5626,959,1019
5627,960,1023
5628,962,1021
5629,962,1020
5630,960,1017
5631,958,1020
5632,960,1022
5633,962,1022
5634,961,1023
5635,962,1021
5636,959,1020
5637,959,1020
5638,960,1024
5639,960,1026
5640,962,1024
5641,960,1027
5642,960,1023
5643,958,1024
5644,962,1027
5645,961,1030
5646,964,1029
5647,961,1027
5648,960,1023
5649,959,1022
5650,960,1026
5651,961,1029
5652,961,1027
5653,960,1025
5654,957,1024
5655,957,1020
5656,955,1023
5657,959,1027
5658,957,1023
5659,957,1023
5660,957,1020
5661,956,1020
5662,956,1021
5663,958,1022
5664,960,1023
5665,958,1018
5666,957,1015
5667,954,1015
5668,952,1018
5669,954,1018
5670,956,1014
5671,956,1012
5672,954,1009
5673,953,1005
5674,953,1010
5675,955,1010
5676,954,1010
5677,953,1006
5678,954,1006
5679,950,1003
5680,950,1004
5681,954,1004
5682,954,1003
5683,953,1000
5684,951,1000
5685,951,998
5686,949,1001
5687,950,1001
5688,952,999
5689,950,997
5690,948,996
5691,946,993
5692,948,994
5693,949,995
5694,949,993
5695,949,993
5696,949,993
5697,945,991
5698,948,992
5699,950,994
5700,949,990
5701,950,990
5702,948,987
5703,946,986
5704,947,990
5705,949,988
5706,947,987
5707,948,989
5708,948,985
5709,946,985
5710,946,984
5711,948,987
5712,948,988
5713,947,986
5714,946,982
5715,944,984
5716,946,986
5717,948,987
5718,948,985
5719,949,983
5720,946,981
5721,944,983
5722,945,984
5723,947,986
5724,949,983
5725,948,982
5726,945,983
5727,943,980
5728,944,981
5729,945,986
5730,950,984
5731,945,983
5732,946,982
5733,941,980
5734,946,983
5735,946,983
5736,947,982
5737,947,983
5738,945,980
5739,944,979
5740,945,980
5741,947,983
5742,947,981
5743,948,980
5744,946,978
5745,944,979
5746,946,980
5747,947,985
5748,949,980
5749,948,980
5750,947,980
5751,946,980
5752,948,983
5753,949,982
5754,951,983
5755,951,984
5756,952,983
5757,950,985
5758,951,995
5759,958,1009
5760,956,1045
5761,963,1118
5762,970,1177
5763,979,1170
5764,1002,1124
5765,1055,1092
5766,1129,1077
5767,1170,1066
5768,1150,1057
5769,1089,1043
5770,1047,1031
5771,1032,1013
5772,1034,984
5773,1035,953
5774,1034,922
5775,1033,886
5776,1032,844
5777,1034,803
5778,1036,761
5779,1038,730
5780,1041,698
5781,1036,667
5782,1035,636
5783,1035,599
5784,1033,551
5785,1033,511
5786,1029,480
5787,1022,459
5788,1018,442
5789,1015,426
5790,1006,407
5791,998,394
5792,985,388
5793,972,382
5794,962,382
5795,950,381
5796,935,375
5797,916,374
5798,898,371
5799,886,373
5800,888,375
5801,897,379
5802,906,380
5803,913,383
5804,918,390
5805,921,406
5806,923,424
5807,925,450
5808,927,478
5809,929,507
5810,928,544
5811,930,585
5812,934,628
5813,939,674
5814,949,722
5815,951,764
5816,950,805
5817,945,846
5818,941,886
5819,943,922
5820,941,960
5821,938,995
5822,935,1027
5823,930,1057
5824,931,1090
5825,936,1116
5826,936,1133
5827,935,1149
5828,936,1159
5829,935,1168
5830,937,1178
5831,938,1187
5832,941,1194
5833,938,1201
5834,939,1205
5835,937,1212
5836,939,1219
5837,940,1229
5838,943,1235
5839,941,1236
5840,942,1241
5841,941,1248
5842,945,1256
5843,944,1263
5844,945,1267
5845,944,1272
5846,941,1278
5847,940,1283
5848,945,1291
5849,944,1300
5850,945,1306
5851,946,1313
5852,942,1318
5853,944,1325
5854,945,1332
5855,945,1341
5856,946,1347
5857,945,1352
5858,949,1357
5859,949,1365
5860,952,1372
5861,954,1381
5862,956,1386
5863,955,1390
5864,956,1394
5865,955,1398
5866,956,1404
5867,961,1410
5868,962,1412
5869,964,1415
5870,962,1416
5871,962,1419
5872,964,1422
5873,968,1425
5874,970,1423
5875,970,1422
5876,970,1419
5877,970,1416
5878,972,1418
5879,974,1416
5880,976,1411
5881,974,1405
5882,974,1400
5883,973,1393
5884,975,1387
5885,979,1381
5886,978,1369
5887,981,1361
5888,979,1350
5889,980,1339
5890,983,1331
5891,984,1322
5892,987,1309
5893,986,1295
5894,984,1283
5895,980,1270
5896,982,1257
5897,985,1250
5898,984,1234
5899,984,1219
5900,983,1207
5901,982,1194
5902,982,1184
5903,983,1175
5904,985,1163
5905,983,1149
5906,978,1140
5907,976,1130
5908,979,1120
5909,977,1114
5910,976,1106
5911,973,1096
5912,974,1088
5913,970,1080
5914,971,1077
5915,972,1072
5916,971,1065
5917,971,1059
5918,967,1053
5919,968,1049
5920,968,1048
5921,972,1047
5922,973,1041
5923,971,1037
5924,970,1033
5925,970,1031
5926,969,1030
5927,969,1031
5928,969,1029
5929,967,1028
5930,965,1023
5931,962,1021
5932,965,1022
5933,966,1023
5934,965,1022
5935,967,1023
5936,968,1018
5937,965,1019
5938,965,1022
5939,967,1024
5940,965,1021
5941,964,1020
5942,964,1017
5943,962,1020
5944,963,1022
5945,965,1022
5946,965,1022
5947,965,1023
5948,964,1022
5949,961,1021
5950,963,1024
5951,966,1026
5952,965,1024
5953,966,1023
5954,964,1021
5955,963,1022
5956,962,1024
5957,965,1026
5958,967,1025
5959,966,1023
5960,966,1021
5961,961,1021
5962,963,1024
5963,963,1026
5964,963,1024
5965,963,1022
5966,965,1021
5967,964,1021
5968,967,1020
5969,968,1024
5970,967,1022
5971,965,1019
5972,960,1018
5973,957,1015
5974,961,1017
5975,961,1019
5976,961,1016
5977,959,1017
5978,960,1012
5979,959,1011
5980,962,1011
5981,964,1013
5982,963,1010
5983,961,1007
5984,958,1007
5985,955,1007
5986,957,1007
5987,959,1010
5988,960,1007
5989,960,1004
5990,956,1002
5991,955,1002
5992,955,1003
5993,959,1003
5994,957,1000
5995,955,1000
5996,954,997
5997,952,996
5998,956,999
5999,957,998
6000,958,999
6001,957,995
6002,955,993
6003,950,994
6004,953,992
6005,956,996
6006,957,994
6007,954,994
6008,953,990
6009,954,990
6010,954,992
6011,956,992
6012,956,992
6013,955,990
6014,955,988
6015,954,987
6016,956,988
6017,959,990
6018,960,991
6019,960,988
6020,959,987
6021,955,985
6022,958,988
6023,957,992
6024,958,988
6025,957,987
6026,953,987
6027,950,987
6028,955,986
6029,954,989
6030,957,986
6031,954,986
6032,954,984
6033,949,985
6034,953,987
6035,952,989
6036,954,988
6037,955,986
6038,956,985
6039,957,984
6040,958,986
6041,962,987
6042,961,987
6043,961,985
6044,959,983
6045,958,986
6046,960,988
6047,960,989
6048,958,988
6049,959,986
6050,957,983
6051,960,981
6052,960,985
6053,960,987
6054,963,986
6055,960,983
6056,959,981
6057,956,982
6058,958,983
6059,960,986
6060,961,983
6061,960,982
6062,958,983
6063,959,982
6064,961,985
6065,963,984
6066,962,985
6067,963,983
6068,963,982
6069,964,982
6070,967,987
6071,967,989
6072,967,988
6073,969,992
6074,968,995
6075,968,1009
6076,972,1051
6077,979,1128
6078,987,1198
6079,995,1196
6080,1011,1140
6081,1055,1094
6082,1131,1075
6083,1183,1067
6084,1165,1051
6085,1103,1037
6086,1058,1018
6087,1045,994
6088,1049,969
6089,1054,942
6090,1055,904
6091,1054,861
6092,1049,814
6093,1048,772
6094,1050,741
6095,1050,712
6096,1050,683
6097,1045,656
6098,1041,622
6099,1039,581
6100,1041,545
6101,1042,516
6102,1036,491
6103,1032,473
6104,1027,452
6105,1017,437
6106,1014,420
6107,1009,409
6108,998,399
6109,985,394
6110,973,386
6111,961,383
6112,948,382
6113,935,382
6114,918,381
6115,909,379
6116,904,380
6117,908,381
6118,913,384
6119,921,391
6120,926,398
6121,925,409
6122,923,428
6123,922,455
6124,922,487
6125,929,524
6126,938,567
6127,946,614
6128,952,661
6129,959,715
6130,961,769
6131,963,818
6132,962,861
6133,958,901
6134,956,938
6135,953,977
6136,958,1012
6137,960,1047
6138,956,1083
6139,956,1107
6140,955,1126
6141,956,1143
6142,959,1158
6143,961,1170
6144,967,1178
6145,964,1183
6146,964,1188
6147,964,1198
6148,964,1205
6149,966,1214
6150,965,1220
6151,964,1224
6152,965,1227
6153,961,1235
6154,963,1241
6155,965,1250
6156,967,1256
6157,965,1258
6158,965,1264
6159,967,1269
6160,968,1278
6161,969,1284
6162,970,1291
6163,969,1295
6164,969,1303
6165,968,1307
6166,970,1315
6167,973,1324
6168,976,1329
6169,977,1334
6170,978,1339
6171,979,1349
6172,980,1356
6173,981,1363
6174,981,1368
6175,980,1375
6176,982,1376
6177,980,1382
6178,986,1392
6179,990,1396
6180,988,1400
6181,991,1401
6182,993,1403
6183,998,1407
6184,998,1410
6185,1001,1415
6186,1000,1415
6187,999,1413
6188,999,1413
6189,1001,1410
6190,1004,1409
6191,1009,1408
6192,1011,1404
6193,1011,1399
6194,1013,1388
6195,1016,1384
6196,1019,1382
6197,1023,1372
6198,1023,1363
6199,1023,1351
6200,1020,1337
6201,1020,1327
6202,1021,1314
6203,1024,1303
6204,1025,1288
6205,1023,1274
6206,1024,1254
6207,1023,1243
6208,1025,1228
6209,1026,1216
6210,1024,1201
6211,1023,1187
6212,1022,1173
6213,1018,1163
6214,1018,1153
6215,1019,1146
6216,1019,1132
6217,1018,1120
6218,1015,1110
6219,1011,1101
6220,1009,1096
6221,1009,1090
6222,1007,1083
6223,1007,1075
6224,1005,1066
6225,1002,1063
6226,1004,1058
6227,1005,1057
6228,1003,1052
6229,1002,1049
6230,1001,1044
6231,995,1043
6232,995,1039
6233,997,1041
6234,996,1038
6235,994,1033
6236,992,1032
6237,991,1032
6238,992,1032
6239,992,1034
6240,995,1033
6241,992,1032
6242,991,1028
6243,991,1030
6244,988,1031
6245,990,1034
6246,989,1031
6247,989,1030
6248,988,1029
6249,987,1029
6250,989,1030
6251,990,1034
6252,990,1032
6253,989,1031
6254,987,1029
6255,987,1030
6256,987,1032
6257,988,1032
6258,990,1032
6259,987,1030
6260,988,1027
6261,986,1027
6262,987,1029
6263,990,1030
6264,989,1031
6265,990,1028
6266,988,1027
6267,989,1025
6268,989,1026
6269,990,1029
6270,989,1028
6271,985,1024
6272,987,1022
6273,982,1021
6274,983,1022
6275,985,1024
6276,985,1023
6277,982,1019
6278,982,1017
6279,980,1017
6280,981,1018
6281,981,1020
6282,982,1013
6283,979,1012
6284,978,1011
6285,978,1013
6286,979,1011
6287,981,1012
6288,982,1012
6289,980,1008
6290,978,1007
6291,978,1005
6292,977,1007
6293,977,1006
6294,979,1005
6295,977,1002
6296,976,1000
6297,975,1002
6298,974,1003
6299,974,1002
6300,978,1000
6301,976,999
6302,977,996
6303,973,997
6304,974,1000
6305,975,1000
6306,976,999
6307,976,995
6308,974,993
6309,975,995
6310,974,995
6311,977,996
6312,976,996
6313,975,993
6314,973,993
6315,972,994
6316,975,994
6317,976,995
6318,977,994
6319,973,992
6320,972,991
6321,972,991
6322,971,992
6323,973,992
6324,973,992
6325,971,989
6326,972,986
6327,970,987
6328,972,992
6329,971,991
6330,972,990
6331,972,989
6332,971,989
6333,970,987
6334,970,990
6335,972,989
6336,973,990
6337,972,989
6338,970,986
6339,969,988
6340,967,989
6341,969,990
6342,972,990
6343,971,988
6344,969,985
6345,967,985
6346,969,989
6347,971,989
6348,971,990
6349,971,989
6350,970,987
6351,967,986
6352,969,988
6353,971,992
6354,971,991
6355,972,986
6356,971,988
6357,969,986
6358,969,988
6359,972,988
6360,972,989
6361,972,989
6362,971,987
6363,969,989
6364,968,989
6365,974,990
6366,975,990
6367,976,989
6368,973,990
6369,972,991
6370,974,997
6371,975,1005
6372,981,1024
6373,983,1070
6374,986,1152
6375,991,1210
6376,1005,1193
6377,1035,1131
6378,1103,1091
6379,1180,1075
6380,1197,1069
6381,1144,1057
6382,1081,1046
6383,1053,1029
6384,1053,1009
6385,1057,980
6386,1059,942
6387,1056,902
6388,1057,859
6389,1060,816
6390,1063,773
6391,1064,738
6392,1059,706
6393,1056,678
6394,1055,645
6395,1053,610
6396,1052,567
6397,1051,532
6398,1047,507
6399,1039,486
6400,1034,474
6401,1025,456
6402,1017,436
6403,1006,422
6404,994,414
6405,978,407
6406,972,401
6407,965,398
6408,950,395
6409,931,393
6410,916,390
6411,909,389
6412,912,391
6413,918,395
6414,927,397
6415,929,400
6416,930,408
6417,930,424
6418,931,447
6419,936,474
6420,937,508
6421,943,542
6422,947,587
6423,951,640
6424,960,691
6425,967,744
6426,969,795
6427,965,842
6428,960,885
6429,954,929
6430,955,969
6431,957,1006
6432,953,1040
6433,951,1073
6434,952,1100
6435,949,1125
6436,952,1143
6437,957,1159
6438,958,1170
6439,957,1178
6440,955,1183
6441,954,1189
6442,956,1201
6443,957,1208
6444,956,1215
6445,957,1218
6446,953,1221
6447,951,1228
6448,953,1236
6449,955,1241
6450,954,1249
6451,953,1253
6452,953,1258
6453,950,1265
6454,953,1272
6455,952,1280
6456,955,1287
6457,955,1290
6458,953,1295
6459,952,1304
6460,952,1314
6461,957,1322
6462,959,1327
6463,956,1334
6464,957,1338
6465,955,1345
6466,958,1357
6467,959,1366
6468,961,1372
6469,961,1377
6470,963,1383
6471,962,1388
6472,965,1396
6473,966,1402
6474,969,1408
6475,970,1410
6476,971,1409
6477,972,1415
6478,974,1418
6479,977,1420
6480,979,1420
6481,982,1419
6482,983,1414
6483,981,1414
6484,985,1413
6485,989,1409
6486,990,1400
6487,990,1393
6488,991,1381
6489,991,1375
6490,997,1366
6491,1000,1355
6492,1001,1342
6493,1002,1327
6494,1001,1313
6495,999,1298
6496,1002,1285
6497,1004,1274
6498,1006,1256
6499,1005,1238
6500,1004,1226
6501,1002,1209
6502,1003,1197
6503,1002,1187
6504,1000,1173
6505,1000,1161
6506,1000,1147
6507,1000,1136
6508,999,1128
6509,999,1120
6510,998,1109
6511,994,1101
6512,993,1089
6513,991,1083
6514,991,1081
6515,990,1076
6516,989,1071
6517,988,1066
6518,986,1057
6519,982,1053
6520,984,1053
6521,983,1051
6522,983,1050
6523,984,1046
6524,979,1044
6525,977,1040
6526,977,1043
6527,978,1043
6528,978,1041
6529,979,1040
6530,978,1037
6531,974,1039
6532,975,1039
6533,978,1039
6534,976,1037
6535,977,1038
6536,975,1036
6537,975,1039
6538,975,1040
6539,979,1041
6540,975,1039
6541,976,1038
6542,976,1036
6543,973,1037
6544,972,1041
6545,977,1042
6546,975,1042
6547,974,1041
6548,975,1040
6549,972,1040
6550,972,1039
6551,975,1039
6552,973,1039
6553,972,1040
6554,972,1035
6555,971,1036
6556,972,1036
6557,972,1037
6558,972,1035
6559,973,1033
6560,971,1030
6561,968,1032
6562,970,1030
6563,972,1031
6564,971,1029
6565,971,1027
6566,969,1025
6567,968,1022
6568,968,1024
6569,969,1025
6570,969,1025
6571,968,1019
6572,967,1018
6573,966,1017
6574,966,1018
6575,968,1017
6576,968,1016
6577,968,1014
6578,964,1011
6579,962,1010
6580,965,1012
6581,965,1011
6582,966,1010
6583,965,1008
6584,963,1005
6585,961,1007
6586,962,1009
6587,967,1007
6588,966,1007
6589,964,1002
6590,963,1001
6591,960,1002
6592,962,1004
6593,965,1003
6594,964,1003
6595,963,1001
6596,961,1001
6597,959,998
6598,960,1002
6599,959,1002
6600,962,1000
6601,961,999
6602,955,996
6603,960,996
6604,960,999
6605,962,1001
6606,962,998
6607,961,996
6608,960,995
6609,960,995
6610,960,997
6611,964,998
6612,961,999
6613,962,996
6614,961,993
6615,960,993
6616,958,995
6617,964,995
6618,963,997
6619,962,993
6620,961,991
6621,958,992
6622,961,995
6623,962,996
6624,961,993
6625,959,994
6626,958,992
6627,959,993
6628,963,994
6629,962,994
6630,961,996
6631,959,992
6632,960,991
6633,956,993
6634,959,994
6635,961,997
6636,963,995
6637,961,993
6638,961,990
6639,959,992
6640,961,992
6641,966,996
6642,963,994
6643,963,992
6644,961,989
6645,960,991
6646,963,993
6647,965,994
6648,966,994
6649,965,995
6650,964,993
6651,962,995
6652,965,997
6653,968,999
6654,970,999
6655,968,1003
6656,971,1013
6657,972,1050
6658,977,1127
6659,985,1199
6660,998,1196
6661,1025,1140
6662,1087,1094
6663,1163,1075
6664,1193,1067
6665,1152,1057
6666,1085,1042
6667,1046,1020
6668,1044,991
6669,1049,962
6670,1053,924
6671,1053,887
6672,1053,839
6673,1053,793
6674,1052,755
6675,1050,724
6676,1051,694
6677,1050,665
6678,1048,625
6679,1048,579
6680,1047,537
6681,1043,504
6682,1040,486
6683,1032,468
6684,1023,449
6685,1013,429
6686,1000,415
6687,985,406
6688,975,407
6689,965,404
6690,951,395
6691,933,393
6692,914,392
6693,904,390
6694,907,392
6695,916,399
6696,923,399
6697,925,403
6698,928,412
6699,929,429
6700,932,454
6701,931,482
6702,934,513
6703,932,550
6704,936,594
6705,940,648
6706,948,707
6707,957,764
6708,958,823
6709,955,872
6710,951,917
6711,949,965
6712,951,1009
6713,951,1045
6714,949,1082
6715,950,1114
6716,950,1140
6717,954,1160
6718,960,1178
6719,963,1189
6720,966,1196
6721,965,1200
6722,963,1204
6723,962,1208
6724,964,1217
6725,968,1221
6726,971,1227
6727,970,1232
6728,973,1231
6729,970,1237
6730,970,1245
6731,973,1250
6732,971,1255
6733,969,1257
6734,969,1264
6735,966,1272
6736,968,1283
6737,971,1292
6738,970,1299
6739,967,1304
6740,962,1308
6741,957,1318
6742,960,1326
6743,961,1335
6744,960,1339
6745,958,1346
6746,956,1352
6747,958,1359
6748,956,1370
6749,957,1376
6750,959,1382
6751,957,1387
6752,957,1394
6753,957,1397
6754,957,1404
6755,961,1410
6756,962,1413
6757,962,1414
6758,961,1415
6759,961,1418
6760,965,1422
6761,969,1421
6762,970,1422
6763,969,1419
6764,969,1414
6765,970,1412
6766,973,1410
6767,974,1405
6768,978,1397
6769,979,1389
6770,977,1380
6771,981,1373
6772,984,1366
6773,986,1353
6774,987,1344
6775,986,1328
6776,986,1316
6777,987,1303
6778,987,1292
6779,990,1280
6780,991,1266
6781,992,1251
6782,988,1236
6783,989,1223
6784,990,1211
6785,994,1202
6786,992,1187
6787,992,1172
6788,990,1157
6789,989,1151
6790,992,1141
6791,992,1132
6792,992,1123
6793,988,1112
6794,985,1103
6795,983,1096
6796,984,1089
6797,985,1084
6798,981,1076
6799,980,1068
6800,977,1062
6801,975,1057
6802,977,1057
6803,978,1053
6804,978,1050
6805,973,1042
6806,973,1041
6807,971,1039
6808,974,1040
6809,977,1041
6810,974,1039
6811,972,1033
6812,969,1031
6813,967,1031
6814,968,1032
6815,972,1033
6816,969,1033
6817,969,1030
6818,967,1030
6819,969,1031
6820,968,1031
6821,970,1033
6822,969,1033
6823,967,1032
6824,965,1030
6825,965,1031
6826,966,1031
6827,967,1034
6828,969,1033
6829,966,1031
6830,964,1028
6831,966,1030
6832,967,1032
6833,968,1031
6834,969,1033
6835,967,1029
6836,964,1027
6837,963,1030
6838,964,1031
6839,966,1034
6840,963,1029
6841,963,1029
6842,960,1025
6843,961,1026
6844,963,1029
6845,964,1029
6846,964,1028
6847,963,1024
6848,961,1023
6849,961,1024
6850,963,1025
6851,964,1025
6852,963,1025
6853,963,1020
6854,961,1017
6855,959,1017
6856,962,1019
6857,962,1018
6858,961,1016
6859,958,1013
6860,959,1012
6861,960,1011
6862,960,1012
6863,961,1012
6864,961,1011
6865,960,1007
6866,959,1008
6867,957,1007
6868,958,1006
6869,957,1007
6870,959,1007
6871,958,1004
6872,957,1002
6873,956,999
6874,961,1004
6875,962,1002
6876,960,1002
6877,960,998
6878,958,996
6879,957,996
6880,957,998
6881,959,997
6882,958,997
6883,956,995
6884,955,997
6885,955,993
6886,954,995
6887,958,996
6888,959,994
6889,959,995
6890,956,993
6891,958,991
6892,960,993
6893,958,995
6894,957,994
6895,958,992
6896,957,988
6897,957,988
6898,959,991
6899,959,991
6900,959,990
6901,955,989
6902,953,988
6903,955,987
6904,959,989
6905,961,991
6906,960,989
6907,960,988
6908,956,986
6909,957,988
6910,958,990
6911,958,991
6912,957,991
6913,959,989
6914,956,986
6915,956,986
6916,960,988
6917,961,991
6918,962,990
6919,960,987
6920,960,987
6921,958,987
6922,961,986
6923,962,991
6924,962,986
6925,964,985
6926,961,987
6927,958,985
6928,963,988
6929,964,987
6930,965,987
6931,966,983
6932,967,984
6933,966,987
6934,966,987
6935,971,988
6936,970,988
6937,965,986
6938,963,986
6939,963,988
6940,967,990
6941,971,994
6942,972,998
6943,975,1006
6944,978,1031
6945,984,1105
6946,995,1180
6947,1012,1181
6948,1045,1126
6949,1113,1077
6950,1175,1060
6951,1175,1051
6952,1125,1040
6953,1075,1024
6954,1053,1000
6955,1050,971
6956,1052,935
6957,1053,903
6958,1051,861
6959,1051,817
6960,1055,773
6961,1052,739
6962,1051,708
6963,1044,679
6964,1044,647
6965,1044,608
6966,1042,563
6967,1040,522
6968,1035,497
6969,1031,478
6970,1028,460
6971,1024,442
6972,1012,424
6973,995,413
6974,981,404
6975,969,401
6976,959,399
6977,940,394
6978,921,393
6979,908,394
6980,903,389
6981,908,393
6982,916,399
6983,925,407
6984,929,416
6985,929,432
6986,925,455
6987,926,483
6988,929,519
6989,935,559
6990,941,606
6991,946,653
6992,954,705
6993,961,762
6994,963,818
6995,961,864
6996,961,906
6997,958,949
6998,959,988
6999,961,1028
7000,960,1068
7001,963,1100
7002,964,1125
7003,969,1143
7004,969,1155
7005,970,1168
7006,974,1180
7007,976,1189
7008,977,1196
7009,978,1202
7010,979,1208
7011,977,1214
7012,980,1223
7013,983,1231
7014,983,1236
7015,984,1240
7016,985,1247
7017,984,1254
7018,986,1262
7019,988,1271
7020,988,1278
7021,984,1280
7022,983,1287
7023,982,1295
7024,983,1304
7025,987,1310
7026,991,1319
7027,996,1323
7028,999,1329
7029,999,1334
7030,1003,1339
7031,1003,1347
7032,1002,1351
7033,998,1356
7034,1000,1358
7035,1001,1365
7036,1007,1370
7037,1011,1374
7038,1010,1377
7039,1013,1379
7040,1009,1380
7041,1006,1385
7042,1008,1391
7043,1014,1396
7044,1018,1396
7045,1016,1398
7046,1013,1398
7047,1011,1400
7048,1015,1402
7049,1015,1403
7050,1013,1400
7051,1012,1392
7052,1012,1386
7053,1014,1383
7054,1015,1379
7055,1015,1372
7056,1014,1364
7057,1012,1355
7058,1011,1341
7059,1012,1331
7060,1016,1324
7061,1018,1313
7062,1013,1297
7063,1011,1284
7064,1010,1271
7065,1012,1256
7066,1015,1248
7067,1018,1235
7068,1018,1221
7069,1011,1204
7070,1006,1191
7071,1006,1180
7072,1011,1169
7073,1014,1159
7074,1017,1149
7075,1017,1134
7076,1013,1123
7077,1009,1114
7078,1006,1107
7079,1005,1101
7080,1005,1092
7081,1003,1084
7082,1005,1073
7083,1004,1068
7084,1005,1064
7085,1008,1057
7086,1004,1054
7087,1003,1049
7088,1002,1043
7089,998,1039
7090,998,1037
7091,998,1037
7092,997,1033
7093,996,1028
7094,994,1026
7095,993,1024
7096,994,1026
7097,996,1026
7098,992,1024
7099,990,1022
7100,990,1020
7101,989,1019
7102,995,1022
7103,997,1023
7104,998,1021
7105,993,1021
7106,990,1017
7107,988,1018
7108,990,1022
7109,991,1023
7110,993,1021
7111,992,1019
7112,990,1017
7113,988,1018
7114,988,1022
7115,987,1023
7116,988,1022
7117,985,1020
7118,985,1018
7119,986,1023
7120,987,1022
7121,989,1022
7122,990,1021
7123,989,1021
7124,986,1017
7125,985,1022
7126,987,1023
7127,989,1022
7128,990,1020
7129,988,1019
7130,987,1019
7131,986,1017
7132,984,1021
7133,988,1019
7134,989,1020
7135,985,1017
7136,984,1013
7137,983,1014
7138,984,1016
7139,987,1015
7140,987,1017
7141,985,1011
7142,983,1009
7143,984,1009
7144,984,1009
7145,987,1011
7146,987,1010
7147,984,1009
7148,984,1005
7149,984,1005
7150,984,1006
7151,985,1007
7152,985,1004
7153,983,1000
7154,980,999
7155,978,998
7156,983,999
7157,984,1001
7158,983,999
7159,982,996
7160,981,992
7161,980,994
7162,980,995
7163,982,996
7164,983,995
7165,981,992
7166,980,989
7167,977,992
7168,983,993
7169,982,991
7170,978,992
7171,977,988
7172,975,986
7173,975,987
7174,981,989
7175,981,990
7176,981,989
7177,980,988
7178,980,986
7179,975,988
7180,978,989
7181,979,989
7182,979,987
7183,978,986
7184,976,984
7185,979,985
7186,978,989
7187,980,986
7188,981,986
7189,980,986
7190,978,980
7191,979,981
7192,977,984
7193,979,982
7194,979,985
7195,979,983
7196,978,979
7197,977,982
7198,978,984
7199,979,985
7200,978,982
7201,979,983
7202,977,981
7203,976,980
7204,978,983
7205,981,984
7206,980,983
7207,979,980
7208,979,979
7209,979,981
7210,980,981
7211,981,981
7212,980,981
7213,982,980
7214,980,978
7215,980,982
7216,982,984
7217,983,982
7218,982,983
7219,980,979
7220,978,978
7221,978,978
7222,978,981
7223,983,982
7224,983,980
7225,980,980
7226,980,981
7227,979,979
7228,982,983
7229,984,984
7230,983,985
7231,984,984
7232,985,989
7233,986,995
7234,991,1019
7235,994,1071
7236,1002,1145
7237,1015,1167
7238,1041,1124
7239,1101,1080
7240,1180,1063
7241,1204,1054
7242,1155,1045
7243,1095,1031
7244,1061,1013
7245,1061,994
7246,1065,974
7247,1069,946
7248,1068,909
7249,1066,869
7250,1064,826
7251,1064,790
7252,1065,757
7253,1066,729
7254,1064,700
7255,1057,666
7256,1054,630
7257,1051,588
7258,1053,551
7259,1050,525
7260,1045,502
7261,1038,484
7262,1029,462
7263,1019,444
7264,1009,431
7265,997,419
7266,985,414
7267,971,405
7268,958,401
7269,940,400
7270,925,399
7271,911,399
7272,903,397
7273,902,397
7274,906,395
7275,911,401
7276,918,406
7277,924,417
7278,924,428
7279,925,445
7280,924,468
7281,927,494
7282,931,527
7283,936,565
7284,942,605
7285,951,649
7286,955,694
7287,961,746
7288,967,796
7289,962,842
7290,964,882
7291,963,924
7292,960,960
7293,959,996
7294,962,1029
7295,963,1057
7296,965,1088
7297,964,1111
7298,965,1127
7299,966,1141
7300,968,1155
7301,971,1164
7302,973,1171
7303,972,1180
7304,969,1183
7305,969,1191
7306,972,1198
7307,977,1203
7308,975,1208
7309,976,1213
7310,975,1217
7311,973,1226
7312,975,1229
7313,978,1237
7314,976,1242
7315,979,1245
7316,977,1249
7317,976,1255
7318,979,1261
7319,980,1268
7320,980,1274
7321,979,1279
7322,978,1283
7323,975,1291
7324,976,1298
7325,979,1302
7326,982,1310
7327,980,1313
7328,981,1319
7329,981,1326
7330,983,1334
7331,984,1341
7332,982,1349
7333,987,1353
7334,985,1356
7335,983,1362
7336,986,1372
7337,991,1376
7338,992,1380
7339,990,1383
7340,991,1385
7341,992,1389
7342,994,1394
7343,997,1397
7344,998,1399
7345,997,1396
7346,999,1397
7347,999,1398
7348,1003,1399
7349,1004,1397
7350,1007,1396
7351,1005,1392
7352,1007,1385
7353,1008,1384
7354,1007,1377
7355,1011,1373
7356,1011,1364
7357,1012,1357
7358,1010,1345
7359,1009,1337
7360,1011,1328
7361,1012,1322
7362,1015,1306
7363,1011,1295
7364,1013,1282
7365,1012,1270
7366,1019,1262
7367,1021,1250
7368,1022,1233
7369,1021,1218
7370,1018,1204
7371,1016,1192
7372,1018,1179
7373,1022,1169
7374,1022,1154
7375,1019,1140
7376,1019,1127
7377,1018,1118
7378,1019,1110
7379,1019,1103
7380,1017,1094
7381,1014,1084
7382,1010,1073
7383,1008,1067
7384,1009,1062
7385,1009,1055
7386,1006,1053
7387,1002,1047
7388,1001,1042
7389,997,1039
7390,998,1038
7391,996,1036
7392,995,1033
7393,987,1030
7394,987,1025
7395,984,1022
7396,988,1021
7397,988,1021
7398,987,1020
7399,986,1016
7400,982,1015
7401,982,1013
7402,983,1016
7403,983,1014
7404,982,1016
7405,980,1013
7406,978,1013
7407,976,1012
7408,977,1014
7409,980,1015
7410,980,1017
7411,979,1012
7412,975,1012
7413,977,1009
7414,977,1016
7415,978,1013
7416,977,1014
7417,976,1011
7418,974,1011
7419,976,1013
7420,978,1014
7421,978,1016
7422,976,1014
7423,976,1014
7424,973,1012
7425,970,1014
7426,973,1017
7427,974,1017
7428,975,1016
7429,973,1015
7430,971,1011
7431,970,1013
7432,971,1013
7433,974,1014
7434,973,1013
7435,972,1012
7436,970,1008
7437,968,1011
7438,969,1011
7439,971,1011
7440,971,1009
7441,969,1009
7442,968,1009
7443,966,1005
7444,967,1006
7445,969,1006
7446,968,1006
7447,968,1002
7448,966,999
7449,963,1001
7450,963,1002
7451,968,1001
7452,965,1001
7453,967,998
7454,964,996
7455,962,997
7456,966,997
7457,965,998
7458,964,998
7459,961,994
7460,961,992
7461,960,990
7462,961,993
7463,962,990
7464,962,990
7465,961,989
7466,959,989
7467,961,989
7468,961,990
7469,960,991
7470,962,989
7471,961,986
7472,958,985
7473,956,984
7474,960,987
7475,961,989
7476,962,987
7477,959,985
7478,957,983
7479,956,984
7480,958,987
7481,960,986
7482,960,985
7483,958,981
7484,959,981
7485,955,981
7486,957,985
7487,957,982
7488,960,984
7489,960,982
7490,958,980
7491,956,979
7492,959,981
7493,959,984
7494,959,983
7495,958,981
7496,957,978
7497,956,981
7498,957,984
7499,957,982
7500,960,983
7501,958,978
7502,957,979
7503,957,981
7504,958,983
7505,961,983
7506,959,982
7507,958,980
7508,956,978
7509,957,979
7510,960,983
7511,960,983
7512,959,982
7513,960,979
7514,959,977
7515,957,980
7516,959,981
7517,960,982
7518,959,979
7519,960,978
7520,957,977
7521,959,979
7522,959,982
7523,963,982
7524,964,980
7525,964,979
7526,963,979
7527,958,979
7528,962,981
7529,964,983
7530,963,982
7531,964,980
7532,962,976
7533,963,979
7534,964,982
7535,968,983
7536,967,982
7537,966,984
7538,964,983
7539,965,989
7540,971,999
7541,974,1025
7542,980,1080
7543,986,1152
7544,996,1199
7545,1016,1170
7546,1058,1114
7547,1128,1081
7548,1176,1067
7549,1155,1056
7550,1102,1041
7551,1064,1030
7552,1053,1017
7553,1052,993
7554,1053,964
7555,1052,932
7556,1047,897
7557,1047,857
7558,1049,818
7559,1050,778
7560,1050,744
7561,1050,715
7562,1046,685
7563,1042,659
7564,1043,633
7565,1043,600
7566,1045,562
7567,1041,528
7568,1036,502
7569,1032,487
7570,1029,474
7571,1025,463
7572,1016,445
7573,1007,428
7574,997,419
7575,986,415
7576,976,412
7577,968,408
7578,956,405
7579,942,402
7580,925,398
7581,914,399
7582,912,400
7583,914,402
7584,921,404
7585,925,406
7586,927,407
7587,928,415
7588,929,433
7589,932,449
7590,933,473
7591,930,496
7592,931,527
7593,933,566
7594,938,614
7595,947,662
7596,952,712
7597,954,762
7598,955,809
7599,951,858
7600,952,901
7601,954,943
7602,953,977
7603,950,1009
7604,949,1042
7605,950,1078
7606,950,1110
7607,953,1133
7608,956,1150
7609,956,1162
7610,956,1170
7611,955,1179
7612,960,1189
7613,961,1198
7614,958,1206
7615,960,1208
7616,960,1214
7617,960,1220
7618,960,1230
7619,963,1236
7620,963,1241
7621,963,1245
7622,961,1248
7623,961,1254
7624,964,1265
7625,966,1270
7626,966,1275
7627,967,1278
7628,964,1283
7629,965,1291
7630,967,1298
7631,967,1303
7632,969,1310
7633,968,1315
7634,966,1319
7635,968,1328
7636,969,1336
7637,971,1344
7638,973,1350
7639,971,1353
7640,970,1360
7641,967,1369
7642,972,1375
7643,976,1382
7644,974,1387
7645,974,1390
7646,973,1393
7647,975,1397
7648,979,1407
7649,982,1410
7650,981,1413
7651,981,1414
7652,981,1415
7653,978,1417
7654,983,1421
7655,989,1422
7656,988,1420
7657,990,1417
7658,989,1414
7659,990,1413
7660,993,1408
7661,995,1404
7662,997,1400
7663,994,1390
7664,995,1380
7665,995,1373
7666,997,1364
7667,1000,1357
7668,999,1346
7669,998,1330
7670,999,1319
7671,998,1308
7672,1000,1299
7673,1000,1288
7674,1003,1276
7675,1001,1259
7676,998,1246
7677,1002,1237
7678,1002,1227
7679,1002,1213
7680,1003,1200
7681,1001,1188
7682,998,1176
7683,999,1166
7684,1001,1156
7685,999,1150
7686,998,1136
7687,997,1123
7688,995,1115
7689,993,1106
7690,994,1101
7691,993,1093
7692,991,1085
7693,989,1077
7694,984,1072
7695,987,1067
7696,989,1064
7697,987,1057
7698,986,1053
7699,984,1047
7700,983,1044
7701,982,1041
7702,980,1039
7703,981,1037
7704,979,1034
7705,978,1032
7706,977,1029
7707,978,1028
7708,979,1029
7709,980,1029
7710,981,1028
7711,979,1025
7712,975,1023
7713,974,1023
7714,976,1025
7715,977,1027
7716,976,1026
7717,975,1025
7718,973,1022
7719,974,1023
7720,977,1026
7721,978,1028
7722,977,1027
7723,976,1023
7724,975,1024
7725,973,1027
7726,975,1031
7727,978,1037
7728,975,1034
7729,974,1033
7730,973,1034
7731,968,1038
7732,974,1037
7733,975,1037
7734,974,1036
7735,973,1034
7736,970,1034
7737,970,1035
7738,974,1038
7739,975,1037
7740,976,1038
7741,973,1035
7742,974,1032
7743,971,1033
7744,975,1035
7745,978,1033
7746,977,1031
7747,978,1025
7748,975,1020
7749,977,1020
7750,978,1018
7751,980,1018
7752,979,1016
7753,980,1012
7754,977,1010
7755,978,1009
7756,978,1009
7757,978,1007
7758,979,1007
7759,977,1006
7760,975,1002
7761,973,1004
7762,976,1008
7763,974,1008
7764,973,1008
7765,971,1002
7766,968,1000
7767,964,1000
7768,967,1002
7769,965,1003
7770,964,1002
7771,962,1000
7772,961,997
7773,957,998
7774,962,1001
7775,965,1000
7776,963,999
7777,963,996
7778,959,993
7779,958,994
7780,958,995
7781,961,996
7782,960,994
7783,962,992
7784,957,993
7785,958,992
7786,959,995
7787,959,993
7788,959,994
7789,957,992
7790,954,989
7791,954,991
7792,956,991
7793,958,993
7794,958,991
7795,958,986
7796,956,986
7797,955,988
7798,956,991
7799,960,991
7800,961,990
7801,958,986
7802,955,985
7803,955,989
7804,957,989
7805,960,991
7806,960,992
7807,958,987
7808,957,987
7809,957,987
7810,960,988
7811,961,992
7812,961,989
7813,961,989
7814,955,985
7815,957,990
7816,960,988
7817,962,989
7818,962,990
7819,961,988
7820,959,987
7821,959,986
7822,962,991
7823,963,992
7824,964,990
7825,962,990
7826,960,988
7827,959,992
7828,962,992
7829,965,992
7830,962,992
7831,959,991
7832,957,987
7833,961,989
7834,963,990
7835,964,992
7836,963,993
7837,963,989
7838,962,988
7839,961,991
7840,963,991
7841,964,992
7842,965,993
7843,963,991
7844,962,990
7845,962,993
7846,966,997
7847,969,1002
7848,970,1012
7849,971,1037
7850,974,1101
7851,984,1176
7852,998,1190
7853,1028,1142
7854,1089,1096
7855,1168,1071
7856,1200,1063
7857,1156,1055
7858,1094,1044
7859,1060,1027
7860,1050,1011
7861,1052,985
7862,1049,954
7863,1049,927
7864,1051,898
7865,1052,866
7866,1052,827
7867,1051,786
7868,1049,750
7869,1048,719
7870,1048,695
7871,1045,674
7872,1042,647
7873,1041,620
7874,1041,589
7875,1044,558
7876,1046,535
7877,1047,520
7878,1043,504
7879,1040,487
7880,1032,469
7881,1024,457
7882,1015,444
7883,1005,440
7884,993,434
7885,984,427
7886,970,418
7887,954,415
7888,938,416
7889,934,416
7890,933,416
7891,937,415
7892,944,418
7893,949,423
7894,952,437
7895,952,452
7896,950,467
7897,946,488
7898,943,510
7899,941,539
7900,944,567
7901,946,606
7902,946,645
7903,949,686
7904,949,729
7905,950,776
7906,953,822
7907,956,869
7908,958,909
7909,959,948
7910,955,984
7911,957,1020
7912,956,1052
7913,955,1085
7914,953,1111
7915,954,1134
7916,956,1153
7917,959,1172
7918,962,1183
7919,961,1195
7920,962,1201
7921,962,1209
7922,959,1218
7923,961,1225
7924,965,1236
7925,968,1245
7926,971,1252
7927,968,1258
7928,967,1263
7929,966,1272
7930,973,1281
7931,973,1290
7932,975,1296
7933,972,1303
7934,972,1309
7935,974,1318
7936,975,1329
7937,977,1337
7938,977,1344
7939,975,1349
7940,976,1358
7941,975,1365
7942,978,1376
7943,980,1382
7944,980,1390
7945,980,1396
7946,979,1404
7947,979,1413
7948,982,1421
7949,984,1430
7950,986,1432
7951,986,1436
7952,985,1436
7953,986,1443
7954,988,1448
7955,988,1450
7956,991,1450
7957,992,1450
7958,990,1447
7959,995,1449
7960,997,1450
7961,999,1447
7962,999,1440
7963,1002,1435
7964,1002,1429
7965,1005,1424
7966,1008,1420
7967,1009,1411
7968,1012,1402
7969,1011,1391
7970,1010,1380
7971,1008,1369
7972,1010,1359
7973,1010,1348
7974,1012,1335
7975,1012,1317
7976,1013,1305
7977,1010,1294
7978,1006,1280
7979,1008,1269
7980,1005,1258
7981,1001,1240
7982,1005,1228
7983,1002,1214
7984,1009,1202
7985,1009,1193
7986,1009,1181
7987,1007,1166
7988,1005,1155
7989,1001,1147
7990,1000,1139
7991,999,1130
7992,997,1121
7993,999,1108
7994,997,1100
7995,995,1095
7996,994,1092
7997,997,1087
7998,998,1077
7999,996,1072
8000,994,1065
8001,991,1061
8002,992,1059
8003,990,1059
8004,990,1055
8005,989,1050
8006,988,1044
8007,987,1044
8008,986,1047
8009,988,1043
8010,987,1040
8011,986,1037
8012,986,1035
8013,985,1034
8014,988,1035
8015,989,1033
8016,987,1033
8017,988,1030
8018,988,1028
8019,988,1030
8020,988,1031
8021,987,1030
8022,985,1028
8023,983,1026
8024,985,1025
8025,985,1027
8026,987,1028
8027,993,1026
8028,990,1027
8029,989,1026
8030,985,1025
8031,986,1026
8032,989,1028
8033,992,1029
8034,989,1027
8035,989,1027
8036,988,1023
8037,984,1026
8038,986,1030
8039,987,1029
8040,988,1030
8041,987,1026
8042,984,1025
8043,983,1027
8044,987,1031
8045,990,1029
8046,987,1027
8047,988,1027
8048,985,1026
8049,984,1027
8050,985,1028
8051,984,1029
8052,985,1028
8053,985,1026
8054,984,1025
8055,983,1026
8056,984,1029
8057,985,1029
8058,982,1024
8059,981,1022
8060,978,1021
8061,981,1023
8062,985,1025
8063,985,1024
8064,985,1022
8065,982,1019
8066,980,1020
8067,981,1019
8068,981,1021
8069,984,1022
8070,984,1018
8071,982,1016
8072,981,1014
8073,979,1014
8074,981,1014
8075,983,1017
8076,981,1015
8077,979,1015
8078,980,1012
8079,978,1015
8080,978,1016
8081,978,1017
8082,977,1018
8083,975,1017
8084,975,1017
8085,976,1015
8086,978,1018
8087,982,1018
8088,981,1018
8089,978,1014
8090,973,1014
8091,975,1014
8092,977,1016
8093,979,1016
8094,981,1016
8095,981,1013
8096,982,1010
8097,982,1005
8098,984,1006
8099,985,1005
8100,984,1005
8101,985,1000
8102,983,999
8103,987,998
8104,988,998
8105,989,996
8106,989,994
8107,985,990
8108,980,988
8109,981,988
8110,981,989
8111,983,990
8112,982,989
8113,985,987
8114,986,987
8115,987,990
8116,990,993
8117,991,994
8118,988,993
8119,986,990
8120,980,989
8121,979,989
8122,982,990
8123,981,990
8124,980,991
8125,976,990
8126,973,990
8127,972,990
8128,975,990
8129,977,992
8130,976,992
8131,978,990
8132,979,988
8133,979,990
8134,982,992
8135,984,991
8136,983,992
8137,982,990
8138,982,991
8139,982,990
8140,984,992
8141,978,993
8142,979,992
8143,980,989
8144,980,989
8145,985,993
8146,988,993
8147,988,996
8148,987,999
8149,984,1000
8150,984,1010
8151,989,1036
8152,995,1099
8153,1003,1172
8154,1008,1201
8155,1020,1163
8156,1046,1115
8157,1111,1089
8158,1177,1084
8159,1197,1077
8160,1157,1070
8161,1100,1064
8162,1067,1060
8163,1059,1055
8164,1065,1048
8165,1069,1038
8166,1072,1022
8167,1075,997
8168,1076,967
8169,1079,935
8170,1086,900
8171,1092,864
8172,1097,823
8173,1096,777
8174,1097,728
8175,1095,688
8176,1096,659
8177,1103,627
8178,1107,602
8179,1111,579
8180,1109,558
8181,1104,539
8182,1104,517
8183,1105,497
8184,1103,476
8185,1095,459
8186,1081,450
8187,1068,443
8188,1060,439
8189,1051,436
8190,1037,427
8191,1016,423
8192,993,417
8193,977,419
8194,974,418
8195,976,418
8196,977,421
8197,976,419
8198,974,427
8199,969,436
8200,969,449
8201,967,466
8202,962,487
8203,957,504
8204,952,528
8205,950,554
8206,953,582
8207,956,611
8208,956,644
8209,956,680
8210,956,718
8211,953,761
8212,955,799
8213,959,838
8214,963,875
8215,962,908
8216,959,944
8217,961,981
8218,961,1018
8219,964,1042
8220,960,1066
8221,957,1086
8222,959,1111
8223,962,1135
8224,967,1155
8225,973,1169
8226,971,1180
8227,971,1187
8228,972,1195
8229,972,1203
8230,974,1214
8231,976,1221
8232,976,1227
8233,975,1232
8234,975,1236
8235,975,1247
8236,978,1258
8237,979,1265
8238,980,1273
8239,977,1277
8240,977,1284
8241,977,1291
8242,976,1303
8243,979,1311
8244,980,1319
8245,978,1324
8246,977,1330
8247,978,1341
8248,979,1349
8249,983,1359
8250,983,1367
8251,981,1372
8252,982,1375
8253,983,1384
8254,986,1392
8255,987,1397
8256,988,1404
8257,987,1408
8258,988,1412
8259,986,1417
8260,992,1424
8261,991,1429
8262,992,1434
8263,992,1433
8264,991,1436
8265,992,1437
8266,997,1440
8267,1001,1440
8268,1001,1439
8269,1000,1439
8270,999,1434
8271,1004,1433
8272,1006,1430
8273,1007,1423
8274,1006,1419
8275,1007,1409
8276,1008,1398
8277,1008,1393
8278,1011,1388
8279,1015,1378
8280,1012,1366
8281,1014,1354
8282,1014,1342
8283,1014,1330
8284,1016,1320
8285,1017,1308
8286,1018,1294
8287,1015,1280
8288,1015,1270
8289,1013,1256
8290,1016,1246
8291,1019,1233
8292,1018,1220
8293,1010,1208
8294,1014,1195
8295,1010,1185
8296,1010,1176
8297,1011,1166
8298,1009,1155
8299,1007,1146
8300,1002,1135
8301,1002,1127
8302,1003,1120
8303,1006,1114
8304,1001,1106
8305,1001,1099
8306,997,1092
8307,995,1086
8308,998,1082
8309,997,1076
8310,999,1074
8311,997,1068
8312,991,1062
8313,992,1059
8314,993,1057
8315,994,1053
8316,991,1050
8317,991,1045
8318,989,1042
8319,988,1042
8320,991,1042
8321,993,1040
8322,989,1036
8323,988,1034
8324,987,1032
8325,986,1032
8326,987,1033
8327,990,1032
8328,988,1030
8329,987,1027
8330,985,1025
8331,982,1025
8332,984,1025
8333,985,1024
8334,985,1026
8335,984,1023
8336,983,1024
8337,984,1021
8338,985,1025
8339,988,1026
8340,988,1023
8341,985,1024
8342,981,1023
8343,983,1022
8344,983,1024
8345,986,1026
8346,986,1024
8347,984,1022
8348,982,1022
8349,980,1022
8350,982,1025
8351,986,1027
8352,987,1026
8353,984,1023
8354,982,1023
8355,980,1025
8356,980,1025
8357,983,1027
8358,982,1026
8359,980,1027
8360,979,1022
8361,978,1024
8362,979,1028
8363,981,1027
8364,980,1027
8365,981,1026
8366,975,1023
8367,975,1026
8368,979,1029
8369,979,1030
8370,977,1026
8371,979,1024
8372,978,1024
8373,977,1022
8374,977,1025
8375,979,1025
8376,978,1026
8377,977,1021
8378,974,1019
8379,972,1023
8380,974,1023
8381,979,1022
8382,976,1018
8383,975,1018
8384,971,1015
8385,974,1017
8386,972,1017
8387,974,1017
8388,974,1016
8389,972,1013
8390,968,1009
8391,969,1010
8392,974,1013
8393,976,1010
8394,976,1011
8395,974,1007
8396,972,1005
8397,971,1005
8398,973,1007
8399,974,1008
8400,971,1006
8401,972,1005
8402,969,1003
8403,969,1002
8404,971,1002
8405,974,1004
8406,972,1004
8407,971,1001
8408,970,998
8409,969,1000
8410,970,1002
8411,973,1001
8412,970,1001
8413,971,1000
8414,968,998
8415,969,998
8416,970,1000
8417,971,1002
8418,970,999
8419,969,996
8420,966,994
8421,967,994
8422,969,995
8423,972,995
8424,969,997
8425,970,994
8426,967,992
8427,967,997
8428,969,998
8429,970,997
8430,970,997
8431,968,994
8432,967,995
8433,965,995
8434,966,998
8435,967,999
8436,969,999
8437,968,996
8438,968,997
8439,969,998
8440,968,1000
8441,970,1002
8442,966,1001
8443,967,1000
8444,965,1000
8445,963,1001
8446,965,1003
8447,967,1003
8448,968,1001
8449,968,997
8450,965,994
8451,968,994
8452,970,994
8453,975,993
8454,975,993
8455,974,988
8456,972,987
8457,974,987
8458,978,988
8459,979,987
8460,977,985
8461,976,983
8462,974,984
8463,972,989
8464,975,1001
8465,979,1033
8466,984,1105
8467,985,1175
8468,994,1178
8469,1011,1129
8470,1058,1088
8471,1130,1072
8472,1175,1065
8473,1143,1053
8474,1083,1040
8475,1043,1026
8476,1038,1008
8477,1045,983
8478,1051,950
8479,1048,917
8480,1047,878
8481,1047,840
8482,1049,807
8483,1054,778
8484,1058,749
8485,1056,726
8486,1055,699
8487,1050,673
8488,1053,642
8489,1055,606
8490,1059,571
8491,1058,547
8492,1053,524
8493,1049,508
8494,1046,491
8495,1042,475
8496,1038,461
8497,1029,449
8498,1017,438
8499,1007,429
8500,996,426
8501,982,425
8502,962,418
8503,946,414
8504,933,410
8505,935,411
8506,941,415
8507,947,420
8508,947,425
8509,948,434
8510,943,449
8511,936,471
8512,941,498
8513,940,525
8514,937,555
8515,934,589
8516,936,631
8517,940,670
8518,946,718
8519,954,767
8520,952,811
8521,950,855
8522,944,893
8523,939,937
8524,941,975
8525,941,1011
8526,942,1042
8527,941,1072
8528,942,1100
8529,941,1120
8530,945,1141
8531,948,1156
8532,948,1165
8533,949,1174
8534,948,1180
8535,948,1190
8536,953,1202
8537,952,1210
8538,952,1216
8539,953,1223
8540,953,1232
8541,954,1236
8542,955,1247
8543,957,1253
8544,959,1262
8545,957,1265
8546,959,1273
8547,956,1280
8548,959,1290
8549,962,1298
8550,963,1304
8551,964,1310
8552,961,1316
8553,959,1326
8554,965,1332
8555,966,1342
8556,966,1347
8557,965,1352
8558,961,1357
8559,965,1367
8560,969,1378
8561,969,1384
8562,969,1390
8563,968,1395
8564,968,1399
8565,971,1405
8566,971,1411
8567,972,1412
8568,975,1413
8569,975,1413
8570,976,1412
8571,976,1414
8572,980,1414
8573,982,1412
8574,983,1408
8575,986,1404
8576,984,1394
8577,984,1390
8578,986,1386
8579,986,1378
8580,987,1368
8581,987,1355
8582,987,1344
8583,986,1333
8584,990,1323
8585,992,1310
8586,991,1298
8587,990,1282
8588,987,1268
8589,989,1257
8590,990,1247
8591,988,1236
8592,989,1220
8593,987,1208
8594,987,1194
8595,985,1187
8596,986,1175
8597,988,1166
8598,985,1152
8599,980,1139
8600,981,1130
8601,979,1122
8602,980,1116
8603,980,1107
8604,979,1096
8605,975,1088
8606,976,1080
8607,973,1074
8608,973,1069
8609,975,1064
8610,972,1058
8611,971,1050
8612,968,1046
8613,966,1042
8614,969,1042
8615,970,1037
8616,968,1036
8617,967,1030
8618,963,1026
8619,965,1027
8620,965,1025
8621,967,1023
8622,966,1023
8623,963,1017
8624,962,1017
8625,960,1016
8626,960,1017
8627,963,1017
8628,963,1017
8629,961,1015
8630,961,1014
8631,961,1015
8632,961,1017
8633,964,1016
8634,963,1013
8635,961,1013
8636,961,1013
8637,960,1015
8638,963,1015
8639,962,1016
8640,965,1016
8641,963,1016
8642,962,1013
8643,962,1015
8644,963,1016
8645,966,1019
8646,964,1021
8647,964,1018
8648,965,1016
8649,962,1018
8650,964,1021
8651,968,1021
8652,965,1023
8653,965,1019
8654,963,1020
8655,962,1019
8656,965,1022
8657,967,1023
8658,966,1024
8659,964,1022
8660,959,1019
8661,960,1020
8662,962,1022
8663,963,1019
8664,961,1022
8665,962,1019
8666,959,1016
8667,959,1016
8668,962,1019
8669,964,1019
8670,962,1019
8671,961,1016
8672,957,1013
8673,957,1013
8674,960,1015
8675,961,1014
8676,961,1013
8677,960,1011
8678,959,1009
8679,955,1010
8680,957,1009
8681,958,1009
8682,958,1007
8683,958,1003
8684,955,1002
8685,953,1003
8686,955,1006
8687,957,1004
8688,956,1001
8689,954,1001
8690,951,998
8691,953,999
8692,954,1001
8693,953,1000
8694,954,998
8695,954,995
8696,951,993
8697,952,994
8698,955,996
8699,954,996
8700,954,993
8701,952,991
8702,949,991
8703,948,992
8704,953,993
8705,955,995
8706,952,993
8707,952,990
8708,951,988
8709,949,988
8710,953,993
8711,953,990
8712,955,989
8713,952,987
8714,951,985
8715,951,986
8716,952,988
8717,954,986
8718,952,987
8719,952,987
8720,949,983
8721,947,985
8722,949,989
8723,951,987
8724,950,987
8725,948,986
8726,948,985
8727,949,986
8728,951,986
8729,954,985
8730,951,986
8731,952,983
8732,950,983
8733,949,982
8734,951,985
8735,952,984
8736,953,985
8737,949,980
8738,949,980
8739,949,983
8740,953,986
8741,954,985
8742,953,985
8743,951,981
8744,950,981
8745,951,984
8746,952,985
8747,955,985
8748,955,986
8749,954,980
8750,952,981
8751,951,985
8752,953,988
8753,957,991
8754,958,991
8755,958,1000
8756,960,1029
8757,965,1103
8758,974,1174
8759,986,1167
8760,1010,1116
8761,1070,1080
8762,1145,1065
8763,1164,1058
8764,1118,1049
8765,1060,1038
8766,1029,1020
8767,1029,993
8768,1032,962
8769,1032,929
8770,1031,895
8771,1033,854
8772,1034,812
8773,1038,773
8774,1039,741
8775,1040,716
8776,1037,690
8777,1037,657
8778,1035,617
8779,1035,570
8780,1035,529
8781,1034,500
8782,1029,481
8783,1023,462
8784,1012,443
8785,1000,425
8786,986,415
8787,969,410
8788,957,406
8789,946,403
8790,929,401
8791,909,401
8792,897,397
8793,893,400
8794,905,403
8795,915,407
8796,923,414
8797,930,420
8798,931,437
