'sample #','V5','V2'
0,994,1064
1,994,1064
2,994,1064
3,994,1064
4,994,1064
5,994,1064
6,994,1064
7,994,1064
8,995,1064
9,997,1067
10,1002,1071
11,1008,1072
12,1016,1072
13,1024,1073
14,1049,1077
15,1121,1091
16,1209,1116
17,1221,1179
18,1149,1230
19,1074,1211
20,1043,1157
21,1044,1121
22,1048,1113
23,1046,1109
24,1040,1103
25,1034,1095
26,1032,1091
27,1031,1090
28,1033,1091
29,1036,1084
30,1036,1085
31,1033,1076
32,1027,1071
33,1026,1066
34,1024,1063
35,1024,1057
36,1020,1057
37,1017,1051
38,1011,1047
39,1009,1046
40,1002,1046
41,995,1045
42,988,1041
43,979,1037
44,970,1031
45,962,1032
46,948,1030
47,933,1028
48,922,1023
49,911,1020
50,900,1016
51,891,1018
52,883,1017
53,874,1015
54,866,1010
55,858,1003
56,852,994
57,848,988
58,847,980
59,844,973
60,844,964
61,845,958
62,847,955
63,850,950
64,853,947
65,855,943
66,859,937
67,860,929
68,864,928
69,870,924
70,880,922
71,893,917
72,902,911
73,908,908
74,914,911
75,926,918
76,935,927
77,948,935
78,955,944
79,962,952
80,964,963
81,970,975
82,977,988
83,979,999
84,981,1007
85,980,1013
86,979,1021
87,980,1028
88,982,1035
89,984,1041
90,988,1043
91,986,1043
92,983,1043
93,983,1046
94,982,1053
95,983,1055
96,984,1059
97,984,1061
98,986,1067
99,989,1073
100,991,1079
101,998,1083
102,995,1086
103,999,1087
104,998,1088
105,1001,1091
106,1005,1094
107,1007,1093
108,1008,1092
109,1008,1091
110,1007,1090
111,1009,1093
112,1011,1097
113,1014,1096
114,1015,1097
115,1014,1094
116,1014,1094
117,1015,1096
118,1017,1098
119,1021,1101
120,1020,1100
121,1017,1099
122,1019,1097
123,1018,1098
124,1022,1102
125,1022,1102
126,1025,1103
127,1023,1103
128,1023,1101
129,1023,1104
130,1026,1107
131,1028,1107
132,1029,1108
133,1028,1106
134,1027,1106
135,1028,1110
136,1031,1111
137,1034,1112
138,1032,1112
139,1033,1112
140,1032,1110
141,1031,1113
142,1035,1117
143,1037,1118
144,1036,1117
145,1035,1117
146,1035,1117
147,1037,1118
148,1040,1122
149,1038,1123
150,1042,1124
151,1040,1121
152,1038,1122
153,1039,1125
154,1041,1128
155,1044,1128
156,1043,1128
157,1042,1128
158,1040,1127
159,1040,1130
160,1043,1131
161,1043,1134
162,1042,1133
163,1042,1131
164,1042,1131
165,1042,1132
166,1039,1133
167,1041,1136
168,1045,1131
169,1040,1132
170,1037,1128
171,1037,1129
172,1038,1129
173,1039,1131
174,1037,1128
175,1035,1126
176,1031,1124
177,1031,1125
178,1031,1127
179,1031,1123
180,1029,1121
181,1026,1117
182,1024,1115
183,1020,1117
184,1022,1117
185,1021,1118
186,1020,1114
187,1014,1112
188,1012,1110
189,1012,1109
190,1011,1109
191,1011,1108
192,1008,1104
193,1005,1100
194,1004,1098
195,1005,1099
196,1004,1100
197,1006,1099
198,1004,1097
199,1002,1093
200,997,1092
201,997,1090
202,999,1091
203,1000,1090
204,1001,1090
205,997,1086
206,994,1084
207,995,1083
208,995,1084
209,997,1085
210,997,1083
211,995,1082
212,993,1080
213,994,1081
214,996,1083
215,996,1082
216,995,1080
217,994,1080
218,994,1078
219,990,1082
220,993,1079
221,995,1081
222,997,1077
223,994,1079
224,992,1077
225,993,1079
226,992,1082
227,997,1079
228,995,1077
229,994,1076
230,991,1076
231,993,1076
232,996,1079
233,997,1078
234,993,1075
235,994,1076
236,991,1075
237,991,1074
238,992,1077
239,994,1078
240,994,1077
241,994,1073
242,994,1074
243,989,1075
244,991,1077
245,993,1077
246,992,1077
247,990,1077
248,989,1075
249,987,1075
250,992,1079
251,992,1077
252,991,1076
253,988,1074
254,986,1074
255,985,1075
256,988,1077
257,988,1076
258,987,1074
259,985,1073
260,982,1070
261,983,1073
262,984,1076
263,984,1073
264,983,1072
265,980,1069
266,976,1070
267,978,1071
268,980,1072
269,981,1072
270,979,1072
271,979,1070
272,975,1068
273,977,1070
274,978,1070
275,981,1069
276,981,1071
277,977,1065
278,975,1066
279,977,1068
280,978,1069
281,979,1069
282,977,1070
283,974,1066
284,972,1065
285,974,1067
286,975,1067
287,978,1071
288,975,1066
289,974,1065
290,974,1063
291,973,1067
292,974,1068
293,975,1068
294,972,1064
295,974,1064
296,968,1065
297,972,1066
298,973,1067
299,973,1068
300,973,1068
301,974,1067
302,970,1063
303,972,1067
304,973,1069
305,976,1069
306,977,1068
307,978,1067
308,982,1067
309,983,1070
310,997,1073
311,1016,1079
312,1065,1087
313,1150,1107
314,1193,1163
315,1150,1224
316,1076,1220
317,1036,1166
318,1033,1123
319,1034,1108
320,1030,1107
321,1025,1106
322,1022,1100
323,1016,1098
324,1017,1097
325,1016,1092
326,1014,1088
327,1015,1088
328,1012,1086
329,1013,1080
330,1010,1075
331,1006,1066
332,1001,1064
333,1000,1061
334,998,1062
335,997,1056
336,990,1053
337,980,1048
338,971,1045
339,964,1042
340,958,1040
341,954,1033
342,944,1030
343,931,1024
344,911,1021
345,898,1019
346,890,1015
347,882,1016
348,874,1013
349,862,1007
350,850,1002
351,843,998
352,840,994
353,839,985
354,838,972
355,837,965
356,835,957
357,837,956
358,841,953
359,843,945
360,845,936
361,843,930
362,842,922
363,848,919
364,851,915
365,856,908
366,864,899
367,874,894
368,883,890
369,892,897
370,902,904
371,911,910
372,920,917
373,928,923
374,933,935
375,943,948
376,947,958
377,954,970
378,958,979
379,959,988
380,959,994
381,960,1004
382,965,1011
383,967,1016
384,969,1023
385,971,1022
386,972,1025
387,973,1030
388,972,1035
389,970,1040
390,972,1041
391,971,1042
392,971,1048
393,971,1053
394,975,1060
395,978,1066
396,984,1068
397,984,1070
398,984,1074
399,987,1080
400,989,1085
401,993,1085
402,992,1085
403,995,1087
404,994,1084
405,995,1086
406,997,1088
407,998,1089
408,999,1091
409,999,1089
410,997,1088
411,999,1089
412,1000,1093
413,1003,1093
414,1003,1093
415,1002,1091
416,1001,1091
417,1002,1095
418,1005,1099
419,1006,1098
420,1006,1099
421,1006,1097
422,1005,1098
423,1004,1098
424,1007,1100
425,1011,1102
426,1010,1101
427,1005,1100
428,1008,1101
429,1007,1103
430,1008,1106
431,1012,1105
432,1014,1105
433,1010,1104
434,1010,1105
435,1010,1108
436,1012,1110
437,1015,1112
438,1013,1111
439,1013,1111
440,1013,1111
441,1014,1116
442,1015,1117
443,1019,1118
444,1018,1119
445,1018,1117
446,1014,1119
447,1016,1121
448,1018,1124
449,1023,1125
450,1024,1125
451,1023,1124
452,1020,1124
453,1021,1127
454,1024,1129
455,1026,1129
456,1025,1129
457,1026,1129
458,1024,1128
459,1023,1131
460,1027,1132
461,1027,1134
462,1027,1133
463,1025,1132
464,1024,1131
465,1023,1132
466,1023,1132
467,1025,1132
468,1024,1130
469,1021,1128
470,1018,1126
471,1017,1127
472,1017,1128
473,1017,1125
474,1016,1124
475,1012,1120
476,1008,1118
477,1008,1118
478,1008,1118
479,1009,1116
480,1006,1115
481,1004,1111
482,1000,1109
483,1000,1107
484,1001,1107
485,1001,1106
486,999,1102
487,995,1099
488,992,1095
489,992,1097
490,994,1098
491,992,1095
492,993,1095
493,990,1091
494,989,1087
495,989,1087
496,988,1091
497,989,1090
498,989,1087
499,987,1083
500,984,1082
501,982,1084
502,986,1085
503,986,1085
504,986,1083
505,985,1080
506,981,1076
507,981,1080
508,984,1079
509,985,1079
510,983,1080
511,980,1074
512,977,1072
513,980,1077
514,981,1078
515,983,1078
516,982,1074
517,979,1072
518,977,1069
519,976,1076
520,978,1076
521,979,1078
522,978,1076
523,975,1072
524,977,1072
525,975,1073
526,977,1073
527,977,1075
528,978,1074
529,976,1071
530,972,1072
531,972,1073
532,972,1074
533,974,1074
534,971,1075
535,970,1071
536,968,1072
537,971,1071
538,972,1074
539,973,1073
540,971,1072
541,969,1070
542,967,1068
543,967,1070
544,969,1072
545,971,1070
546,970,1070
547,969,1070
548,966,1066
549,967,1070
550,966,1070
551,969,1071
552,970,1069
553,967,1064
554,962,1064
555,963,1066
556,962,1070
557,965,1066
558,965,1068
559,965,1065
560,962,1063
561,963,1063
562,964,1065
563,965,1065
564,964,1062
565,961,1062
566,960,1062
567,962,1061
568,963,1064
569,963,1062
570,961,1063
571,960,1061
572,957,1059
573,959,1061
574,961,1063
575,961,1063
576,963,1063
577,961,1061
578,960,1059
579,960,1060
580,962,1063
581,962,1062
582,959,1062
583,961,1059
584,960,1057
585,960,1061
586,958,1061
587,962,1060
588,963,1060
589,960,1058
590,959,1059
591,960,1058
592,962,1059
593,963,1060
594,961,1059
595,959,1056
596,958,1055
597,960,1059
598,962,1060
599,963,1059
600,965,1059
601,965,1058
602,963,1058
603,964,1059
604,969,1060
605,970,1061
606,970,1061
607,972,1061
608,976,1063
609,991,1064
610,1023,1072
611,1088,1080
612,1178,1107
613,1205,1165
614,1137,1217
615,1056,1205
616,1021,1153
617,1023,1113
618,1027,1102
619,1019,1097
620,1009,1093
621,1007,1090
622,1007,1087
623,1008,1085
624,1007,1082
625,1008,1075
626,1005,1071
627,1003,1066
628,1002,1060
629,998,1056
630,995,1048
631,987,1042
632,985,1039
633,982,1037
634,977,1036
635,971,1030
636,963,1026
637,952,1021
638,942,1016
639,932,1014
640,922,1011
641,905,1005
642,885,1002
643,871,999
644,858,995
645,851,993
646,840,994
647,831,990
648,825,985
649,821,977
650,815,966
651,814,959
652,817,951
653,819,945
654,815,944
655,815,934
656,816,928
657,820,921
658,823,915
659,830,908
660,838,905
661,842,896
662,850,890
663,863,888
664,877,890
665,887,896
666,898,903
667,907,913
668,915,923
669,925,938
670,932,952
671,939,965
672,944,977
673,947,987
674,947,997
675,949,1007
676,955,1015
677,957,1024
678,961,1027
679,962,1030
680,959,1033
681,962,1039
682,965,1042
683,967,1046
684,966,1045
685,967,1048
686,968,1055
687,970,1062
688,979,1068
689,987,1071
690,988,1076
691,989,1078
692,989,1081
693,990,1084
694,997,1087
695,1002,1085
696,1006,1088
697,1008,1085
698,1007,1086
699,1012,1089
700,1011,1095
701,1010,1094
702,1008,1093
703,1005,1090
704,1003,1088
705,1004,1091
706,1003,1094
707,1006,1095
708,1006,1095
709,1005,1093
710,1004,1092
711,1004,1093
712,1008,1098
713,1010,1098
714,1009,1099
715,1006,1099
716,1004,1097
717,1005,1098
718,1007,1101
719,1012,1103
720,1014,1103
721,1012,1103
722,1013,1103
723,1016,1104
724,1018,1109
725,1020,1109
726,1021,1110
727,1016,1110
728,1014,1109
729,1015,1112
730,1018,1116
731,1023,1119
732,1023,1118
733,1019,1115
734,1018,1118
735,1023,1121
736,1024,1124
737,1024,1125
738,1027,1124
739,1026,1123
740,1023,1127
741,1028,1127
742,1030,1133
743,1030,1134
744,1036,1131
745,1037,1130
746,1030,1130
747,1033,1133
748,1035,1134
749,1034,1135
750,1034,1134
751,1033,1130
752,1029,1130
753,1030,1132
754,1031,1132
755,1031,1133
756,1030,1132
757,1026,1128
758,1024,1125
759,1021,1125
760,1025,1129
761,1023,1125
762,1020,1120
763,1018,1118
764,1013,1116
765,1014,1116
766,1011,1116
767,1010,1111
768,1005,1112
769,1002,1106
770,999,1104
771,1000,1103
772,998,1104
773,1002,1103
774,1001,1098
775,999,1094
776,993,1094
777,992,1092
778,990,1092
779,989,1090
780,988,1089
781,986,1084
782,984,1083
783,983,1083
784,985,1083
785,986,1081
786,986,1077
787,984,1076
788,984,1077
789,983,1075
790,983,1076
791,986,1075
792,984,1073
793,985,1069
794,982,1067
795,979,1068
796,979,1071
797,980,1068
798,979,1066
799,971,1064
800,970,1062
801,973,1064
802,976,1067
803,977,1068
804,975,1065
805,974,1063
806,971,1063
807,972,1063
808,969,1064
809,971,1065
810,973,1062
811,973,1060
812,969,1059
813,973,1063
814,973,1064
815,972,1063
816,972,1063
817,970,1062
818,970,1061
819,970,1061
820,972,1064
821,971,1063
822,969,1063
823,968,1060
824,964,1059
825,966,1060
826,966,1062
827,967,1062
828,967,1061
829,964,1061
830,960,1058
831,965,1059
832,966,1063
833,966,1062
834,964,1059
835,961,1057
836,960,1056
837,961,1057
838,962,1059
839,963,1059
840,963,1058
841,960,1056
842,960,1053
843,960,1053
844,963,1056
845,964,1057
846,963,1057
847,961,1053
848,960,1051
849,959,1055
850,957,1056
851,958,1053
852,958,1053
853,960,1050
854,958,1050
855,958,1052
856,961,1052
857,959,1051
858,959,1051
859,958,1047
860,957,1047
861,959,1050
862,961,1051
863,962,1051
864,961,1051
865,959,1048
866,955,1048
867,954,1048
868,956,1051
869,958,1049
870,959,1051
871,959,1046
872,958,1045
873,956,1048
874,957,1051
875,959,1050
876,959,1050
877,959,1048
878,957,1047
879,956,1049
880,958,1049
881,960,1048
882,962,1048
883,960,1046
884,957,1047
885,958,1047
886,960,1047
887,961,1049
888,966,1050
889,962,1048
890,961,1048
891,964,1049
892,968,1051
893,970,1051
894,973,1049
895,979,1050
896,991,1054
897,1028,1058
898,1113,1070
899,1184,1118
900,1156,1187
901,1073,1191
902,1020,1136
903,1013,1095
904,1021,1088
905,1024,1088
906,1018,1083
907,1014,1076
908,1008,1071
909,1008,1072
910,1010,1072
911,1014,1068
912,1011,1061
913,1010,1055
914,1005,1045
915,1005,1040
916,1003,1039
917,1003,1035
918,1004,1030
919,996,1025
920,989,1021
921,982,1019
922,975,1018
923,968,1012
924,959,1006
925,947,1000
926,929,997
927,911,995
928,894,995
929,884,992
930,874,990
931,859,984
932,845,982
933,835,978
934,830,974
935,826,963
936,825,954
937,822,943
938,817,938
939,818,936
940,816,933
941,823,927
942,822,918
943,826,912
944,827,906
945,834,901
946,845,897
947,858,890
948,873,888
949,879,890
950,887,896
951,897,906
952,912,916
953,921,928
954,933,938
955,936,949
956,941,961
957,946,975
958,951,987
959,955,994
960,956,1002
961,959,1008
962,958,1011
963,964,1018
964,963,1025
965,965,1028
966,966,1030
967,963,1030
968,961,1031
969,962,1039
970,964,1044
971,966,1048
972,970,1050
973,973,1054
974,974,1059
975,980,1063
976,981,1070
977,984,1072
978,986,1073
979,989,1071
980,985,1071
981,990,1072
982,991,1075
983,992,1078
984,994,1076
985,991,1073
986,991,1075
987,994,1075
988,995,1081
989,997,1080
990,996,1079
991,997,1078
992,994,1079
993,997,1081
994,1002,1084
995,1002,1083
996,1003,1084
997,1002,1080
998,999,1081
999,1003,1088
1000,1004,1088
1001,1005,1088
1002,1004,1088
1003,1002,1087
1004,1003,1089
1005,1004,1091
1006,1007,1093
1007,1010,1093
1008,1008,1092
1009,1007,1094
1010,1008,1097
1011,1010,1102
1012,1014,1102
1013,1015,1104
1014,1012,1103
1015,1012,1103
1016,1010,1107
1017,1014,1111
1018,1017,1111
1019,1017,1113
1020,1016,1111
1021,1013,1112
1022,1017,1116
1023,1018,1119
1024,1021,1119
1025,1023,1118
1026,1023,1116
1027,1023,1115
1028,1025,1117
1029,1027,1120
1030,1029,1119
1031,1032,1121
1032,1029,1118
1033,1029,1118
1034,1032,1120
1035,1034,1121
1036,1037,1121
1037,1038,1121
1038,1038,1120
1039,1037,1119
1040,1038,1121
1041,1041,1121
1042,1044,1122
1043,1046,1121
1044,1044,1118
1045,1040,1120
1046,1041,1119
1047,1039,1120
1048,1036,1118
1049,1031,1113
1050,1027,1110
1051,1024,1109
1052,1022,1107
1053,1023,1109
1054,1020,1106
1055,1018,1103
1056,1014,1099
1057,1008,1098
1058,1007,1095
1059,1008,1094
1060,1011,1095
1061,1008,1090
1062,1005,1087
1063,1003,1085
1064,1001,1085
1065,1002,1087
1066,1002,1082
1067,1000,1081
1068,999,1079
1069,995,1074
1070,996,1075
1071,997,1076
1072,997,1075
1073,996,1071
1074,993,1072
1075,990,1066
1076,991,1068
1077,994,1069
1078,994,1068
1079,990,1065
1080,989,1063
1081,989,1061
1082,989,1062
1083,990,1065
1084,990,1061
1085,991,1061
1086,991,1058
1087,986,1056
1088,986,1059
1089,986,1061
1090,989,1060
1091,989,1056
1092,986,1055
1093,984,1055
1094,986,1055
1095,986,1057
1096,985,1059
1097,985,1059
1098,983,1055
1099,982,1053
1100,985,1055
1101,984,1058
1102,988,1055
1103,987,1055
1104,986,1053
1105,984,1054
1106,984,1055
1107,984,1055
1108,987,1054
1109,982,1052
1110,982,1051
1111,981,1050
1112,982,1052
1113,982,1053
1114,982,1054
1115,981,1052
1116,982,1049
1117,976,1051
1118,978,1053
1119,981,1055
1120,981,1056
1121,980,1053
1122,978,1052
1123,976,1049
1124,976,1052
1125,976,1052
1126,979,1052
1127,979,1051
1128,976,1049
1129,975,1047
1130,975,1051
1131,975,1052
1132,976,1048
1133,976,1048
1134,973,1047
1135,973,1048
1136,973,1049
1137,974,1048
1138,976,1046
1139,976,1046
1140,974,1044
1141,973,1043
1142,972,1045
1143,975,1047
1144,975,1048
1145,973,1046
1146,971,1043
1147,971,1042
1148,971,1045
1149,972,1047
1150,973,1047
1151,974,1046
1152,972,1044
1153,967,1043
1154,970,1046
1155,971,1045
1156,970,1046
1157,972,1045
1158,970,1043
1159,969,1042
1160,969,1043
1161,972,1044
1162,972,1044
1163,971,1044
1164,970,1041
1165,969,1042
1166,970,1041
1167,969,1045
1168,972,1046
1169,972,1044
1170,969,1042
1171,968,1043
1172,968,1044
1173,971,1044
1174,973,1047
1175,974,1044
1176,972,1043
1177,972,1043
1178,973,1043
1179,976,1048
1180,981,1047
1181,985,1046
1182,994,1047
1183,1016,1049
1184,1086,1055
1185,1182,1081
1186,1200,1150
1187,1120,1189
1188,1043,1149
1189,1019,1101
1190,1025,1082
1191,1029,1082
1192,1029,1082
1193,1024,1075
1194,1017,1070
1195,1014,1068
1196,1015,1066
1197,1015,1065
1198,1016,1058
1199,1014,1051
1200,1007,1043
1201,1005,1039
1202,1002,1036
1203,1000,1033
1204,998,1031
1205,992,1026
1206,981,1019
1207,970,1018
1208,961,1013
1209,955,1011
1210,944,1006
1211,929,1000
1212,910,996
1213,892,995
1214,880,995
1215,871,993
1216,860,991
1217,847,985
1218,835,974
1219,829,962
1220,827,952
1221,823,946
1222,826,936
1223,824,930
1224,823,921
1225,821,911
1226,823,905
1227,826,896
1228,832,888
1229,838,883
1230,845,873
1231,856,871
1232,869,873
1233,883,879
1234,894,886
1235,906,892
1236,914,901
1237,922,912
1238,929,926
1239,938,939
1240,945,951
1241,949,961
1242,950,969
1243,949,978
1244,951,987
1245,955,994
1246,960,999
1247,964,1004
1248,965,1007
1249,964,1008
1250,963,1015
1251,965,1020
1252,968,1023
1253,969,1026
1254,968,1029
1255,968,1033
1256,969,1041
1257,975,1048
1258,981,1053
1259,983,1056
1260,982,1059
1261,979,1059
1262,982,1062
1263,986,1067
1264,991,1065
1265,992,1064
1266,991,1064
1267,990,1068
1268,993,1068
1269,992,1068
1270,995,1069
1271,995,1069
1272,992,1069
1273,993,1068
1274,995,1069
1275,999,1073
1276,999,1073
1277,1000,1074
1278,1000,1073
1279,998,1073
1280,1001,1077
1281,1003,1077
1282,1003,1077
1283,1004,1076
1284,1003,1075
1285,1002,1077
1286,1002,1080
1287,1007,1082
1288,1009,1081
1289,1006,1081
1290,1010,1081
1291,1006,1080
1292,1010,1084
1293,1011,1087
1294,1014,1090
1295,1012,1088
1296,1013,1089
1297,1013,1091
1298,1014,1091
1299,1018,1096
1300,1018,1095
1301,1021,1096
1302,1022,1096
1303,1020,1097
1304,1021,1100
1305,1023,1104
1306,1025,1103
1307,1025,1103
1308,1025,1104
1309,1025,1105
1310,1026,1107
1311,1029,1111
1312,1033,1112
1313,1032,1111
1314,1031,1109
1315,1033,1112
1316,1031,1114
1317,1034,1117
1318,1033,1115
1319,1036,1115
1320,1035,1114
1321,1030,1113
1322,1032,1116
1323,1033,1118
1324,1036,1114
1325,1035,1115
1326,1030,1112
1327,1029,1111
1328,1029,1111
1329,1030,1113
1330,1029,1110
1331,1025,1108
1332,1024,1106
1333,1020,1105
1334,1021,1107
1335,1022,1107
1336,1020,1105
1337,1019,1101
1338,1014,1095
1339,1013,1096
1340,1012,1095
1341,1011,1096
1342,1010,1094
1343,1009,1089
1344,1007,1085
1345,1002,1082
1346,1002,1084
1347,1003,1084
1348,1003,1081
1349,1000,1079
1350,997,1073
1351,995,1072
1352,995,1073
1353,995,1074
1354,998,1071
1355,994,1068
1356,994,1064
1357,992,1064
1358,990,1065
1359,992,1068
1360,994,1066
1361,991,1064
1362,991,1063
1363,987,1061
1364,986,1062
1365,988,1065
1366,987,1067
1367,987,1063
1368,985,1062
1369,982,1060
1370,981,1065
1371,984,1063
1372,983,1062
1373,985,1059
1374,982,1058
1375,981,1056
1376,982,1057
1377,984,1056
1378,986,1055
1379,988,1052
1380,989,1053
1381,987,1050
1382,984,1050
1383,985,1052
1384,988,1053
1385,987,1050
1386,987,1050
1387,985,1050
1388,987,1053
1389,989,1055
1390,991,1053
1391,995,1052
1392,993,1050
1393,992,1049
1394,994,1052
1395,993,1054
1396,993,1055
1397,993,1052
1398,986,1049
1399,982,1045
1400,981,1048
1401,981,1049
1402,982,1047
1403,981,1045
1404,977,1044
1405,974,1042
1406,973,1042
1407,975,1043
1408,973,1042
1409,974,1042
1410,972,1039
1411,968,1039
1412,970,1039
1413,969,1040
1414,970,1039
1415,970,1038
1416,968,1034
1417,963,1035
1418,967,1037
1419,966,1037
1420,971,1039
1421,968,1034
1422,965,1034
1423,963,1033
1424,964,1036
1425,968,1036
1426,966,1035
1427,968,1035
1428,966,1033
1429,964,1032
1430,965,1033
1431,966,1034
1432,968,1033
1433,967,1033
1434,965,1032
1435,965,1032
1436,966,1034
1437,966,1034
1438,968,1035
1439,969,1035
1440,966,1031
1441,967,1032
1442,966,1033
1443,969,1037
1444,967,1035
1445,967,1034
1446,967,1033
1447,965,1031
1448,965,1031
1449,967,1034
1450,970,1035
1451,971,1035
1452,969,1031
1453,968,1033
1454,967,1034
1455,971,1036
1456,974,1036
1457,974,1035
1458,977,1034
1459,975,1033
1460,980,1038
1461,988,1042
1462,1002,1046
1463,1043,1049
1464,1135,1061
1465,1215,1122
1466,1198,1194
1467,1129,1194
1468,1097,1141
1469,1110,1111
1470,1130,1105
1471,1148,1107
1472,1168,1104
1473,1199,1104
1474,1236,1100
1475,1272,1100
1476,1299,1097
1477,1309,1089
1478,1301,1075
1479,1266,1053
1480,1219,1023
1481,1166,996
1482,1120,970
1483,1077,954
1484,1034,949
1485,995,954
1486,963,959
1487,945,967
1488,937,978
1489,934,988
1490,933,998
1491,936,1012
1492,937,1020
1493,940,1022
1494,939,1024
1495,937,1025
1496,940,1027
1497,940,1029
1498,943,1027
1499,942,1027
1500,938,1024
1501,938,1025
1502,938,1025
1503,939,1025
1504,939,1025
1505,938,1023
1506,934,1023
1507,931,1024
1508,932,1024
1509,934,1026
1510,936,1025
1511,935,1022
1512,933,1020
1513,928,1022
1514,931,1022
1515,932,1023
1516,932,1023
1517,932,1019
1518,928,1018
1519,924,1017
1520,924,1018
1521,926,1021
1522,923,1020
1523,925,1019
1524,924,1015
1525,919,1016
1526,923,1016
1527,922,1018
1528,922,1016
1529,918,1016
1530,917,1013
1531,914,1011
1532,915,1012
1533,917,1014
1534,915,1013
1535,916,1011
1536,914,1010
1537,910,1009
1538,911,1009
1539,914,1013
1540,915,1012
1541,913,1008
1542,908,1008
1543,908,1008
1544,906,1008
1545,909,1010
1546,909,1010
1547,910,1007
1548,907,1004
1549,904,1006
1550,908,1006
1551,907,1008
1552,908,1007
1553,906,1005
1554,906,1004
1555,904,1004
1556,907,1004
1557,910,1008
1558,911,1008
1559,911,1006
1560,910,1004
1561,907,1006
1562,911,1008
1563,912,1011
1564,915,1010
1565,916,1009
1566,913,1008
1567,915,1010
1568,917,1012
1569,922,1014
1570,925,1015
1571,925,1014
1572,926,1017
1573,926,1015
1574,931,1018
1575,933,1023
1576,936,1024
1577,935,1022
1578,937,1023
1579,939,1026
1580,945,1030
1581,946,1031
1582,949,1033
1583,952,1033
1584,955,1033
1585,955,1034
1586,958,1039
1587,962,1041
1588,964,1041
1589,966,1040
1590,965,1039
1591,964,1042
1592,968,1042
1593,970,1046
1594,971,1046
1595,971,1047
1596,971,1045
1597,972,1046
1598,971,1046
1599,972,1048
1600,973,1047
1601,973,1047
1602,974,1047
1603,972,1042
1604,973,1046
1605,972,1046
1606,974,1048
1607,973,1047
1608,973,1044
1609,971,1043
1610,973,1045
1611,975,1046
1612,974,1045
1613,973,1042
1614,970,1041
1615,970,1041
1616,970,1042
1617,971,1044
1618,972,1045
1619,972,1042
1620,969,1041
1621,967,1040
1622,965,1041
1623,967,1042
1624,971,1042
1625,970,1042
1626,969,1039
1627,964,1040
1628,968,1040
1629,968,1041
1630,969,1040
1631,967,1040
1632,964,1037
1633,964,1038
1634,963,1042
1635,963,1042
1636,965,1040
1637,967,1039
1638,963,1039
1639,962,1041
1640,962,1041
1641,963,1042
1642,965,1045
1643,965,1041
1644,962,1038
1645,960,1040
1646,961,1043
1647,963,1044
1648,964,1043
1649,964,1042
1650,963,1042
1651,960,1039
1652,962,1041
1653,962,1045
1654,966,1044
1655,967,1041
1656,963,1041
1657,963,1041
1658,962,1041
1659,964,1045
1660,965,1044
1661,966,1042
1662,963,1039
1663,963,1038
1664,964,1042
1665,967,1043
1666,966,1042
1667,966,1040
1668,965,1038
1669,962,1039
1670,964,1039
1671,964,1041
1672,968,1041
1673,970,1040
1674,966,1039
1675,966,1039
1676,965,1041
1677,967,1042
1678,970,1041
1679,966,1039
1680,964,1037
1681,966,1036
1682,966,1038
1683,968,1041
1684,969,1039
1685,969,1039
1686,968,1038
1687,966,1037
1688,967,1039
1689,969,1040
1690,970,1042
1691,969,1041
1692,967,1039
1693,965,1040
1694,966,1043
1695,965,1046
1696,966,1045
1697,968,1043
1698,966,1041
1699,962,1041
1700,964,1044
1701,966,1045
1702,968,1045
1703,968,1043
1704,966,1041
1705,965,1039
1706,968,1040
1707,971,1042
1708,972,1039
1709,973,1038
1710,974,1038
1711,970,1038
1712,971,1037
1713,974,1038
1714,974,1040
1715,975,1036
1716,975,1035
1717,973,1038
1718,974,1039
1719,979,1041
1720,982,1037
1721,984,1037
1722,983,1036
1723,980,1034
1724,982,1037
1725,984,1041
1726,984,1040
1727,981,1040
1728,975,1036
1729,975,1036
1730,974,1039
1731,974,1038
1732,975,1036
1733,978,1034
1734,974,1034
1735,972,1034
1736,971,1034
1737,970,1036
1738,974,1034
1739,974,1035
1740,975,1031
1741,975,1033
1742,980,1034
1743,986,1039
1744,995,1039
1745,1014,1039
1746,1058,1041
1747,1138,1055
1748,1206,1102
1749,1178,1169
1750,1097,1181
1751,1043,1134
1752,1029,1088
1753,1033,1073
1754,1033,1072
1755,1028,1071
1756,1027,1067
1757,1024,1058
1758,1022,1058
1759,1016,1055
1760,1018,1053
1761,1022,1054
1762,1023,1050
1763,1019,1043
1764,1018,1035
1765,1014,1029
1766,1013,1028
1767,1011,1029
1768,1012,1026
1769,1009,1023
1770,1006,1021
1771,998,1018
1772,995,1018
1773,989,1015
1774,980,1012
1775,972,1008
1776,965,1003
1777,952,1001
1778,938,1000
1779,922,1002
1780,911,999
1781,904,996
1782,901,991
1783,893,991
1784,889,989
1785,882,989
1786,880,984
1787,877,983
1788,877,979
1789,874,978
1790,882,980
1791,892,981
1792,905,983
1793,917,987
1794,933,990
1795,941,987
1796,954,989
1797,960,990
1798,963,984
1799,957,977
1800,952,964
1801,943,952
1802,937,947
1803,934,945
1804,932,947
1805,927,949
1806,926,956
1807,925,963
1808,930,975
1809,940,985
1810,945,995
1811,952,1003
1812,956,1011
1813,957,1022
1814,962,1030
1815,961,1035
1816,964,1037
1817,966,1039
1818,966,1039
1819,965,1039
1820,971,1041
1821,971,1043
1822,976,1043
1823,980,1041
1824,980,1040
1825,980,1038
1826,979,1041
1827,983,1043
1828,983,1042
1829,984,1041
1830,985,1042
1831,984,1039
1832,985,1043
1833,987,1045
1834,988,1045
1835,989,1042
1836,988,1041
1837,987,1042
1838,989,1043
1839,991,1046
1840,991,1045
1841,991,1041
1842,989,1041
1843,988,1040
1844,989,1044
1845,992,1045
1846,993,1046
1847,992,1043
1848,994,1042
1849,991,1042
1850,995,1046
1851,998,1048
1852,1000,1045
1853,999,1046
1854,997,1044
1855,995,1043
1856,997,1045
1857,1000,1051
1858,1004,1048
1859,1002,1048
1860,1002,1049
1861,1001,1046
1862,1003,1051
1863,1006,1052
1864,1008,1056
1865,1006,1051
1866,1005,1051
1867,1004,1052
1868,1006,1053
1869,1007,1057
1870,1008,1055
1871,1009,1054
1872,1008,1051
1873,1009,1053
1874,1008,1055
1875,1010,1059
1876,1014,1057
1877,1014,1057
1878,1012,1056
1879,1011,1058
1880,1014,1059
1881,1015,1063
1882,1021,1063
1883,1020,1060
1884,1018,1059
1885,1018,1060
1886,1019,1064
1887,1024,1067
1888,1024,1065
1889,1024,1065
1890,1022,1063
1891,1021,1063
1892,1021,1067
1893,1022,1070
1894,1026,1069
1895,1026,1066
1896,1026,1066
1897,1025,1067
1898,1025,1069
1899,1026,1068
1900,1025,1070
1901,1027,1070
1902,1023,1067
1903,1022,1066
1904,1022,1069
1905,1023,1068
1906,1021,1068
1907,1021,1068
1908,1019,1064
1909,1015,1065
1910,1016,1067
1911,1016,1069
1912,1014,1067
1913,1013,1064
1914,1012,1062
1915,1006,1064
1916,1005,1065
1917,1007,1067
1918,1008,1064
1919,1007,1061
1920,1004,1061
1921,1001,1059
1922,1002,1061
1923,1001,1062
1924,1002,1060
1925,1001,1058
1926,998,1055
1927,997,1055
1928,995,1056
1929,996,1057
1930,995,1058
1931,994,1055
1932,990,1052
1933,987,1050
1934,987,1051
1935,988,1051
1936,988,1051
1937,987,1050
1938,987,1048
1939,983,1048
1940,984,1050
1941,984,1051
1942,986,1049
1943,986,1047
1944,983,1046
1945,978,1045
1946,980,1049
1947,984,1050
1948,982,1047
1949,981,1047
1950,979,1044
1951,976,1045
1952,979,1046
1953,980,1048
1954,981,1048
1955,979,1043
1956,980,1044
1957,977,1044
1958,980,1043
1959,983,1046
1960,984,1045
1961,979,1042
1962,977,1042
1963,975,1040
1964,974,1042
1965,977,1045
1966,980,1043
1967,982,1043
1968,980,1042
1969,978,1040
1970,975,1043
1971,976,1046
1972,976,1045
1973,975,1042
1974,974,1040
1975,972,1039
1976,973,1043
1977,973,1043
1978,975,1040
1979,975,1041
1980,974,1041
1981,974,1040
1982,976,1042
1983,978,1045
1984,980,1042
1985,978,1041
1986,976,1040
1987,973,1040
1988,973,1042
1989,976,1045
1990,976,1044
1991,977,1043
1992,974,1040
1993,971,1043
1994,973,1041
1995,972,1042
1996,975,1041
1997,974,1040
1998,972,1038
1999,970,1041
2000,972,1041
2001,974,1041
2002,974,1043
2003,972,1041
2004,972,1038
2005,973,1039
2006,974,1039
2007,974,1041
2008,976,1043
2009,975,1041
2010,973,1037
2011,972,1036
2012,972,1038
2013,973,1040
2014,972,1038
2015,972,1037
2016,969,1035
2017,969,1036
2018,970,1039
2019,973,1038
2020,971,1037
2021,972,1037
2022,969,1035
2023,963,1036
2024,966,1036
2025,967,1035
2026,969,1035
2027,969,1034
2028,968,1032
2029,966,1034
2030,967,1033
2031,968,1036
2032,969,1034
2033,971,1031
2034,967,1031
2035,964,1031
2036,968,1033
2037,968,1036
2038,969,1033
2039,969,1032
2040,967,1031
2041,966,1032
2042,967,1033
2043,970,1035
2044,972,1035
2045,969,1033
2046,968,1034
2047,965,1032
2048,965,1035
2049,967,1036
2050,969,1035
2051,967,1033
2052,971,1037
2053,970,1038
2054,975,1040
2055,980,1045
2056,988,1046
2057,1003,1047
2058,1038,1048
2059,1120,1060
2060,1201,1112
2061,1178,1182
2062,1094,1191
2063,1034,1138
2064,1019,1091
2065,1024,1076
2066,1027,1075
2067,1024,1071
2068,1019,1066
2069,1018,1059
2070,1016,1056
2071,1012,1052
2072,1013,1053
2073,1015,1046
2074,1012,1042
2075,1009,1031
2076,1008,1023
2077,1008,1018
2078,1010,1018
2079,1012,1015
2080,1014,1009
2081,1006,1003
2082,996,996
2083,982,997
2084,971,992
2085,960,991
2086,947,984
2087,927,977
2088,904,975
2089,885,970
2090,873,972
2091,867,972
2092,854,968
2093,841,962
2094,826,956
2095,814,948
2096,809,943
2097,811,937
2098,810,927
2099,809,922
2100,803,917
2101,804,914
2102,810,908
2103,815,905
2104,820,899
2105,824,894
2106,826,889
2107,830,884
2108,838,881
2109,850,877
2110,861,871
2111,870,871
2112,874,874
2113,881,880
2114,892,889
2115,903,894
2116,915,907
2117,925,913
2118,929,921
2119,932,932
2120,939,947
2121,943,962
2122,948,970
2123,949,979
2124,949,984
2125,953,989
2126,957,998
2127,962,1005
2128,963,1008
2129,966,1010
2130,961,1011
2131,957,1015
2132,957,1018
2133,959,1023
2134,959,1026
2135,959,1029
2136,961,1030
2137,965,1035
2138,971,1041
2139,974,1047
2140,979,1048
2141,978,1050
2142,978,1050
2143,979,1052
2144,982,1056
2145,987,1058
2146,990,1056
2147,989,1055
2148,989,1054
2149,991,1054
2150,993,1057
2151,996,1060
2152,995,1058
2153,996,1060
2154,996,1059
2155,995,1060
2156,998,1062
2157,1002,1064
2158,1005,1062
2159,1002,1064
2160,1003,1062
2161,1001,1062
2162,1003,1066
2163,1005,1067
2164,1007,1068
2165,1006,1067
2166,1008,1066
2167,1006,1067
2168,1007,1069
2169,1009,1072
2170,1011,1072
2171,1012,1071
2172,1008,1072
2173,1009,1073
2174,1009,1073
2175,1011,1078
2176,1012,1077
2177,1012,1075
2178,1014,1077
2179,1010,1077
2180,1010,1079
2181,1013,1083
2182,1014,1081
2183,1014,1081
2184,1016,1080
2185,1015,1081
2186,1017,1083
2187,1020,1086
2188,1020,1086
2189,1019,1087
2190,1020,1085
2191,1019,1085
2192,1021,1085
2193,1021,1091
2194,1022,1091
2195,1023,1090
2196,1022,1090
2197,1020,1089
2198,1019,1093
2199,1023,1097
2200,1024,1095
2201,1026,1095
2202,1023,1094
2203,1021,1095
2204,1024,1097
2205,1024,1096
2206,1025,1097
2207,1023,1095
2208,1024,1094
2209,1022,1092
2210,1022,1093
2211,1024,1096
2212,1023,1095
2213,1022,1092
2214,1019,1091
2215,1019,1090
2216,1021,1094
2217,1020,1091
2218,1021,1089
2219,1017,1085
2220,1014,1084
2221,1013,1084
2222,1011,1086
2223,1010,1086
2224,1009,1082
2225,1009,1081
2226,1006,1079
2227,999,1076
2228,1003,1077
2229,1001,1075
2230,999,1075
2231,999,1070
2232,997,1068
2233,993,1065
2234,993,1067
2235,994,1067
2236,994,1063
2237,990,1061
2238,990,1059
2239,988,1056
2240,988,1059
2241,988,1058
2242,991,1058
2243,988,1057
2244,984,1051
2245,983,1052
2246,985,1052
2247,987,1055
2248,988,1051
2249,984,1048
2250,982,1046
2251,982,1045
2252,981,1049
2253,983,1048
2254,985,1046
2255,982,1044
2256,982,1043
2257,980,1045
2258,980,1043
2259,982,1046
2260,983,1042
2261,981,1043
2262,983,1041
2263,979,1041
2264,981,1042
2265,983,1045
2266,984,1043
2267,983,1040
2268,982,1041
2269,981,1039
2270,980,1041
2271,984,1042
2272,984,1043
2273,982,1038
2274,981,1038
2275,979,1039
2276,980,1039
2277,983,1037
2278,982,1040
2279,983,1039
2280,981,1035
2281,979,1038
2282,980,1039
2283,980,1041
2284,980,1041
2285,978,1039
2286,978,1037
2287,975,1037
2288,978,1040
2289,979,1042
2290,980,1039
2291,979,1040
2292,978,1038
2293,973,1034
2294,975,1037
2295,976,1039
2296,976,1038
2297,976,1037
2298,974,1033
2299,972,1035
2300,972,1037
2301,973,1040
2302,974,1036
2303,973,1035
2304,973,1035
2305,970,1034
2306,969,1037
2307,971,1040
2308,973,1036
2309,973,1034
2310,968,1034
2311,963,1032
2312,968,1036
2313,970,1035
2314,968,1034
2315,968,1033
2316,967,1033
2317,966,1032
2318,967,1033
2319,969,1034
2320,968,1035
2321,968,1033
2322,967,1031
2323,965,1030
2324,964,1033
2325,968,1033
2326,966,1034
2327,966,1031
2328,966,1029
2329,961,1030
2330,964,1030
2331,966,1031
2332,966,1030
2333,966,1032
2334,964,1029
2335,961,1029
2336,964,1031
2337,966,1032
2338,965,1030
2339,968,1031
2340,966,1029
2341,963,1028
2342,963,1032
2343,964,1034
2344,967,1033
2345,966,1032
2346,965,1031
2347,962,1028
2348,965,1031
2349,967,1035
2350,967,1032
2351,969,1033
2352,968,1031
2353,968,1032
2354,976,1034
2355,986,1039
2356,1004,1041
2357,1061,1047
2358,1154,1083
2359,1189,1156
2360,1126,1194
2361,1051,1152
2362,1020,1095
2363,1021,1070
2364,1027,1067
2365,1021,1065
2366,1017,1063
2367,1016,1062
2368,1016,1057
2369,1016,1055
2370,1016,1050
2371,1013,1042
2372,1013,1036
2373,1011,1031
2374,1013,1026
2375,1009,1023
2376,1005,1017
2377,998,1016
2378,991,1014
2379,985,1015
2380,977,1009
2381,968,1003
2382,958,998
2383,944,993
2384,929,992
2385,910,995
2386,898,992
2387,887,988
2388,877,984
2389,861,981
2390,849,981
2391,839,977
2392,832,968
2393,828,959
2394,820,947
2395,817,939
2396,816,939
2397,814,933
2398,816,927
2399,817,917
2400,816,908
2401,816,900
2402,821,895
2403,829,892
2404,838,884
2405,846,877
2406,857,870
2407,868,870
2408,880,877
2409,894,884
2410,905,891
2411,916,898
2412,923,907
2413,933,918
2414,940,934
2415,948,948
2416,955,958
2417,957,969
2418,959,972
2419,961,978
2420,966,986
2421,973,995
2422,976,1001
2423,979,1003
2424,977,1004
2425,977,1008
2426,975,1013
2427,976,1018
2428,973,1017
2429,970,1017
2430,970,1021
2431,969,1025
2432,972,1029
2433,975,1036
2434,978,1040
2435,980,1044
2436,981,1042
2437,980,1048
2438,984,1052
2439,985,1054
2440,987,1056
2441,988,1052
2442,988,1050
2443,988,1053
2444,989,1054
2445,991,1055
2446,992,1055
2447,993,1055
2448,994,1054
2449,992,1055
2450,993,1057
2451,995,1059
2452,998,1059
2453,996,1058
2454,996,1059
2455,994,1063
2456,995,1060
2457,998,1065
2458,999,1065
2459,999,1061
2460,999,1063
2461,997,1065
2462,998,1066
2463,1002,1069
2464,1004,1068
2465,1001,1067
2466,1000,1068
2467,1000,1069
2468,1002,1069
2469,1007,1073
2470,1005,1073
2471,1005,1072
2472,1006,1073
2473,1005,1074
2474,1009,1077
2475,1009,1081
2476,1010,1082
2477,1013,1079
2478,1009,1078
2479,1009,1081
2480,1012,1083
2481,1013,1087
2482,1013,1086
2483,1014,1084
2484,1012,1084
2485,1011,1087
2486,1013,1088
2487,1016,1091
2488,1017,1091
2489,1016,1093
2490,1017,1091
2491,1018,1091
2492,1020,1093
2493,1023,1097
2494,1021,1098
2495,1024,1096
2496,1023,1094
2497,1022,1098
2498,1025,1096
2499,1023,1101
2500,1024,1102
2501,1027,1099
2502,1025,1098
2503,1024,1098
2504,1023,1098
2505,1025,1102
2506,1026,1100
2507,1024,1098
2508,1021,1097
2509,1020,1096
2510,1019,1096
2511,1021,1098
2512,1017,1097
2513,1016,1094
2514,1013,1092
2515,1010,1089
2516,1012,1090
2517,1010,1090
2518,1009,1089
2519,1008,1082
2520,1005,1080
2521,1003,1082
2522,1003,1082
2523,1002,1080
2524,1001,1078
2525,998,1075
2526,995,1071
2527,992,1070
2528,991,1072
2529,994,1071
2530,995,1070
2531,989,1066
2532,988,1064
2533,983,1061
2534,984,1064
2535,984,1061
2536,985,1061
2537,985,1058
2538,981,1055
2539,979,1056
2540,979,1055
2541,981,1055
2542,980,1054
2543,979,1051
2544,976,1048
2545,974,1049
2546,975,1047
2547,977,1052
2548,976,1049
2549,974,1048
2550,973,1045
2551,972,1044
2552,970,1045
2553,972,1048
2554,974,1046
2555,973,1043
2556,971,1043
2557,970,1041
2558,970,1043
2559,971,1044
2560,972,1042
2561,970,1041
2562,969,1039
2563,966,1039
2564,966,1042
2565,969,1043
2566,967,1043
2567,965,1042
2568,966,1039
2569,966,1040
2570,963,1041
2571,967,1044
2572,968,1041
2573,964,1040
2574,962,1038
2575,961,1036
2576,962,1041
2577,962,1042
2578,962,1040
2579,960,1040
2580,960,1038
2581,960,1035
2582,959,1036
2583,962,1041
2584,962,1040
2585,960,1037
2586,958,1034
2587,957,1035
2588,955,1035
2589,956,1038
2590,956,1035
2591,959,1035
2592,954,1034
2593,954,1033
2594,956,1035
2595,958,1034
2596,956,1034
2597,955,1033
2598,952,1030
2599,950,1028
2600,952,1032
2601,954,1032
2602,954,1031
2603,952,1030
2604,950,1028
2605,946,1029
2606,949,1030
2607,953,1031
2608,951,1029
2609,951,1029
2610,949,1025
2611,947,1024
2612,947,1028
2613,948,1029
2614,951,1030
2615,949,1028
2616,947,1023
2617,946,1023
2618,948,1026
2619,950,1028
2620,951,1027
2621,948,1026
2622,947,1024
2623,945,1025
2624,947,1025
2625,948,1029
2626,948,1029
2627,950,1025
2628,946,1024
2629,946,1025
2630,947,1026
2631,950,1028
2632,950,1028
2633,950,1027
2634,950,1023
2635,948,1025
2636,952,1026
2637,951,1027
2638,952,1026
2639,952,1025
2640,951,1026
2641,954,1026
2642,956,1028
2643,962,1029
2644,968,1029
2645,975,1031
2646,993,1032
2647,1036,1039
2648,1125,1059
2649,1200,1116
2650,1174,1181
2651,1087,1183
2652,1026,1127
2653,1010,1082
2654,1014,1068
2655,1017,1069
2656,1011,1064
2657,1005,1057
2658,1000,1054
2659,999,1049
2660,1000,1049
2661,999,1048
2662,1001,1043
2663,999,1034
2664,995,1029
2665,992,1024
2666,990,1021
2667,992,1017
2668,990,1016
2669,984,1010
2670,979,1007
2671,970,1004
2672,962,1003
2673,957,1000
2674,950,998
2675,943,994
2676,935,987
2677,921,983
2678,908,982
2679,891,982
2680,881,981
2681,868,976
2682,858,973
2683,844,970
2684,835,970
2685,826,963
2686,820,955
2687,815,942
2688,811,932
2689,807,924
2690,807,920
2691,810,918
2692,809,910
2693,809,902
2694,808,892
2695,807,887
2696,811,883
2697,815,877
2698,822,868
2699,827,864
2700,836,858
2701,844,855
2702,861,855
2703,870,860
2704,880,866
2705,888,874
2706,897,880
2707,905,890
2708,917,904
2709,924,915
2710,931,927
2711,933,935
2712,936,942
2713,936,955
2714,941,964
2715,942,973
2716,945,977
2717,945,980
2718,947,983
2719,949,987
2720,951,992
2721,956,996
2722,956,1000
2723,954,1000
2724,952,1001
2725,952,1007
2726,954,1013
2727,958,1016
2728,959,1023
2729,960,1026
2730,959,1029
2731,962,1032
2732,965,1039
2733,968,1045
2734,969,1051
2735,967,1050
2736,971,1048
2737,971,1051
2738,973,1055
2739,976,1057
2740,978,1058
2741,974,1057
2742,974,1055
2743,975,1056
2744,976,1058
2745,978,1058
2746,980,1060
2747,980,1057
2748,980,1055
2749,979,1056
2750,983,1058
2751,987,1059
2752,989,1060
2753,990,1056
2754,988,1056
2755,988,1057
2756,990,1058
2757,995,1061
2758,994,1061
2759,995,1064
2760,993,1063
2761,992,1064
2762,999,1065
2763,1002,1066
2764,1005,1066
2765,1007,1065
2766,1008,1062
2767,1008,1066
2768,1010,1071
2769,1010,1075
2770,1010,1075
2771,1011,1074
2772,1006,1072
2773,1004,1073
2774,1007,1075
2775,1005,1078
2776,1008,1076
2777,1006,1076
2778,1004,1075
2779,1002,1076
2780,1004,1079
2781,1005,1083
2782,1005,1082
2783,1007,1081
2784,1005,1082
2785,1005,1082
2786,1007,1086
2787,1009,1086
2788,1010,1088
2789,1008,1086
2790,1010,1087
2791,1008,1090
2792,1012,1093
2793,1015,1094
2794,1017,1094
2795,1014,1093
2796,1012,1093
2797,1013,1093
2798,1014,1096
2799,1015,1096
2800,1015,1094
2801,1013,1094
2802,1011,1092
2803,1009,1093
2804,1012,1090
2805,1011,1095
2806,1011,1091
2807,1008,1089
2808,1006,1089
2809,1000,1087
2810,1003,1087
2811,1004,1089
2812,1001,1086
2813,999,1083
2814,996,1080
2815,991,1077
2816,992,1075
2817,995,1077
2818,993,1072
2819,992,1071
2820,987,1067
2821,983,1066
2822,984,1064
2823,983,1065
2824,982,1062
2825,983,1060
2826,978,1056
2827,977,1055
2828,976,1054
2829,979,1053
2830,978,1053
2831,974,1050
2832,973,1047
2833,971,1047
2834,972,1046
2835,973,1046
2836,973,1045
2837,971,1042
2838,969,1041
2839,969,1039
2840,968,1039
2841,970,1042
2842,970,1039
2843,969,1038
2844,967,1036
2845,965,1035
2846,967,1038
2847,967,1039
2848,965,1038
2849,965,1036
2850,965,1035
2851,963,1036
2852,965,1036
2853,967,1036
2854,965,1035
2855,964,1032
2856,962,1031
2857,960,1034
2858,963,1036
2859,961,1035
2860,962,1036
2861,960,1031
2862,957,1029
2863,957,1030
2864,958,1034
2865,961,1038
2866,958,1034
2867,960,1034
2868,959,1030
2869,954,1030
2870,959,1033
2871,959,1033
2872,960,1032
2873,956,1032
2874,955,1030
2875,953,1030
2876,955,1032
2877,956,1035
2878,955,1031
2879,953,1031
2880,952,1029
2881,951,1028
2882,952,1031
2883,953,1030
2884,953,1031
2885,955,1028
2886,952,1025
2887,949,1027
2888,951,1028
2889,952,1028
2890,953,1030
2891,953,1025
2892,950,1026
2893,947,1024
2894,951,1026
2895,951,1027
2896,952,1027
2897,947,1023
2898,947,1023
2899,947,1020
2900,948,1024
2901,950,1025
2902,951,1026
2903,951,1023
2904,948,1021
2905,947,1022
2906,947,1021
2907,948,1025
2908,947,1023
2909,947,1021
2910,947,1017
2911,946,1021
2912,947,1023
2913,950,1021
2914,949,1021
2915,950,1017
2916,948,1017
2917,946,1021
2918,948,1020
2919,951,1023
2920,952,1023
2921,953,1022
2922,949,1018
2923,949,1021
2924,950,1023
2925,950,1025
2926,953,1023
2927,953,1020
2928,952,1019
2929,953,1021
2930,952,1021
2931,956,1023
2932,958,1022
2933,959,1022
2934,960,1021
2935,965,1022
2936,974,1028
2937,993,1035
2938,1046,1050
2939,1134,1083
2940,1177,1148
2941,1121,1186
2942,1047,1155
2943,1012,1101
2944,1011,1072
2945,1012,1063
2946,1010,1060
2947,1004,1053
2948,999,1050
2949,999,1048
2950,998,1047
2951,997,1042
2952,995,1036
2953,995,1035
2954,992,1028
2955,991,1024
2956,989,1015
2957,983,1010
2958,980,1005
2959,976,1004
2960,972,1003
2961,968,1002
2962,958,999
2963,952,994
2964,944,987
2965,935,983
2966,929,983
2967,919,979
2968,906,977
2969,888,972
2970,875,970
2971,863,965
2972,854,968
2973,843,967
2974,834,963
2975,823,957
2976,812,944
2977,813,937
2978,810,927
2979,810,920
2980,810,914
2981,809,906
2982,808,900
2983,808,893
2984,810,888
2985,814,880
2986,816,874
2987,821,865
2988,827,860
2989,835,855
2990,845,854
2991,858,851
2992,870,854
2993,878,857
2994,887,866
2995,895,873
2996,906,884
2997,917,896
2998,923,907
2999,928,918
3000,932,925
3001,937,935
3002,941,951
3003,942,959
3004,945,964
3005,945,968
3006,946,974
3007,946,978
3008,951,986
3009,955,992
3010,957,991
3011,956,993
3012,954,996
3013,952,1000
3014,955,1005
3015,958,1011
3016,960,1016
3017,958,1015
3018,961,1020
3019,963,1025
3020,969,1034
3021,970,1037
3022,972,1041
3023,973,1042
3024,973,1040
3025,973,1042
3026,976,1043
3027,981,1047
3028,982,1046
3029,982,1047
3030,980,1042
3031,979,1046
3032,982,1048
3033,985,1049
3034,986,1049
3035,987,1048
3036,987,1046
3037,984,1049
3038,988,1053
3039,989,1056
3040,991,1054
3041,991,1053
3042,988,1052
3043,989,1053
3044,992,1055
3045,994,1060
3046,993,1058
3047,991,1059
3048,994,1058
3049,993,1059
3050,998,1062
3051,999,1064
3052,1001,1065
3053,1001,1063
3054,1000,1065
3055,997,1064
3056,1002,1069
3057,1004,1070
3058,1005,1070
3059,1002,1070
3060,1003,1070
3061,1003,1072
3062,1006,1075
3063,1005,1079
3064,1007,1079
3065,1007,1078
3066,1008,1078
3067,1008,1082
3068,1013,1083
3069,1015,1089
3070,1016,1088
3071,1012,1089
3072,1013,1088
3073,1014,1091
3074,1016,1095
3075,1018,1099
3076,1020,1099
3077,1020,1099
3078,1018,1099
3079,1016,1102
3080,1020,1102
3081,1022,1103
3082,1024,1103
3083,1023,1101
3084,1026,1099
3085,1025,1098
3086,1026,1099
3087,1025,1098
3088,1026,1099
3089,1024,1096
3090,1023,1093
3091,1021,1089
3092,1025,1092
3093,1024,1092
3094,1025,1091
3095,1023,1089
3096,1020,1084
3097,1018,1083
3098,1020,1084
3099,1021,1082
3100,1021,1082
3101,1019,1078
3102,1014,1076
3103,1009,1070
3104,1008,1071
3105,1002,1071
3106,1000,1067
3107,999,1063
3108,994,1056
3109,990,1058
3110,992,1057
3111,990,1056
3112,988,1054
3113,986,1047
3114,983,1045
3115,983,1044
3116,982,1046
3117,983,1047
3118,983,1044
3119,979,1042
3120,979,1038
3121,978,1037
3122,975,1041
3123,976,1038
3124,976,1036
3125,978,1037
3126,975,1035
3127,976,1034
3128,974,1034
3129,977,1035
3130,975,1035
3131,974,1032
3132,972,1031
3133,972,1031
3134,972,1033
3135,973,1035
3136,972,1033
3137,973,1030
3138,970,1029
3139,972,1029
3140,970,1030
3141,973,1031
3142,969,1034
3143,968,1029
3144,967,1027
3145,968,1028
3146,968,1029
3147,970,1032
3148,969,1032
3149,968,1030
3150,967,1026
3151,965,1028
3152,967,1029
3153,968,1030
3154,968,1031
3155,967,1028
3156,965,1026
3157,964,1027
3158,964,1026
3159,964,1029
3160,964,1029
3161,963,1025
3162,958,1024
3163,959,1024
3164,961,1025
3165,964,1026
3166,964,1026
3167,962,1024
3168,960,1022
3169,959,1022
3170,960,1024
3171,960,1025
3172,960,1025
3173,960,1021
3174,958,1022
3175,954,1023
3176,959,1023
3177,960,1023
3178,957,1022
3179,958,1020
3180,955,1018
3181,953,1018
3182,953,1019
3183,955,1020
3184,955,1021
3185,955,1018
3186,954,1017
3187,954,1016
3188,956,1020
3189,959,1019
3190,959,1020
3191,959,1017
3192,954,1016
3193,952,1016
3194,952,1018
3195,955,1018
3196,955,1017
3197,956,1017
3198,953,1015
3199,952,1014
3200,952,1017
3201,955,1018
3202,956,1017
3203,954,1015
3204,955,1013
3205,953,1015
3206,954,1015
3207,954,1018
3208,957,1016
3209,954,1013
3210,953,1013
3211,951,1014
3212,954,1014
3213,956,1019
3214,955,1017
3215,954,1014
3216,955,1011
3217,954,1013
3218,956,1013
3219,957,1016
3220,957,1016
3221,957,1014
3222,958,1011
3223,956,1013
3224,961,1017
3225,971,1020
3226,977,1018
3227,999,1022
3228,1052,1029
3229,1143,1060
3230,1199,1127
3231,1155,1179
3232,1069,1157
3233,1020,1099
3234,1011,1061
3235,1019,1056
3236,1018,1056
3237,1014,1050
3238,1007,1045
3239,1003,1042
3240,1000,1037
3241,997,1036
3242,999,1032
3243,998,1029
3244,996,1020
3245,993,1012
3246,985,1002
3247,983,1000
3248,985,997
3249,982,996
3250,980,992
3251,975,987
3252,965,983
3253,957,979
3254,951,976
3255,944,973
3256,934,966
3257,923,961
3258,905,955
3259,885,955
3260,870,954
3261,859,953
3262,855,952
3263,841,949
3264,831,944
3265,819,939
3266,812,936
3267,811,928
3268,810,917
3269,808,904
3270,805,898
3271,805,894
3272,808,894
3273,809,888
3274,810,881
3275,812,870
3276,815,863
3277,817,860
3278,824,858
3279,831,852
3280,840,848
3281,848,842
3282,860,841
3283,870,847
3284,884,856
3285,899,866
3286,909,877
3287,919,883
3288,926,892
3289,931,905
3290,938,922
3291,944,932
3292,948,944
3293,946,950
3294,946,956
3295,945,965
3296,948,974
3297,953,979
3298,957,984
3299,960,987
3300,960,989
3301,954,990
3302,956,997
3303,958,1000
3304,957,1006
3305,958,1008
3306,959,1011
3307,963,1015
3308,966,1024
3309,970,1028
3310,975,1030
3311,976,1031
3312,977,1033
3313,978,1036
3314,979,1039
3315,982,1042
3316,982,1041
3317,987,1039
3318,985,1038
3319,986,1039
3320,989,1041
3321,989,1043
3322,990,1043
3323,987,1043
3324,987,1042
3325,985,1041
3326,989,1045
3327,995,1047
3328,1000,1049
3329,1000,1047
3330,998,1045
3331,996,1048
3332,996,1051
3333,1000,1053
3334,1000,1053
3335,1003,1052
3336,1002,1051
3337,1002,1055
3338,1003,1057
3339,1005,1060
3340,1006,1062
3341,1004,1060
3342,1003,1058
3343,1004,1061
3344,1008,1064
3345,1011,1068
3346,1016,1068
3347,1015,1066
3348,1014,1066
3349,1016,1068
3350,1018,1070
3351,1019,1074
3352,1019,1074
3353,1019,1074
3354,1013,1073
3355,1014,1077
3356,1013,1080
3357,1019,1082
3358,1022,1083
3359,1023,1083
3360,1022,1084
3361,1023,1084
3362,1023,1085
3363,1025,1088
3364,1026,1088
3365,1025,1088
3366,1027,1085
3367,1026,1089
3368,1029,1091
3369,1029,1092
3370,1025,1091
3371,1025,1089
3372,1022,1087
3373,1023,1089
3374,1025,1090
3375,1026,1089
3376,1028,1089
3377,1028,1087
3378,1024,1084
3379,1021,1085
3380,1020,1084
3381,1019,1083
3382,1018,1082
3383,1013,1079
3384,1009,1075
3385,1007,1075
3386,1007,1076
3387,1005,1073
3388,1003,1068
3389,999,1064
3390,995,1061
3391,992,1059
3392,993,1061
3393,993,1061
3394,992,1057
3395,992,1053
3396,991,1048
3397,989,1048
3398,988,1048
3399,986,1048
3400,985,1045
3401,981,1043
3402,978,1041
3403,976,1040
3404,978,1042
3405,981,1041
3406,978,1039
3407,977,1038
3408,972,1037
3409,971,1037
3410,973,1038
3411,974,1039
3412,974,1038
3413,970,1035
3414,968,1032
3415,969,1033
3416,972,1033
3417,975,1036
3418,972,1032
3419,967,1030
3420,969,1028
3421,969,1028
3422,969,1030
3423,970,1029
3424,971,1029
3425,971,1028
3426,973,1025
3427,975,1026
3428,975,1027
3429,977,1026
3430,975,1027
3431,975,1025
3432,974,1024
3433,974,1025
3434,978,1025
3435,981,1026
3436,981,1026
3437,981,1025
3438,982,1024
3439,983,1027
3440,984,1028
3441,985,1030
3442,983,1029
3443,978,1024
3444,977,1021
3445,973,1022
3446,971,1024
3447,972,1021
3448,972,1019
3449,968,1019
3450,963,1017
3451,960,1016
3452,962,1016
3453,965,1019
3454,965,1017
3455,964,1016
3456,964,1015
3457,962,1015
3458,961,1017
3459,961,1018
3460,960,1015
3461,961,1014
3462,960,1009
3463,962,1013
3464,961,1013
3465,963,1015
3466,964,1014
3467,962,1012
3468,960,1011
3469,960,1013
3470,962,1013
3471,962,1012
3472,964,1014
3473,959,1012
3474,959,1009
3475,958,1011
3476,960,1014
3477,960,1011
3478,959,1011
3479,959,1012
3480,960,1006
3481,957,1009
3482,959,1010
3483,960,1010
3484,961,1009
3485,961,1010
3486,957,1004
3487,959,1007
3488,961,1006
3489,964,1011
3490,964,1011
3491,963,1009
3492,963,1008
3493,962,1009
3494,964,1011
3495,966,1012
3496,965,1012
3497,966,1011
3498,966,1008
3499,966,1008
3500,968,1011
3501,970,1011
3502,969,1014
3503,969,1011
3504,972,1012
3505,972,1015
3506,974,1016
3507,976,1020
3508,983,1023
3509,994,1023
3510,1016,1024
3511,1056,1032
3512,1150,1049
3513,1243,1108
3514,1241,1181
3515,1177,1179
3516,1137,1131
3517,1145,1101
3518,1183,1095
3519,1217,1098
3520,1248,1097
3521,1277,1092
3522,1306,1086
3523,1324,1083
3524,1323,1072
3525,1299,1052
3526,1256,1024
3527,1208,993
3528,1160,965
3529,1119,952
3530,1085,947
3531,1046,943
3532,1007,942
3533,968,944
3534,944,952
3535,931,960
3536,930,970
3537,933,976
3538,932,985
3539,932,991
3540,934,995
3541,933,999
3542,937,1005
3543,938,1007
3544,941,1007
3545,941,1006
3546,939,1004
3547,939,1004
3548,939,1006
3549,941,1009
3550,943,1005
3551,941,1006
3552,939,1002
3553,937,1004
3554,938,1005
3555,938,1006
3556,939,1006
3557,936,1005
3558,937,1002
3559,934,1004
3560,937,1005
3561,937,1006
3562,935,1005
3563,935,1002
3564,934,997
3565,932,1001
3566,932,1001
3567,932,1002
3568,930,1001
3569,927,1000
3570,925,995
3571,924,997
3572,926,1000
3573,926,998
3574,926,1000
3575,923,996
3576,921,996
3577,920,993
3578,922,996
3579,922,998
3580,921,995
3581,920,993
3582,916,994
3583,917,992
3584,914,993
3585,917,995
3586,916,994
3587,914,990
3588,913,990
3589,912,988
3590,911,992
3591,912,993
3592,910,992
3593,910,988
3594,907,987
3595,907,987
3596,907,988
3597,906,989
3598,907,987
3599,905,986
3600,904,986
3601,902,985
3602,904,987
3603,905,990
3604,905,989
3605,903,988
3606,903,986
3607,902,987
3608,905,987
3609,907,991
3610,909,992
3611,906,990
3612,906,990
3613,905,989
3614,908,993
3615,910,996
3616,911,994
3617,912,992
3618,912,992
3619,914,993
3620,916,995
3621,920,997
3622,923,998
3623,923,998
3624,923,998
3625,925,999
3626,930,1002
3627,935,1005
3628,937,1007
3629,938,1004
3630,940,1008
3631,940,1009
3632,946,1011
3633,952,1013
3634,953,1014
3635,956,1016
3636,955,1015
3637,956,1016
3638,964,1020
3639,967,1021
3640,968,1021
3641,969,1021
3642,967,1020
3643,969,1021
3644,969,1023
3645,973,1026
3646,971,1026
3647,972,1024
3648,972,1022
3649,974,1023
3650,975,1025
3651,975,1026
3652,978,1027
3653,977,1023
3654,975,1023
3655,975,1025
3656,975,1023
3657,976,1027
3658,979,1024
3659,977,1022
3660,977,1021
3661,976,1024
3662,977,1024
3663,978,1024
3664,979,1023
3665,976,1020
3666,974,1018
3667,975,1020
3668,976,1023
3669,979,1022
3670,976,1022
3671,977,1020
3672,971,1018
3673,971,1018
3674,973,1021
3675,975,1023
3676,973,1022
3677,971,1019
3678,972,1017
3679,970,1018
3680,973,1016
3681,975,1020
3682,973,1019
3683,971,1018
3684,972,1014
3685,969,1018
3686,971,1021
3687,973,1019
3688,972,1021
3689,970,1017
3690,969,1018
3691,970,1015
3692,971,1017
3693,976,1021
3694,974,1022
3695,973,1020
3696,973,1016
3697,971,1016
3698,974,1020
3699,975,1022
3700,975,1021
3701,973,1020
3702,971,1016
3703,971,1020
3704,977,1021
3705,979,1021
3706,977,1022
3707,976,1021
3708,976,1020
3709,975,1020
3710,975,1021
3711,980,1023
3712,981,1022
3713,979,1020
3714,977,1017
3715,973,1020
3716,979,1020
3717,979,1023
3718,979,1022
3719,980,1020
3720,979,1018
3721,977,1018
3722,978,1021
3723,980,1020
3724,981,1021
3725,979,1019
3726,976,1019
3727,977,1020
3728,977,1022
3729,979,1022
3730,981,1024
3731,979,1022
3732,978,1020
3733,977,1021
3734,978,1023
3735,979,1026
3736,981,1023
3737,977,1024
3738,977,1021
3739,976,1023
3740,975,1027
3741,978,1028
3742,980,1028
3743,977,1027
3744,978,1022
3745,976,1026
3746,978,1030
3747,978,1027
3748,978,1028
3749,974,1025
3750,978,1024
3751,977,1021
3752,979,1021
3753,981,1024
3754,984,1023
3755,983,1019
3756,982,1016
3757,981,1018
3758,984,1020
3759,988,1022
3760,988,1020
3761,986,1018
3762,985,1017
3763,984,1017
3764,990,1019
3765,993,1021
3766,995,1023
3767,994,1018
3768,995,1018
3769,997,1021
3770,996,1026
3771,998,1022
3772,996,1023
3773,991,1022
3774,987,1019
3775,985,1017
3776,986,1018
3777,988,1021
3778,987,1021
3779,984,1019
3780,981,1015
3781,983,1016
3782,984,1018
3783,985,1018
3784,985,1018
3785,984,1018
3786,983,1015
3787,982,1018
3788,986,1018
3789,993,1021
3790,995,1021
3791,1004,1022
3792,1017,1021
3793,1058,1027
3794,1149,1044
3795,1223,1105
3796,1192,1163
3797,1101,1149
3798,1044,1092
3799,1036,1060
3800,1044,1055
3801,1049,1058
3802,1042,1052
3803,1034,1048
3804,1031,1039
3805,1029,1041
3806,1032,1040
3807,1037,1037
3808,1037,1034
3809,1034,1030
3810,1032,1022
3811,1030,1016
3812,1030,1016
3813,1032,1014
3814,1031,1014
3815,1030,1010
3816,1023,1005
3817,1019,1006
3818,1013,1008
3819,1007,1007
3820,1000,1003
3821,988,1001
3822,984,995
3823,977,998
3824,969,997
3825,967,998
3826,966,994
3827,962,994
3828,958,991
3829,952,994
3830,941,993
3831,935,995
3832,934,991
3833,938,991
3834,946,989
3835,957,991
3836,970,995
3837,980,997
3838,991,1000
3839,992,991
3840,985,980
3841,973,967
3842,964,955
3843,957,950
3844,944,945
3845,936,938
3846,928,938
3847,921,941
3848,920,947
3849,925,957
3850,932,969
3851,940,978
3852,945,985
3853,949,994
3854,954,1004
3855,956,1010
3856,960,1011
3857,962,1013
3858,961,1013
3859,963,1015
3860,964,1020
3861,966,1023
3862,971,1019
3863,973,1017
3864,972,1016
3865,972,1019
3866,976,1020
3867,976,1020
3868,978,1019
3869,975,1018
3870,977,1018
3871,977,1017
3872,979,1020
3873,980,1022
3874,980,1021
3875,980,1019
3876,980,1017
3877,978,1017
3878,981,1021
3879,982,1021
3880,981,1020
3881,982,1020
3882,980,1016
3883,979,1017
3884,981,1021
3885,981,1021
3886,985,1022
3887,985,1020
3888,983,1017
3889,982,1019
3890,983,1020
3891,985,1022
3892,985,1021
3893,986,1020
3894,983,1018
3895,984,1019
3896,988,1021
3897,989,1021
3898,990,1023
3899,988,1021
3900,988,1020
3901,985,1022
3902,991,1023
3903,992,1025
3904,993,1024
3905,992,1021
3906,992,1020
3907,993,1023
3908,993,1025
3909,996,1027
3910,998,1026
3911,996,1025
3912,995,1024
3913,995,1025
3914,997,1030
3915,1000,1030
3916,1002,1029
3917,1002,1027
3918,999,1028
3919,999,1028
3920,1002,1028
3921,1005,1034
3922,1008,1034
3923,1006,1034
3924,1005,1031
3925,1005,1032
3926,1007,1035
3927,1010,1036
3928,1010,1036
3929,1009,1036
3930,1011,1035
3931,1011,1038
3932,1014,1037
3933,1016,1040
3934,1017,1039
3935,1015,1039
3936,1013,1038
3937,1013,1038
3938,1016,1043
3939,1018,1043
3940,1018,1041
3941,1016,1039
3942,1018,1038
3943,1015,1041
3944,1016,1042
3945,1018,1043
3946,1018,1042
3947,1019,1041
3948,1017,1040
3949,1015,1041
3950,1016,1041
3951,1018,1042
3952,1017,1041
3953,1014,1039
3954,1013,1040
3955,1011,1040
3956,1012,1041
3957,1012,1041
3958,1010,1040
3959,1008,1037
3960,1005,1037
3961,1003,1037
3962,1003,1037
3963,1005,1038
3964,1002,1039
3965,1002,1036
3966,1000,1031
3967,999,1035
3968,999,1036
3969,1000,1035
3970,998,1035
3971,997,1033
3972,994,1029
3973,992,1032
3974,993,1033
3975,996,1033
3976,993,1033
3977,994,1030
3978,993,1030
3979,990,1030
3980,991,1033
3981,994,1031
3982,991,1033
3983,990,1030
3984,988,1026
3985,987,1027
3986,989,1030
3987,990,1034
3988,990,1031
3989,989,1028
3990,985,1025
3991,986,1028
3992,989,1030
3993,992,1029
3994,990,1029
3995,989,1027
3996,987,1027
3997,987,1024
3998,989,1028
3999,990,1030
4000,990,1030
4001,988,1027
4002,987,1023
4003,984,1027
4004,987,1029
4005,988,1028
4006,988,1029
4007,987,1026
4008,988,1023
4009,984,1023
4010,984,1027
4011,987,1028
4012,989,1026
4013,987,1025
4014,987,1024
4015,984,1024
4016,986,1026
4017,987,1026
4018,987,1028
4019,983,1025
4020,982,1024
4021,980,1024
4022,984,1024
4023,985,1025
4024,986,1025
4025,984,1023
4026,982,1022
4027,982,1023
4028,983,1026
4029,985,1024
4030,983,1023
4031,983,1022
4032,982,1023
4033,982,1024
4034,983,1026
4035,985,1025
4036,984,1026
4037,980,1024
4038,978,1023
4039,979,1023
4040,981,1026
4041,984,1027
4042,982,1026
4043,980,1019
4044,981,1019
4045,978,1021
4046,979,1024
4047,980,1024
4048,982,1023
4049,981,1021
4050,979,1019
4051,977,1020
4052,982,1022
4053,980,1022
4054,979,1020
4055,978,1021
4056,976,1018
4057,976,1019
4058,977,1022
4059,978,1021
4060,978,1020
4061,979,1017
4062,977,1015
4063,974,1019
4064,976,1018
4065,976,1020
4066,979,1018
4067,977,1016
4068,976,1015
4069,976,1015
4070,978,1018
4071,977,1019
4072,979,1020
4073,975,1017
4074,974,1015
4075,973,1018
4076,974,1020
4077,974,1021
4078,977,1021
4079,973,1020
4080,974,1018
4081,973,1017
4082,977,1021
4083,972,1026
4084,974,1023
4085,972,1023
4086,973,1022
4087,971,1022
4088,974,1024
4089,976,1025
4090,978,1026
4091,974,1022
4092,976,1022
4093,980,1023
4094,983,1025
4095,988,1024
4096,998,1028
4097,1015,1027
4098,1054,1029
4099,1138,1046
4100,1211,1100
4101,1188,1166
4102,1107,1166
4103,1048,1112
4104,1031,1071
4105,1037,1057
4106,1041,1059
4107,1039,1055
4108,1034,1050
4109,1029,1045
4110,1028,1041
4111,1028,1039
4112,1034,1038
4113,1034,1037
4114,1038,1034
4115,1037,1026
4116,1034,1019
4117,1031,1017
4118,1031,1017
4119,1031,1015
4120,1028,1012
4121,1024,1007
4122,1017,1001
4123,1009,1002
4124,1003,999
4125,997,994
4126,991,993
4127,980,987
4128,971,982
4129,963,979
4130,954,978
4131,941,976
4132,926,975
4133,912,970
4134,902,966
4135,890,965
4136,882,966
4137,871,963
4138,859,959
4139,851,948
4140,844,939
4141,840,930
4142,839,922
4143,837,915
4144,838,908
4145,837,904
4146,835,896
4147,837,890
4148,838,887
4149,845,880
4150,847,875
4151,849,869
4152,855,860
4153,862,856
4154,874,851
4155,887,853
4156,897,853
4157,903,860
4158,912,864
4159,919,871
4160,928,883
4161,939,892
4162,946,903
4163,950,911
4164,952,920
4165,956,931
4166,959,944
4167,964,952
4168,965,958
4169,963,961
4170,965,967
4171,967,972
4172,972,979
4173,975,986
4174,978,988
4175,976,988
4176,973,989
4177,973,995
4178,975,1000
4179,976,1006
4180,977,1007
4181,976,1011
4182,975,1015
4183,978,1020
4184,983,1023
4185,990,1030
4186,991,1031
4187,992,1031
4188,993,1031
4189,993,1033
4190,998,1037
4191,1001,1037
4192,1002,1039
4193,1002,1034
4194,1002,1036
4195,1000,1035
4196,1003,1037
4197,1005,1040
4198,1007,1040
4199,1006,1042
4200,1007,1041
4201,1009,1044
4202,1011,1044
4203,1014,1046
4204,1015,1044
4205,1017,1043
4206,1014,1043
4207,1015,1044
4208,1018,1049
4209,1020,1048
4210,1022,1049
4211,1021,1049
4212,1018,1048
4213,1019,1049
4214,1021,1052
4215,1026,1053
4216,1027,1055
4217,1026,1053
4218,1026,1052
4219,1026,1053
4220,1028,1058
4221,1031,1059
4222,1032,1059
4223,1033,1059
4224,1031,1059
4225,1027,1060
4226,1030,1064
4227,1035,1067
4228,1037,1067
4229,1035,1065
4230,1032,1065
4231,1035,1071
4232,1035,1072
4233,1039,1071
4234,1038,1073
4235,1037,1070
4236,1036,1070
4237,1034,1071
4238,1036,1075
4239,1041,1076
4240,1041,1076
4241,1038,1076
4242,1036,1073
4243,1036,1074
4244,1040,1079
4245,1042,1080
4246,1041,1079
4247,1040,1074
4248,1038,1073
4249,1037,1076
4250,1037,1078
4251,1038,1077
4252,1037,1076
4253,1034,1073
4254,1033,1070
4255,1031,1070
4256,1029,1072
4257,1031,1069
4258,1029,1070
4259,1025,1066
4260,1023,1064
4261,1021,1061
4262,1021,1066
4263,1019,1064
4264,1019,1061
4265,1016,1059
4266,1013,1056
4267,1011,1055
4268,1010,1056
4269,1011,1055
4270,1007,1051
4271,1006,1050
4272,1002,1045
4273,1000,1045
4274,1001,1044
4275,1000,1046
4276,999,1044
4277,997,1039
4278,995,1037
4279,993,1035
4280,993,1035
4281,996,1036
4282,995,1035
4283,992,1032
4284,993,1028
4285,990,1031
4286,991,1031
4287,992,1030
4288,992,1028
4289,988,1025
4290,987,1021
4291,985,1024
4292,988,1024
4293,989,1025
4294,988,1023
4295,989,1023
4296,986,1021
4297,986,1021
4298,985,1023
4299,988,1023
4300,984,1023
4301,985,1020
4302,986,1020
4303,983,1021
4304,986,1023
4305,990,1023
4306,989,1019
4307,988,1019
4308,985,1018
4309,984,1020
4310,985,1021
4311,988,1022
4312,988,1019
4313,987,1018
4314,985,1017
4315,983,1019
4316,987,1020
4317,987,1022
4318,985,1020
4319,987,1018
4320,985,1016
4321,986,1019
4322,986,1021
4323,988,1020
4324,988,1021
4325,983,1017
4326,985,1016
4327,984,1018
4328,987,1022
4329,987,1022
4330,986,1019
4331,983,1019
4332,981,1017
4333,983,1015
4334,986,1019
4335,989,1021
4336,988,1021
4337,985,1016
4338,986,1014
4339,983,1017
4340,983,1020
4341,985,1021
4342,983,1020
4343,984,1016
4344,981,1014
4345,981,1016
4346,984,1018
4347,983,1018
4348,982,1019
4349,981,1014
4350,980,1013
4351,978,1016
4352,978,1016
4353,980,1017
4354,982,1015
4355,982,1014
4356,979,1012
4357,978,1013
4358,979,1015
4359,979,1015
4360,980,1013
4361,978,1011
4362,975,1009
4363,976,1011
4364,976,1013
4365,979,1014
4366,979,1012
4367,977,1011
4368,978,1008
4369,976,1009
4370,979,1011
4371,978,1012
4372,981,1009
4373,979,1008
4374,976,1008
4375,975,1008
4376,978,1010
4377,978,1014
4378,979,1013
4379,978,1011
4380,976,1008
4381,974,1009
4382,976,1011
4383,976,1010
4384,978,1009
4385,979,1007
4386,976,1008
4387,977,1009
4388,978,1012
4389,980,1010
4390,983,1010
4391,984,1010
4392,982,1006
4393,981,1007
4394,980,1011
4395,986,1010
4396,986,1012
4397,984,1009
4398,984,1008
4399,985,1010
4400,992,1012
4401,1000,1016
4402,1016,1018
4403,1052,1023
4404,1132,1043
4405,1206,1105
4406,1188,1169
4407,1111,1164
4408,1053,1108
4409,1038,1067
4410,1042,1055
4411,1041,1053
4412,1037,1050
4413,1033,1043
4414,1032,1039
4415,1030,1035
4416,1025,1033
4417,1025,1030
4418,1024,1028
4419,1023,1025
4420,1021,1019
4421,1016,1012
4422,1015,1005
4423,1013,1002
4424,1012,999
4425,1009,1000
4426,1005,997
4427,998,992
4428,987,987
4429,979,986
4430,972,984
4431,967,982
4432,958,978
4433,948,973
4434,932,969
4435,913,965
4436,903,963
4437,892,959
4438,882,960
4439,871,955
4440,861,949
4441,849,947
4442,843,940
4443,839,931
4444,837,920
4445,833,907
4446,833,901
4447,829,897
4448,831,892
4449,835,890
4450,836,880
4451,839,871
4452,841,865
4453,847,861
4454,857,856
4455,868,849
4456,876,845
4457,885,841
4458,899,837
4459,906,845
4460,912,853
4461,926,861
4462,934,870
4463,942,876
4464,946,885
4465,953,899
4466,958,913
4467,964,923
4468,965,933
4469,969,943
4470,967,948
4471,966,956
4472,966,963
4473,976,971
4474,980,975
4475,980,975
4476,977,974
4477,977,982
4478,978,989
4479,981,993
4480,982,996
4481,980,996
4482,978,997
4483,978,1004
4484,984,1011
4485,993,1015
4486,992,1020
4487,995,1022
4488,994,1022
4489,998,1028
4490,1001,1031
4491,1005,1032
4492,1009,1030
4493,1010,1028
4494,1010,1029
4495,1008,1030
4496,1007,1033
4497,1011,1036
4498,1010,1034
4499,1010,1034
4500,1008,1035
4501,1010,1034
4502,1013,1037
4503,1014,1038
4504,1016,1040
4505,1016,1039
4506,1015,1036
4507,1016,1040
4508,1019,1045
4509,1021,1043
4510,1023,1045
4511,1018,1043
4512,1017,1042
4513,1016,1045
4514,1017,1048
4515,1021,1047
4516,1019,1048
4517,1019,1047
4518,1021,1049
4519,1020,1051
4520,1025,1052
4521,1028,1054
4522,1027,1055
4523,1024,1054
4524,1022,1053
4525,1020,1056
4526,1023,1059
4527,1027,1059
4528,1028,1058
4529,1026,1060
4530,1025,1060
4531,1024,1062
4532,1029,1064
4533,1030,1063
4534,1030,1065
4535,1030,1067
4536,1027,1066
4537,1029,1068
4538,1031,1071
4539,1033,1071
4540,1033,1073
4541,1035,1073
4542,1031,1073
4543,1028,1074
4544,1031,1075
4545,1034,1077
4546,1033,1078
4547,1031,1074
4548,1029,1073
4549,1031,1075
4550,1034,1076
4551,1035,1076
4552,1037,1076
4553,1035,1072
4554,1033,1072
4555,1029,1070
4556,1029,1071
4557,1029,1073
4558,1028,1071
4559,1024,1066
4560,1025,1063
4561,1021,1066
4562,1022,1065
4563,1023,1064
4564,1017,1060
4565,1015,1059
4566,1013,1054
4567,1008,1054
4568,1010,1054
4569,1012,1053
4570,1013,1052
4571,1009,1047
4572,1005,1043
4573,1004,1042
4574,1003,1043
4575,1005,1042
4576,1005,1040
4577,999,1035
4578,995,1033
4579,993,1032
4580,995,1032
4581,1000,1033
4582,997,1032
4583,995,1027
4584,992,1027
4585,990,1026
4586,992,1030
4587,993,1028
4588,992,1025
4589,991,1023
4590,987,1022
4591,985,1021
4592,988,1022
4593,990,1021
4594,989,1022
4595,988,1020
4596,986,1017
4597,985,1020
4598,986,1018
4599,987,1021
4600,987,1018
4601,985,1017
4602,983,1016
4603,986,1018
4604,988,1017
4605,988,1018
4606,989,1020
4607,987,1015
4608,986,1017
4609,985,1019
4610,986,1020
4611,986,1018
4612,984,1016
4613,983,1014
4614,980,1014
4615,980,1016
4616,981,1019
4617,984,1017
4618,984,1015
4619,985,1015
4620,984,1014
4621,982,1015
4622,985,1016
4623,985,1019
4624,986,1017
4625,983,1015
4626,979,1012
4627,981,1013
4628,981,1016
4629,982,1017
4630,982,1016
4631,981,1014
4632,978,1011
4633,979,1014
4634,979,1013
4635,978,1016
4636,979,1014
4637,975,1012
4638,973,1008
4639,973,1009
4640,976,1014
4641,980,1011
4642,979,1012
4643,980,1011
4644,978,1008
4645,978,1009
4646,978,1010
4647,978,1009
4648,975,1009
4649,970,1006
4650,969,1005
4651,969,1008
4652,973,1008
4653,976,1008
4654,976,1007
4655,978,1005
4656,974,1003
4657,974,1006
4658,972,1008
4659,976,1007
4660,975,1004
4661,975,1004
4662,975,1000
4663,970,1002
4664,971,1004
4665,972,1005
4666,972,1006
4667,971,1003
4668,974,1001
4669,972,1002
4670,976,1004
4671,976,1004
4672,975,1004
4673,974,1002
4674,971,1003
4675,969,1001
4676,972,1002
4677,976,1006
4678,974,1002
4679,972,1001
4680,970,1001
4681,967,1003
4682,970,1005
4683,974,1004
4684,975,1005
4685,977,1001
4686,975,1001
4687,976,1002
4688,976,1005
4689,977,1005
4690,977,1004
4691,976,1002
4692,974,1001
4693,976,1002
4694,978,1004
4695,981,1006
4696,984,1007
4697,988,1005
4698,998,1006
4699,1023,1011
4700,1080,1024
4701,1172,1057
4702,1222,1127
4703,1167,1169
4704,1078,1129
4705,1030,1070
4706,1026,1045
4707,1039,1044
4708,1037,1042
4709,1031,1033
4710,1023,1029
4711,1021,1028
4712,1024,1027
4713,1026,1025
4714,1027,1019
4715,1025,1014
4716,1023,1003
4717,1021,998
4718,1022,995
4719,1025,996
4720,1023,991
4721,1021,985
4722,1012,982
4723,1006,982
4724,999,980
4725,994,976
4726,988,970
4727,975,963
4728,960,958
4729,938,958
4730,920,958
4731,909,958
4732,898,955
4733,887,952
4734,873,949
4735,860,945
4736,850,941
4737,847,935
4738,840,927
4739,837,916
4740,830,908
4741,829,907
4742,829,904
4743,829,899
4744,831,893
4745,828,884
4746,829,878
4747,832,876
4748,839,871
4749,847,866
4750,855,859
4751,866,853
4752,875,854
4753,882,861
4754,891,871
4755,904,877
4756,912,883
4757,922,893
4758,930,902
4759,936,916
4760,941,931
4761,950,943
4762,954,954
4763,955,960
4764,956,964
4765,956,974
4766,961,981
4767,964,986
4768,966,988
4769,965,990
4770,963,992
4771,963,996
4772,965,1003
4773,968,1004
4774,971,1007
4775,971,1009
4776,972,1014
4777,977,1020
4778,983,1023
4779,989,1029
4780,989,1029
4781,991,1029
4782,992,1032
4783,994,1033
4784,998,1034
4785,998,1033
4786,1003,1035
4787,1002,1035
4788,1005,1035
4789,1005,1037
4790,1009,1036
4791,1013,1037
4792,1018,1040
4793,1018,1038
4794,1020,1038
4795,1020,1041
4796,1023,1047
4797,1024,1047
4798,1023,1045
4799,1020,1043
4800,1018,1044
4801,1016,1042
4802,1018,1046
4803,1020,1046
4804,1019,1045
4805,1016,1045
4806,1016,1045
4807,1016,1045
4808,1013,1048
4809,1017,1049
4810,1020,1049
4811,1019,1047
4812,1017,1045
4813,1017,1049
4814,1020,1051
4815,1023,1050
4816,1021,1054
4817,1022,1052
4818,1021,1051
4819,1020,1053
4820,1023,1058
4821,1027,1059
4822,1027,1058
4823,1027,1059
4824,1029,1057
4825,1026,1060
4826,1029,1063
4827,1033,1064
4828,1030,1065
4829,1032,1066
4830,1032,1064
4831,1032,1068
4832,1035,1069
4833,1037,1072
4834,1037,1072
4835,1038,1071
4836,1038,1069
4837,1039,1071
4838,1042,1074
4839,1044,1073
4840,1042,1074
4841,1043,1074
4842,1042,1072
4843,1040,1073
4844,1044,1076
4845,1045,1075
4846,1045,1075
4847,1043,1073
4848,1043,1071
4849,1042,1073
4850,1042,1073
4851,1044,1072
4852,1043,1070
4853,1041,1068
4854,1038,1067
4855,1037,1069
4856,1037,1069
4857,1039,1068
4858,1037,1066
4859,1035,1062
4860,1030,1059
4861,1029,1061
4862,1030,1059
4863,1032,1058
4864,1028,1056
4865,1025,1054
4866,1021,1050
4867,1020,1052
4868,1022,1051
4869,1023,1050
4870,1021,1049
4871,1017,1047
4872,1014,1042
4873,1013,1042
4874,1016,1042
4875,1017,1041
4876,1017,1039
4877,1012,1036
4878,1010,1034
4879,1010,1035
4880,1010,1036
4881,1013,1033
4882,1011,1031
4883,1009,1028
4884,1008,1028
4885,1006,1028
4886,1008,1030
4887,1009,1029
4888,1008,1027
4889,1007,1026
4890,1004,1022
4891,1003,1024
4892,1003,1024
4893,1008,1024
4894,1007,1024
4895,1005,1021
4896,1005,1020
4897,1003,1021
4898,1006,1024
4899,1004,1022
4900,1002,1023
4901,1004,1022
4902,1002,1018
4903,1002,1019
4904,1004,1021
4905,1006,1022
4906,1004,1021
4907,1002,1017
4908,1000,1016
4909,1000,1017
4910,1003,1020
4911,1004,1021
4912,1002,1022
4913,1002,1018
4914,1001,1018
4915,998,1018
4916,998,1021
4917,1000,1021
4918,1001,1021
4919,1000,1018
4920,999,1019
4921,1000,1018
4922,1000,1021
4923,1001,1022
4924,1000,1022
4925,998,1021
4926,998,1017
4927,995,1019
4928,996,1021
4929,999,1022
4930,997,1018
4931,995,1017
4932,993,1016
4933,994,1018
4934,996,1019
4935,994,1019
4936,992,1018
4937,993,1015
4938,991,1017
4939,990,1018
4940,991,1016
4941,995,1019
4942,992,1017
4943,990,1015
4944,991,1013
4945,989,1015
4946,989,1018
4947,992,1017
4948,989,1017
4949,989,1012
4950,986,1011
4951,984,1011
4952,988,1013
4953,990,1013
4954,989,1014
4955,988,1011
4956,985,1008
4957,986,1012
4958,986,1013
4959,988,1012
4960,987,1012
4961,986,1010
4962,984,1009
4963,985,1008
4964,987,1012
4965,988,1014
4966,987,1011
4967,987,1010
4968,983,1010
4969,984,1011
4970,987,1011
4971,989,1013
4972,988,1011
4973,988,1008
4974,985,1008
4975,983,1010
4976,987,1010
4977,987,1011
4978,987,1009
4979,986,1008
4980,986,1007
4981,985,1010
4982,989,1011
4983,990,1012
4984,989,1011
4985,989,1010
4986,989,1007
4987,989,1011
4988,996,1013
4989,1000,1016
4990,1006,1017
4991,1018,1021
4992,1055,1033
4993,1145,1083
4994,1206,1156
4995,1162,1167
4996,1079,1113
4997,1039,1062
4998,1039,1045
4999,1048,1045
5000,1048,1048
5001,1041,1042
5002,1039,1036
5003,1038,1031
5004,1040,1028
5005,1038,1025
5006,1039,1021
5007,1039,1013
5008,1037,1010
5009,1034,1002
5010,1031,996
5011,1022,998
5012,1020,996
5013,1014,994
5014,1005,989
5015,995,983
5016,985,976
5017,975,975
5018,961,976
5019,946,972
5020,928,970
5021,913,965
5022,901,961
5023,889,959
5024,878,959
5025,868,948
5026,861,938
5027,858,925
5028,852,916
5029,847,910
5030,848,909
5031,848,903
5032,848,895
5033,846,883
5034,846,873
5035,849,869
5036,855,865
5037,864,861
5038,870,854
5039,881,846
5040,894,847
5041,902,853
5042,912,862
5043,924,868
5044,936,879
5045,945,886
5046,954,896
5047,960,910
5048,969,925
5049,976,936
5050,976,945
5051,977,953
5052,977,958
5053,977,963
5054,984,971
5055,990,976
5056,990,980
5057,990,979
5058,987,981
5059,989,986
5060,991,993
5061,994,996
5062,995,998
5063,994,1002
5064,993,1005
5065,993,1011
5066,1002,1018
5067,1006,1021
5068,1006,1025
5069,1007,1027
5070,1007,1027
5071,1010,1031
5072,1014,1035
5073,1016,1037
5074,1016,1036
5075,1017,1034
5076,1017,1033
5077,1016,1036
5078,1018,1037
5079,1021,1040
5080,1021,1040
5081,1020,1037
5082,1018,1037
5083,1019,1041
5084,1021,1043
5085,1025,1044
5086,1025,1044
5087,1027,1042
5088,1027,1040
5089,1025,1044
5090,1027,1049
5091,1032,1049
5092,1029,1048
5093,1029,1046
5094,1026,1048
5095,1028,1052
5096,1032,1052
5097,1033,1055
5098,1035,1055
5099,1035,1056
5100,1033,1055
5101,1033,1058
5102,1036,1063
5103,1038,1064
5104,1038,1064
5105,1037,1064
5106,1037,1065
5107,1038,1068
5108,1041,1070
5109,1042,1073
5110,1040,1074
5111,1041,1071
5112,1042,1074
5113,1041,1074
5114,1043,1078
5115,1048,1080
5116,1047,1079
5117,1046,1077
5118,1044,1077
5119,1050,1080
5120,1053,1082
5121,1055,1082
5122,1057,1083
5123,1058,1080
5124,1057,1080
5125,1058,1081
5126,1062,1084
5127,1064,1082
5128,1063,1084
5129,1063,1084
5130,1063,1082
5131,1062,1085
5132,1065,1088
5133,1069,1085
5134,1069,1087
5135,1070,1081
5136,1070,1083
5137,1069,1083
5138,1074,1086
5139,1075,1087
5140,1069,1085
5141,1067,1080
5142,1061,1076
5143,1057,1078
5144,1056,1078
5145,1056,1077
5146,1053,1072
5147,1051,1068
5148,1048,1069
5149,1045,1068
5150,1042,1067
5151,1043,1064
5152,1039,1064
5153,1036,1058
5154,1031,1057
5155,1030,1054
5156,1029,1055
5157,1029,1055
5158,1027,1050
5159,1025,1050
5160,1022,1046
5161,1021,1042
5162,1022,1047
5163,1024,1043
5164,1017,1043
5165,1017,1038
5166,1014,1036
5167,1013,1037
5168,1014,1037
5169,1015,1037
5170,1015,1034
5171,1013,1032
5172,1010,1030
5173,1011,1031
5174,1012,1029
5175,1012,1031
5176,1011,1031
5177,1009,1028
5178,1006,1024
5179,1009,1026
5180,1009,1027
5181,1009,1026
5182,1007,1026
5183,1007,1023
5184,1005,1023
5185,1004,1024
5186,1006,1025
5187,1009,1022
5188,1009,1023
5189,1006,1022
5190,1004,1021
5191,1001,1023
5192,1003,1024
5193,1005,1026
5194,1004,1024
5195,1002,1023
5196,1002,1021
5197,1000,1022
5198,1001,1025
5199,1002,1025
5200,1001,1022
5201,1002,1020
5202,998,1022
5203,997,1025
5204,999,1024
5205,1002,1025
5206,1000,1023
5207,998,1022
5208,997,1021
5209,997,1022
5210,998,1025
5211,999,1023
5212,999,1021
5213,999,1021
5214,996,1021
5215,995,1021
5216,995,1023
5217,998,1024
5218,997,1023
5219,996,1022
5220,994,1020
5221,995,1017
5222,993,1024
5223,996,1021
5224,996,1020
5225,992,1017
5226,988,1016
5227,988,1018
5228,992,1020
5229,993,1020
5230,994,1019
5231,992,1017
5232,990,1014
5233,986,1017
5234,990,1017
5235,990,1017
5236,988,1016
5237,986,1016
5238,986,1013
5239,985,1013
5240,987,1016
5241,990,1015
5242,989,1016
5243,987,1012
5244,984,1012
5245,986,1012
5246,987,1015
5247,987,1017
5248,989,1015
5249,986,1012
5250,984,1011
5251,982,1011
5252,986,1014
5253,987,1016
5254,986,1014
5255,986,1015
5256,985,1012
5257,984,1011
5258,987,1014
5259,988,1015
5260,986,1015
5261,985,1012
5262,982,1011
5263,982,1012
5264,986,1014
5265,988,1015
5266,987,1015
5267,987,1013
5268,985,1011
5269,986,1015
5270,989,1016
5271,989,1016
5272,989,1014
5273,992,1012
5274,995,1014
5275,1000,1016
5276,1016,1023
5277,1051,1033
5278,1127,1055
5279,1211,1115
5280,1205,1174
5281,1124,1165
5282,1056,1105
5283,1038,1066
5284,1042,1054
5285,1045,1052
5286,1039,1046
5287,1031,1042
5288,1030,1042
5289,1030,1041
5290,1034,1038
5291,1030,1032
5292,1029,1026
5293,1026,1022
5294,1025,1016
5295,1027,1014
5296,1024,1008
5297,1018,1005
5298,1012,1001
5299,1011,997
5300,1006,999
5301,1001,996
5302,992,991
5303,982,988
5304,972,981
5305,964,978
5306,954,978
5307,940,976
5308,926,972
5309,911,969
5310,899,966
5311,889,966
5312,878,964
5313,867,961
5314,856,950
5315,852,935
5316,845,927
5317,844,919
5318,840,916
5319,841,910
5320,840,901
5321,837,889
5322,838,880
5323,838,873
5324,842,870
5325,846,864
5326,853,858
5327,860,852
5328,871,848
5329,883,849
5330,895,853
5331,908,859
5332,916,867
5333,925,871
5334,932,882
5335,942,894
5336,949,907
5337,956,918
5338,960,928
5339,964,934
5340,964,942
5341,964,954
5342,969,961
5343,974,965
5344,975,970
5345,976,975
5346,977,976
5347,978,980
5348,983,984
5349,984,988
5350,984,992
5351,982,994
5352,981,997
5353,984,1002
5354,985,1010
5355,988,1015
5356,990,1018
5357,992,1019
5358,993,1022
5359,997,1027
5360,997,1032
5361,1001,1034
5362,1004,1036
5363,1004,1033
5364,1005,1035
5365,1007,1035
5366,1009,1040
5367,1011,1040
5368,1010,1038
5369,1008,1039
5370,1006,1039
5371,1007,1039
5372,1012,1042
5373,1016,1045
5374,1016,1044
5375,1015,1042
5376,1014,1043
5377,1015,1046
5378,1017,1047
5379,1020,1047
5380,1018,1049
5381,1019,1047
5382,1020,1047
5383,1017,1049
5384,1021,1051
5385,1023,1051
5386,1023,1053
5387,1021,1053
5388,1023,1052
5389,1022,1055
5390,1026,1057
5391,1028,1061
5392,1031,1057
5393,1031,1057
5394,1029,1056
5395,1026,1060
5396,1029,1064
5397,1030,1065
5398,1033,1064
5399,1034,1061
5400,1031,1063
5401,1031,1067
5402,1034,1068
5403,1034,1069
5404,1035,1072
5405,1033,1070
5406,1035,1071
5407,1035,1073
5408,1037,1077
5409,1040,1076
5410,1040,1078
5411,1043,1078
5412,1040,1077
5413,1042,1082
5414,1044,1084
5415,1044,1085
5416,1045,1084
5417,1045,1083
5418,1043,1084
5419,1044,1086
5420,1047,1088
5421,1050,1088
5422,1048,1088
5423,1047,1086
5424,1046,1085
5425,1046,1087
5426,1048,1089
5427,1048,1088
5428,1046,1087
5429,1044,1086
5430,1042,1082
5431,1041,1085
5432,1043,1088
5433,1044,1084
5434,1041,1083
5435,1038,1081
5436,1035,1079
5437,1033,1077
5438,1032,1083
5439,1033,1077
5440,1033,1077
5441,1028,1071
5442,1024,1068
5443,1025,1068
5444,1024,1069
5445,1021,1069
5446,1019,1068
5447,1017,1062
5448,1013,1064
5449,1014,1062
5450,1013,1064
5451,1011,1063
5452,1011,1061
5453,1008,1057
5454,1003,1055
5455,1005,1054
5456,1003,1055
5457,1003,1055
5458,1003,1053
5459,1002,1049
5460,1001,1047
5461,1001,1047
5462,1001,1048
5463,1001,1047
5464,1002,1043
5465,1003,1041
5466,1000,1038
5467,1001,1040
5468,1004,1038
5469,1004,1037
5470,1005,1037
5471,1003,1033
5472,1001,1032
5473,1002,1034
5474,1003,1035
5475,1005,1036
5476,1004,1034
5477,1005,1031
5478,1002,1030
5479,1006,1031
5480,1008,1035
5481,1010,1032
5482,1011,1033
5483,1008,1035
5484,1008,1032
5485,1006,1034
5486,1008,1036
5487,1005,1034
5488,1002,1033
5489,999,1029
5490,994,1030
5491,995,1030
5492,996,1034
5493,996,1030
5494,993,1030
5495,991,1029
5496,987,1026
5497,987,1027
5498,986,1029
5499,988,1027
5500,988,1027
5501,986,1025
5502,986,1024
5503,983,1023
5504,986,1025
5505,986,1024
5506,986,1023
5507,984,1021
5508,984,1021
5509,982,1022
5510,986,1023
5511,986,1022
5512,986,1023
5513,983,1020
5514,982,1019
5515,981,1021
5516,981,1023
5517,982,1024
5518,980,1020
5519,979,1019
5520,979,1017
5521,979,1019
5522,979,1020
5523,983,1020
5524,982,1018
5525,981,1015
5526,979,1016
5527,976,1018
5528,978,1018
5529,985,1019
5530,982,1018
5531,978,1016
5532,975,1015
5533,979,1017
5534,979,1018
5535,981,1019
5536,977,1019
5537,978,1018
5538,975,1017
5539,974,1016
5540,976,1019
5541,980,1017
5542,981,1019
5543,981,1015
5544,979,1017
5545,980,1018
5546,982,1020
5547,983,1019
5548,985,1019
5549,983,1016
5550,982,1015
5551,983,1018
5552,984,1022
5553,983,1026
5554,990,1028
5555,993,1027
5556,1001,1029
5557,1018,1035
5558,1036,1043
5559,1055,1047
5560,1074,1053
5561,1090,1056
5562,1107,1054
5563,1134,1055
5564,1170,1061
5565,1205,1062
5566,1226,1062
5567,1227,1061
5568,1251,1066
5569,1328,1121
5570,1360,1166
5571,1311,1115
5572,1223,1025
5573,1156,969
5574,1111,951
5575,1077,949
5576,1040,952
5577,1005,954
5578,978,963
5579,964,969
5580,956,980
5581,952,987
5582,956,996
5583,960,1006
5584,963,1010
5585,962,1010
5586,961,1013
5587,962,1016
5588,964,1018
5589,967,1018
5590,967,1016
5591,964,1013
5592,962,1011
5593,963,1012
5594,962,1014
5595,963,1016
5596,959,1012
5597,957,1010
5598,954,1010
5599,954,1013
5600,957,1013
5601,957,1013
5602,954,1009
5603,952,1007
5604,948,1006
5605,948,1007
5606,949,1008
5607,950,1009
5608,947,1007
5609,945,1005
5610,944,1002
5611,942,1003
5612,943,1006
5613,943,1004
5614,941,1005
5615,938,1002
5616,935,999
5617,935,1000
5618,937,1001
5619,935,1000
5620,934,999
5621,932,998
5622,928,997
5623,930,998
5624,931,998
5625,933,999
5626,934,998
5627,929,994
5628,927,994
5629,924,996
5630,925,996
5631,926,996
5632,924,992
5633,921,991
5634,918,989
5635,920,991
5636,917,991
5637,920,990
5638,921,989
5639,918,989
5640,915,987
5641,916,991
5642,918,993
5643,920,992
5644,918,991
5645,918,988
5646,915,987
5647,915,990
5648,919,991
5649,921,991
5650,919,992
5651,918,990
5652,917,989
5653,915,990
5654,918,991
5655,919,994
5656,923,991
5657,925,992
5658,924,990
5659,926,993
5660,929,996
5661,930,996
5662,930,997
5663,930,997
5664,930,996
5665,931,997
5666,935,1003
5667,938,1004
5668,943,1002
5669,942,1004
5670,945,1003
5671,950,1008
5672,952,1013
5673,955,1014
5674,958,1014
5675,960,1013
5676,960,1013
5677,963,1016
5678,966,1021
5679,966,1023
5680,972,1021
5681,974,1020
5682,973,1022
5683,979,1025
5684,980,1027
5685,983,1028
5686,983,1027
5687,983,1026
5688,978,1023
5689,980,1025
5690,985,1029
5691,988,1030
5692,987,1029
5693,984,1027
5694,983,1026
5695,983,1029
5696,987,1029
5697,986,1031
5698,986,1030
5699,986,1027
5700,983,1025
5701,981,1028
5702,985,1029
5703,988,1030
5704,987,1028
5705,985,1025
5706,980,1024
5707,979,1028
5708,982,1028
5709,983,1027
5710,986,1027
5711,982,1023
5712,981,1024
5713,979,1023
5714,980,1025
5715,979,1026
5716,977,1025
5717,977,1023
5718,976,1021
5719,978,1023
5720,980,1024
5721,981,1024
5722,981,1022
5723,980,1020
5724,974,1020
5725,977,1022
5726,976,1023
5727,978,1021
5728,977,1023
5729,975,1020
5730,971,1021
5731,970,1021
5732,971,1023
5733,969,1021
5734,971,1022
5735,972,1020
5736,973,1022
5737,975,1023
5738,974,1024
5739,973,1024
5740,970,1022
5741,971,1022
5742,970,1020
5743,973,1022
5744,976,1025
5745,976,1025
5746,974,1025
5747,972,1023
5748,969,1021
5749,971,1023
5750,974,1025
5751,978,1023
5752,978,1022
5753,976,1019
5754,976,1020
5755,975,1022
5756,977,1025
5757,976,1023
5758,974,1022
5759,971,1022
5760,970,1020
5761,973,1023
5762,978,1024
5763,979,1023
5764,978,1023
5765,977,1020
5766,972,1018
5767,971,1021
5768,973,1023
5769,974,1023
5770,980,1021
5771,982,1018
5772,981,1018
5773,977,1019
5774,977,1021
5775,975,1021
5776,977,1022
5777,973,1018
5778,971,1019
5779,972,1023
5780,974,1025
5781,977,1027
5782,978,1024
5783,973,1022
5784,972,1023
5785,970,1025
5786,970,1026
5787,974,1029
5788,973,1026
5789,971,1023
5790,970,1023
5791,971,1023
5792,973,1023
5793,974,1020
5794,974,1020
5795,973,1019
5796,971,1018
5797,975,1019
5798,978,1022
5799,982,1020
5800,984,1018
5801,985,1016
5802,981,1015
5803,976,1018
5804,978,1020
5805,977,1020
5806,983,1017
5807,983,1016
5808,984,1016
5809,986,1018
5810,987,1021
5811,989,1022
5812,989,1022
5813,984,1017
5814,980,1015
5815,980,1018
5816,984,1018
5817,989,1017
5818,988,1018
5819,984,1012
5820,977,1011
5821,973,1013
5822,972,1016
5823,974,1014
5824,976,1015
5825,977,1012
5826,975,1010
5827,975,1013
5828,972,1015
5829,972,1014
5830,971,1012
5831,970,1008
5832,968,1010
5833,969,1010
5834,976,1013
5835,978,1014
5836,978,1012
5837,974,1011
5838,971,1011
5839,976,1012
5840,978,1016
5841,980,1016
5842,980,1016
5843,982,1015
5844,986,1015
5845,995,1019
5846,1016,1025
5847,1071,1032
5848,1166,1077
5849,1199,1147
5850,1133,1156
5851,1055,1104
5852,1025,1064
5853,1033,1053
5854,1038,1052
5855,1037,1049
5856,1028,1044
5857,1030,1043
5858,1033,1046
5859,1036,1045
5860,1039,1042
5861,1044,1037
5862,1052,1035
5863,1070,1034
5864,1087,1034
5865,1102,1038
5866,1115,1040
5867,1122,1040
5868,1130,1041
5869,1141,1038
5870,1158,1034
5871,1177,1030
5872,1197,1027
5873,1214,1028
5874,1225,1031
5875,1224,1028
5876,1202,1018
5877,1166,998
5878,1128,973
5879,1088,954
5880,1049,945
5881,1013,941
5882,978,943
5883,948,946
5884,926,950
5885,913,956
5886,913,966
5887,920,974
5888,926,986
5889,929,993
5890,930,998
5891,930,999
5892,931,1003
5893,933,1006
5894,936,1008
5895,939,1010
5896,939,1011
5897,937,1009
5898,933,1010
5899,935,1011
5900,938,1011
5901,942,1010
5902,936,1008
5903,935,1007
5904,932,1006
5905,934,1010
5906,937,1010
5907,937,1013
5908,936,1009
5909,935,1007
5910,935,1006
5911,933,1007
5912,933,1010
5913,936,1010
5914,933,1007
5915,934,1006
5916,931,1005
5917,930,1007
5918,932,1007
5919,932,1008
5920,932,1005
5921,929,1005
5922,928,1004
5923,929,1003
5924,928,1005
5925,931,1003
5926,930,1003
5927,927,1002
5928,925,1003
5929,927,1003
5930,927,1004
5931,928,1005
5932,928,1004
5933,926,1002
5934,925,1003
5935,924,1003
5936,926,1006
5937,926,1006
5938,924,1005
5939,927,1002
5940,922,1003
5941,926,1003
5942,928,1008
5943,929,1007
5944,929,1007
5945,929,1003
5946,927,1003
5947,928,1008
5948,930,1010
5949,931,1010
5950,930,1009
5951,928,1009
5952,929,1008
5953,930,1010
5954,933,1013
5955,934,1011
5956,935,1012
5957,934,1009
5958,935,1012
5959,933,1013
5960,937,1016
5961,939,1016
5962,943,1016
5963,941,1015
5964,940,1018
5965,942,1018
5966,945,1022
5967,947,1022
5968,948,1020
5969,951,1020
5970,951,1024
5971,954,1025
5972,955,1027
5973,960,1026
5974,962,1027
5975,962,1025
5976,964,1026
5977,968,1030
5978,972,1035
5979,975,1030
5980,977,1034
5981,976,1033
5982,977,1031
5983,979,1036
5984,982,1037
5985,985,1036
5986,986,1036
5987,985,1035
5988,988,1034
5989,987,1035
5990,988,1040
5991,992,1038
5992,992,1038
5993,989,1034
5994,986,1034
5995,987,1035
5996,988,1037
5997,991,1038
5998,992,1037
5999,992,1034
6000,989,1034
6001,991,1036
6002,991,1037
6003,991,1035
6004,989,1034
6005,988,1032
6006,986,1031
6007,987,1032
6008,986,1033
6009,986,1033
6010,988,1032
6011,986,1030
6012,983,1030
6013,984,1030
6014,984,1031
6015,984,1031
6016,984,1031
6017,982,1029
6018,980,1029
6019,980,1029
6020,982,1031
6021,983,1033
6022,983,1031
6023,980,1027
6024,978,1025
6025,978,1028
6026,978,1031
6027,980,1028
6028,980,1026
6029,977,1026
6030,976,1026
6031,975,1025
6032,974,1028
6033,976,1028
6034,976,1028
6035,975,1024
6036,972,1023
6037,974,1024
6038,975,1027
6039,976,1027
6040,976,1026
6041,971,1025
6042,971,1022
6043,969,1024
6044,973,1027
6045,974,1024
6046,973,1025
6047,968,1023
6048,969,1024
6049,970,1026
6050,971,1027
6051,973,1026
6052,972,1025
6053,973,1023
6054,970,1024
6055,972,1023
6056,974,1027
6057,974,1026
6058,974,1025
6059,973,1023
6060,973,1023
6061,974,1026
6062,976,1027
6063,979,1029
6064,977,1025
6065,977,1025
6066,974,1024
6067,976,1026
6068,978,1028
6069,980,1027
6070,979,1026
6071,978,1024
6072,974,1023
6073,976,1025
6074,980,1029
6075,983,1027
6076,982,1028
6077,980,1025
6078,975,1027
6079,978,1025
6080,981,1026
6081,981,1025
6082,982,1023
6083,980,1023
6084,976,1023
6085,979,1026
6086,982,1027
6087,983,1026
6088,981,1023
6089,980,1021
6090,979,1021
6091,978,1022
6092,981,1025
6093,980,1024
6094,979,1022
6095,978,1018
6096,978,1022
6097,978,1021
6098,978,1025
6099,980,1023
6100,980,1019
6101,977,1019
6102,977,1020
6103,976,1022
6104,981,1024
6105,979,1024
6106,981,1023
6107,977,1019
6108,974,1023
6109,975,1024
6110,977,1028
6111,979,1025
6112,980,1026
6113,977,1026
6114,975,1026
6115,976,1027
6116,977,1029
6117,980,1029
6118,979,1030
6119,976,1027
6120,973,1025
6121,977,1025
6122,979,1025
6123,980,1024
6124,981,1024
6125,979,1020
6126,979,1018
6127,981,1018
6128,984,1022
6129,986,1022
6130,988,1022
6131,987,1018
6132,988,1017
6133,989,1020
6134,991,1026
6135,999,1024
6136,1003,1026
6137,1013,1025
6138,1033,1028
6139,1088,1037
6140,1179,1067
6141,1237,1136
6142,1193,1182
6143,1109,1150
6144,1060,1094
6145,1056,1067
6146,1063,1066
6147,1063,1062
6148,1053,1056
6149,1045,1048
6150,1038,1043
6151,1039,1044
6152,1037,1043
6153,1039,1037
6154,1039,1032
6155,1037,1028
6156,1033,1022
6157,1031,1018
6158,1034,1014
6159,1034,1010
6160,1031,1009
6161,1029,1003
6162,1025,1003
6163,1023,1002
6164,1020,1001
6165,1014,997
6166,1007,993
6167,999,987
6168,989,985
6169,983,982
6170,972,984
6171,955,981
6172,937,978
6173,925,974
6174,915,972
6175,907,973
6176,900,973
6177,889,969
6178,878,965
6179,866,953
6180,861,944
6181,856,937
6182,853,930
6183,853,923
6184,852,916
6185,849,911
6186,845,907
6187,847,902
6188,851,896
6189,849,893
6190,851,887
6191,851,880
6192,855,874
6193,863,870
6194,871,865
6195,882,858
6196,891,856
6197,899,856
6198,903,862
6199,913,869
6200,924,879
6201,934,882
6202,941,893
6203,947,902
6204,951,912
6205,955,922
6206,962,934
6207,968,943
6208,968,950
6209,966,958
6210,965,963
6211,969,971
6212,975,977
6213,979,981
6214,979,985
6215,980,986
6216,977,988
6217,979,992
6218,980,995
6219,980,1000
6220,981,1001
6221,978,1002
6222,977,1006
6223,978,1012
6224,982,1015
6225,988,1021
6226,990,1022
6227,994,1026
6228,991,1029
6229,996,1033
6230,1000,1037
6231,1003,1039
6232,1003,1035
6233,1005,1035
6234,1005,1036
6235,1005,1039
6236,1008,1041
6237,1013,1038
6238,1009,1039
6239,1008,1037
6240,1009,1039
6241,1008,1041
6242,1011,1042
6243,1015,1042
6244,1015,1042
6245,1014,1041
6246,1014,1041
6247,1017,1043
6248,1016,1047
6249,1018,1047
6250,1021,1046
6251,1020,1043
6252,1017,1044
6253,1019,1048
6254,1020,1050
6255,1024,1049
6256,1025,1049
6257,1025,1048
6258,1021,1051
6259,1023,1054
6260,1025,1056
6261,1026,1056
6262,1028,1057
6263,1026,1054
6264,1025,1054
6265,1026,1058
6266,1029,1060
6267,1030,1060
6268,1030,1059
6269,1030,1060
6270,1029,1061
6271,1030,1063
6272,1034,1064
6273,1035,1065
6274,1034,1064
6275,1032,1066
6276,1032,1068
6277,1034,1067
6278,1035,1069
6279,1037,1068
6280,1037,1069
6281,1035,1068
6282,1035,1070
6283,1037,1070
6284,1038,1075
6285,1041,1075
6286,1040,1075
6287,1038,1072
6288,1038,1074
6289,1039,1076
6290,1041,1078
6291,1040,1076
6292,1043,1075
6293,1040,1072
6294,1038,1073
6295,1038,1075
6296,1038,1074
6297,1041,1075
6298,1040,1075
6299,1037,1072
6300,1033,1071
6301,1034,1072
6302,1035,1072
6303,1037,1070
6304,1034,1071
6305,1032,1066
6306,1024,1067
6307,1028,1067
6308,1026,1068
6309,1029,1068
6310,1025,1064
6311,1023,1063
6312,1019,1059
6313,1019,1061
6314,1017,1062
6315,1017,1059
6316,1017,1057
6317,1012,1055
6318,1007,1053
6319,1007,1052
6320,1007,1053
6321,1007,1052
6322,1008,1050
6323,1005,1046
6324,1002,1044
6325,1000,1046
6326,999,1044
6327,1001,1043
6328,997,1039
6329,997,1039
6330,994,1036
6331,993,1036
6332,994,1038
6333,993,1037
6334,997,1032
6335,993,1032
6336,990,1029
6337,987,1029
6338,991,1032
6339,989,1030
6340,989,1029
6341,992,1024
6342,987,1026
6343,987,1027
6344,988,1027
6345,992,1028
6346,988,1028
6347,986,1023
6348,986,1024
6349,983,1022
6350,988,1027
6351,989,1026
6352,987,1024
6353,987,1021
6354,983,1022
6355,986,1025
6356,986,1026
6357,988,1024
6358,986,1025
6359,987,1020
6360,983,1019
6361,986,1022
6362,987,1023
6363,988,1023
6364,987,1020
6365,988,1019
6366,981,1020
6367,986,1021
6368,986,1022
6369,988,1021
6370,987,1022
6371,984,1019
6372,982,1020
6373,984,1021
6374,984,1021
6375,987,1022
6376,986,1022
6377,984,1020
6378,983,1020
6379,985,1020
6380,985,1022
6381,987,1022
6382,987,1023
6383,985,1017
6384,983,1018
6385,983,1020
6386,984,1023
6387,984,1022
6388,986,1020
6389,984,1019
6390,982,1020
6391,983,1020
6392,983,1021
6393,983,1021
6394,983,1018
6395,980,1019
6396,980,1016
6397,982,1017
6398,984,1022
6399,983,1020
6400,981,1018
6401,981,1016
6402,978,1015
6403,979,1016
6404,980,1018
6405,981,1016
6406,981,1018
6407,976,1013
6408,973,1016
6409,974,1015
6410,977,1018
6411,978,1017
6412,976,1016
6413,976,1016
6414,973,1013
6415,974,1015
6416,976,1018
6417,978,1017
6418,976,1014
6419,974,1012
6420,972,1012
6421,973,1012
6422,975,1015
6423,976,1015
6424,977,1013
6425,974,1011
6426,973,1012
6427,973,1012
6428,973,1014
6429,980,1017
6430,975,1016
6431,973,1011
6432,974,1012
6433,973,1012
6434,977,1015
6435,977,1015
6436,975,1015
6437,974,1011
6438,974,1014
6439,975,1014
6440,977,1016
6441,981,1018
6442,981,1016
6443,981,1016
6444,982,1014
6445,991,1020
6446,1005,1023
6447,1043,1033
6448,1130,1074
6449,1198,1146
6450,1158,1177
6451,1078,1137
6452,1031,1084
6453,1031,1060
6454,1036,1057
6455,1034,1053
6456,1027,1048
6457,1023,1045
6458,1023,1047
6459,1023,1044
6460,1023,1043
6461,1023,1038
6462,1019,1035
6463,1018,1031
6464,1018,1027
6465,1019,1023
6466,1017,1019
6467,1015,1013
6468,1010,1012
6469,1010,1014
6470,1004,1012
6471,1001,1007
6472,992,1002
6473,984,995
6474,976,990
6475,970,988
6476,964,987
6477,951,983
6478,934,982
6479,919,977
6480,907,975
6481,896,974
6482,886,972
6483,875,968
6484,865,962
6485,855,952
6486,847,943
6487,844,935
6488,845,927
6489,844,921
6490,845,917
6491,840,909
6492,840,899
6493,836,894
6494,840,892
6495,844,882
6496,844,874
6497,842,865
6498,847,861
6499,856,854
6500,864,853
6501,875,848
6502,884,851
6503,890,855
6504,895,863
6505,904,872
6506,918,880
6507,928,891
6508,935,898
6509,939,905
6510,941,919
6511,948,930
6512,954,937
6513,957,948
6514,959,951
6515,958,957
6516,958,962
6517,958,968
6518,965,974
6519,968,978
6520,970,982
6521,969,980
6522,968,983
6523,968,988
6524,970,996
6525,971,997
6526,971,1000
6527,969,1000
6528,966,1004
6529,971,1009
6530,974,1017
6531,980,1019
6532,981,1021
6533,982,1023
6534,980,1026
6535,982,1030
6536,985,1035
6537,990,1034
6538,992,1033
6539,993,1030
6540,993,1033
6541,993,1036
6542,995,1038
6543,996,1036
6544,998,1034
6545,996,1034
6546,996,1034
6547,995,1038
6548,996,1039
6549,1000,1040
6550,1001,1039
6551,999,1039
6552,998,1038
6553,1000,1041
6554,1002,1046
6555,1003,1044
6556,1004,1043
6557,1003,1043
6558,1003,1043
6559,1002,1046
6560,1006,1049
6561,1008,1047
6562,1007,1046
6563,1005,1048
6564,1004,1047
6565,1007,1051
6566,1009,1052
6567,1009,1051
6568,1012,1052
6569,1008,1051
6570,1009,1052
6571,1008,1056
6572,1010,1057
6573,1014,1056
6574,1013,1058
6575,1013,1055
6576,1010,1059
6577,1013,1060
6578,1015,1065
6579,1015,1065
6580,1016,1062
6581,1015,1063
6582,1013,1062
6583,1014,1065
6584,1016,1067
6585,1018,1067
6586,1019,1069
6587,1016,1069
6588,1015,1068
6589,1015,1071
6590,1019,1075
6591,1022,1071
6592,1023,1075
6593,1022,1074
6594,1018,1074
6595,1021,1075
6596,1021,1080
6597,1022,1079
6598,1023,1077
6599,1024,1074
6600,1022,1075
6601,1022,1076
6602,1024,1079
6603,1027,1076
6604,1024,1076
6605,1023,1073
6606,1020,1073
6607,1022,1074
6608,1021,1076
6609,1022,1074
6610,1023,1074
6611,1020,1070
6612,1017,1070
6613,1016,1069
6614,1017,1073
6615,1017,1068
6616,1015,1065
6617,1013,1063
6618,1008,1062
6619,1009,1062
6620,1007,1062
6621,1006,1059
6622,1003,1054
6623,1001,1053
6624,999,1052
6625,998,1051
6626,997,1051
6627,999,1047
6628,997,1046
6629,995,1043
6630,994,1041
6631,992,1040
6632,993,1040
6633,993,1041
6634,993,1039
6635,991,1036
6636,988,1034
6637,988,1033
6638,988,1036
6639,989,1032
6640,989,1032
6641,986,1029
6642,984,1027
6643,985,1029
6644,987,1030
6645,987,1029
6646,986,1026
6647,986,1026
6648,981,1024
6649,984,1028
6650,984,1030
6651,986,1030
6652,986,1031
6653,982,1024
6654,981,1023
6655,982,1024
6656,983,1026
6657,985,1024
6658,983,1024
6659,980,1022
6660,979,1024
6661,980,1028
6662,979,1029
6663,981,1029
6664,980,1026
6665,978,1021
6666,976,1020
6667,977,1021
6668,978,1022
6669,977,1021
6670,978,1022
6671,974,1021
6672,971,1020
6673,973,1022
6674,975,1026
6675,975,1028
6676,975,1032
6677,973,1036
6678,971,1031
6679,972,1027
6680,975,1018
6681,974,1014
6682,973,1012
6683,971,1013
6684,968,1016
6685,972,1015
6686,969,1016
6687,973,1017
6688,969,1015
6689,969,1011
6690,967,1013
6691,965,1014
6692,967,1016
6693,968,1016
6694,968,1017
6695,964,1011
6696,963,1013
6697,964,1013
6698,965,1013
6699,966,1014
6700,965,1013
6701,965,1010
6702,961,1008
6703,961,1011
6704,961,1014
6705,964,1012
6706,965,1011
6707,963,1010
6708,962,1008
6709,962,1009
6710,964,1011
6711,965,1010
6712,963,1009
6713,961,1006
6714,959,1007
6715,960,1010
6716,961,1009
6717,963,1009
6718,963,1010
6719,962,1007
6720,960,1007
6721,961,1007
6722,963,1011
6723,966,1011
6724,964,1009
6725,964,1006
6726,962,1006
6727,963,1008
6728,965,1012
6729,966,1007
6730,965,1010
6731,965,1007
6732,964,1006
6733,965,1009
6734,968,1011
6735,969,1010
6736,970,1009
6737,971,1010
6738,970,1011
6739,982,1016
6740,999,1020
6741,1048,1040
6742,1138,1092
6743,1188,1163
6744,1137,1175
6745,1057,1120
6746,1022,1073
6747,1023,1055
6748,1028,1049
6749,1024,1045
6750,1016,1042
6751,1012,1042
6752,1010,1044
6753,1013,1039
6754,1014,1030
6755,1013,1023
6756,1009,1016
6757,1009,1014
6758,1009,1012
6759,1010,1005
6760,1007,1004
6761,1004,999
6762,998,994
6763,997,996
6764,994,994
6765,989,991
6766,982,986
6767,975,981
6768,964,978
6769,958,976
6770,948,977
6771,937,971
6772,917,969
6773,899,963
6774,885,962
6775,878,961
6776,869,962
6777,861,957
6778,848,951
6779,835,942
6780,827,931
6781,821,922
6782,821,916
6783,822,914
6784,819,910
6785,817,905
6786,813,897
6787,814,884
6788,816,874
6789,815,864
6790,819,857
6791,821,855
6792,825,847
6793,833,843
6794,842,842
6795,853,839
6796,867,840
6797,874,847
6798,880,857
6799,892,866
6800,903,878
6801,914,889
6802,923,899
6803,929,908
6804,930,921
6805,937,933
6806,942,944
6807,945,952
6808,947,954
6809,949,958
6810,949,962
6811,953,968
6812,958,974
6813,965,976
6814,967,979
6815,966,978
6816,966,981
6817,968,986
6818,970,992
6819,971,995
6820,973,997
6821,973,1001
6822,974,1006
6823,978,1012
6824,981,1020
6825,985,1023
6826,988,1024
6827,989,1025
6828,991,1028
6829,997,1029
6830,1000,1033
6831,1003,1032
6832,1006,1032
6833,1001,1031
6834,1000,1029
6835,999,1033
6836,998,1034
6837,999,1033
6838,1000,1031
6839,998,1030
6840,995,1031
6841,995,1033
6842,998,1034
6843,999,1036
6844,998,1033
6845,996,1032
6846,994,1033
6847,997,1037
6848,998,1038
6849,1001,1039
6850,1000,1038
6851,999,1038
6852,997,1039
6853,1002,1043
6854,1001,1044
6855,1004,1043
6856,1004,1043
6857,1002,1045
6858,1000,1044
6859,1004,1047
6860,1005,1047
6861,1008,1048
6862,1007,1049
6863,1007,1048
6864,1004,1049
6865,1007,1052
6866,1010,1052
6867,1012,1051
6868,1014,1054
6869,1010,1055
6870,1009,1058
6871,1010,1059
6872,1012,1062
6873,1013,1060
6874,1016,1064
6875,1017,1064
6876,1015,1064
6877,1015,1067
6878,1019,1071
6879,1019,1069
6880,1019,1070
6881,1018,1068
6882,1015,1070
6883,1018,1071
6884,1021,1076
6885,1024,1074
6886,1021,1074
6887,1022,1073
6888,1019,1073
6889,1020,1075
6890,1023,1076
6891,1022,1075
6892,1020,1073
6893,1019,1069
6894,1014,1068
6895,1017,1070
6896,1018,1071
6897,1018,1069
6898,1016,1069
6899,1013,1066
6900,1010,1064
6901,1008,1066
6902,1007,1065
6903,1012,1062
6904,1009,1058
6905,1008,1055
6906,1003,1053
6907,1003,1057
6908,1001,1054
6909,1003,1050
6910,998,1049
6911,995,1046
6912,992,1045
6913,995,1047
6914,996,1042
6915,994,1042
6916,990,1039
6917,988,1036
6918,986,1035
6919,985,1037
6920,987,1037
6921,986,1039
6922,982,1035
6923,979,1029
6924,976,1025
6925,977,1025
6926,977,1025
6927,979,1023
6928,980,1023
6929,978,1021
6930,975,1024
6931,974,1022
6932,976,1023
6933,977,1023
6934,976,1020
6935,975,1021
6936,973,1019
6937,972,1021
6938,971,1021
6939,973,1019
6940,973,1021
6941,973,1019
6942,969,1018
6943,969,1019
6944,969,1020
6945,972,1020
6946,970,1019
6947,968,1017
6948,967,1019
6949,966,1020
6950,967,1021
6951,969,1019
6952,969,1019
6953,969,1019
6954,964,1016
6955,967,1018
6956,969,1019
6957,966,1018
6958,966,1017
6959,967,1016
6960,964,1016
6961,966,1019
6962,965,1019
6963,967,1020
6964,964,1016
6965,959,1014
6966,959,1015
6967,960,1017
6968,962,1019
6969,966,1019
6970,964,1016
6971,964,1012
6972,959,1014
6973,959,1017
6974,961,1019
6975,961,1017
6976,961,1013
6977,960,1012
6978,957,1011
6979,955,1015
6980,957,1018
6981,957,1013
6982,958,1011
6983,955,1010
6984,954,1010
6985,954,1014
6986,955,1013
6987,955,1015
6988,954,1010
6989,954,1010
6990,952,1013
6991,950,1013
6992,951,1016
6993,953,1011
6994,953,1011
6995,951,1008
6996,947,1009
6997,949,1006
6998,951,1009
6999,952,1009
7000,953,1009
7001,947,1005
7002,946,1008
7003,947,1007
7004,946,1009
7005,949,1010
7006,947,1008
7007,946,1007
7008,944,1006
7009,947,1007
7010,950,1008
7011,952,1009
7012,952,1005
7013,949,1008
7014,944,1004
7015,943,1006
7016,945,1009
7017,948,1008
7018,949,1007
7019,950,1006
7020,950,1005
7021,951,1005
7022,952,1008
7023,948,1007
7024,947,1006
7025,946,1004
7026,944,1002
7027,945,1006
7028,948,1009
7029,951,1008
7030,953,1007
7031,954,1005
7032,950,1007
7033,953,1008
7034,959,1010
7035,965,1012
7036,972,1012
7037,993,1017
7038,1036,1029
7039,1123,1076
7040,1189,1148
7041,1159,1183
7042,1069,1141
7043,1016,1082
7044,1001,1055
7045,1009,1052
7046,1010,1053
7047,1006,1046
7048,1002,1038
7049,995,1035
7050,992,1034
7051,994,1030
7052,996,1030
7053,998,1023
7054,997,1018
7055,995,1009
7056,990,1005
7057,989,999
7058,987,996
7059,985,991
7060,983,987
7061,981,983
7062,974,979
7063,970,979
7064,962,978
7065,956,971
7066,947,968
7067,939,960
7068,927,955
7069,909,953
7070,892,954
7071,877,950
7072,864,949
7073,853,945
7074,841,946
7075,829,943
7076,821,943
7077,813,934
7078,809,924
7079,808,914
7080,800,906
7081,797,900
7082,795,900
7083,795,896
7084,794,890
7085,794,883
7086,793,876
7087,795,872
7088,798,872
7089,804,865
7090,809,856
7091,816,850
7092,826,844
7093,837,844
7094,848,850
7095,858,854
7096,866,859
7097,876,867
7098,886,876
7099,895,890
7100,904,904
7101,910,915
7102,913,925
7103,919,937
7104,924,945
7105,929,957
7106,932,969
7107,931,976
7108,929,980
7109,932,981
7110,935,984
7111,939,993
7112,942,1004
7113,943,1016
7114,939,1028
7115,937,1032
7116,937,1016
7117,940,1006
7118,941,1002
7119,947,1008
7120,950,1014
7121,952,1019
7122,951,1023
7123,952,1029
7124,956,1032
7125,963,1035
7126,965,1036
7127,965,1038
7128,962,1038
7129,966,1039
7130,972,1042
7131,975,1041
7132,972,1041
7133,970,1039
7134,969,1042
7135,971,1047
7136,974,1050
7137,972,1048
7138,972,1048
7139,967,1047
7140,973,1049
7141,978,1053
7142,975,1057
7143,978,1060
7144,979,1059
7145,976,1060
7146,977,1058
7147,979,1061
7148,982,1064
7149,983,1064
7150,982,1066
7151,979,1066
7152,982,1071
7153,983,1072
7154,987,1069
7155,988,1070
7156,986,1066
7157,989,1068
7158,994,1071
7159,992,1073
7160,991,1073
7161,995,1074
7162,999,1074
7163,1001,1071
7164,998,1073
7165,999,1079
7166,1003,1083
7167,1006,1085
7168,1006,1088
7169,1005,1089
7170,1005,1093
7171,1012,1097
7172,1016,1102
7173,1025,1101
7174,1027,1105
7175,1027,1099
7176,1023,1091
7177,1023,1084
7178,1020,1081
7179,1016,1082
7180,1013,1084
7181,1012,1085
7182,1012,1086
7183,1012,1086
7184,1013,1086
7185,1009,1084
7186,999,1086
7187,999,1084
7188,998,1080
7189,1002,1078
7190,1003,1075
7191,1002,1073
7192,1000,1072
7193,1000,1071
7194,998,1068
7195,999,1069
7196,995,1068
7197,992,1065
7198,991,1064
7199,987,1063
7200,987,1058
7201,990,1057
7202,986,1056
7203,985,1053
7204,982,1050
7205,976,1046
7206,977,1047
7207,976,1049
7208,980,1057
7209,980,1058
7210,977,1055
7211,974,1048
7212,969,1040
7213,971,1036
7214,974,1035
7215,974,1031
7216,974,1028
7217,974,1024
7218,971,1026
7219,974,1026
7220,973,1029
7221,977,1030
7222,975,1032
7223,971,1032
7224,971,1027
7225,971,1022
7226,973,1023
7227,974,1026
7228,971,1019
7229,970,1020
7230,971,1020
7231,973,1025
7232,975,1030
7233,977,1028
7234,974,1023
7235,972,1021
7236,970,1016
7237,969,1016
7238,969,1015
7239,966,1014
7240,970,1013
7241,971,1011
7242,968,1013
7243,967,1018
7244,970,1020
7245,972,1017
7246,970,1016
7247,966,1014
7248,961,1015
7249,961,1017
7250,963,1020
7251,966,1020
7252,966,1017
7253,962,1016
7254,961,1018
7255,963,1019
7256,965,1021
7257,968,1016
7258,963,1017
7259,962,1016
7260,962,1017
7261,960,1018
7262,962,1018
7263,962,1016
7264,960,1012
7265,960,1012
7266,960,1014
7267,962,1015
7268,963,1020
7269,961,1017
7270,960,1014
7271,957,1010
7272,956,1009
7273,957,1011
7274,959,1015
7275,962,1015
7276,961,1013
7277,955,1011
7278,949,1011
7279,950,1011
7280,953,1013
7281,955,1011
7282,954,1008
7283,951,1008
7284,951,1011
7285,951,1013
7286,958,1011
7287,959,1009
7288,957,1008
7289,956,1008
7290,952,1009
7291,954,1011
7292,955,1012
7293,961,1012
7294,960,1010
7295,959,1008
7296,953,1008
7297,954,1008
7298,952,1010
7299,950,1012
7300,948,1008
7301,945,1004
7302,944,1003
7303,945,1007
7304,947,1011
7305,948,1011
7306,946,1012
7307,943,1009
7308,941,1009
7309,943,1010
7310,949,1014
7311,954,1014
7312,954,1012
7313,949,1012
7314,950,1013
7315,951,1013
7316,953,1015
7317,952,1011
7318,951,1011
7319,952,1013
7320,952,1012
7321,953,1015
7322,950,1016
7323,949,1017
7324,954,1021
7325,956,1019
7326,966,1019
7327,979,1024
7328,1004,1034
7329,1064,1064
7330,1154,1130
7331,1176,1192
7332,1106,1174
7333,1034,1115
7334,1002,1077
7335,1009,1064
7336,1018,1061
7337,1015,1056
7338,1006,1052
7339,1005,1047
7340,1004,1048
7341,1006,1048
7342,1007,1046
7343,1005,1041
7344,1001,1035
7345,1001,1035
7346,997,1029
7347,999,1027
7348,997,1020
7349,993,1010
7350,989,1005
7351,984,1004
7352,980,1000
7353,976,999
7354,969,994
7355,961,989
7356,955,985
7357,944,981
7358,930,983
7359,912,981
7360,896,980
7361,884,975
7362,874,973
7363,867,972
7364,854,970
7365,844,960
7366,835,947
7367,830,935
7368,828,925
7369,835,923
7370,838,921
7371,832,919
7372,820,908
7373,810,897
7374,807,890
7375,815,885
7376,824,881
7377,830,873
7378,839,863
7379,847,857
7380,859,858
7381,870,865
7382,883,879
7383,891,885
7384,902,895
7385,912,904
7386,916,913
7387,924,931
7388,928,945
7389,931,957
7390,931,964
7391,933,974
7392,935,981
7393,943,988
7394,946,994
7395,948,999
7396,950,999
7397,950,1000
7398,949,1000
7399,948,1005
7400,951,1012
7401,949,1017
7402,948,1021
7403,946,1026
7404,946,1029
7405,954,1031
7406,958,1034
7407,962,1034
7408,962,1036
7409,960,1043
7410,963,1041
7411,969,1045
7412,975,1047
7413,977,1048
7414,977,1047
7415,976,1049
7416,974,1049
7417,972,1051
7418,971,1053
7419,974,1055
7420,977,1056
7421,979,1056
7422,977,1058
7423,976,1059
7424,978,1058
7425,977,1058
7426,977,1059
7427,977,1058
7428,978,1058
7429,981,1061
7430,985,1062
7431,983,1063
7432,979,1063
7433,979,1063
7434,977,1067
7435,976,1069
7436,978,1073
7437,981,1070
7438,986,1069
7439,994,1072
7440,996,1075
7441,1003,1078
7442,1000,1080
7443,993,1078
7444,988,1076
7445,987,1078
7446,988,1080
7447,989,1081
7448,997,1084
7449,1002,1085
7450,1002,1084
7451,999,1084
7452,1000,1088
7453,999,1088
7454,995,1093
7455,997,1092
7456,994,1095
7457,994,1095
7458,999,1097
7459,1003,1097
7460,1004,1098
7461,1003,1099
7462,1002,1101
7463,1001,1099
7464,1000,1099
7465,1000,1103
7466,999,1105
7467,996,1105
7468,996,1106
7469,996,1105
7470,998,1103
7471,997,1105
7472,1002,1106
7473,1004,1102
7474,1007,1105
7475,1007,1103
7476,1005,1102
7477,1002,1103
7478,1000,1104
7479,995,1100
7480,991,1098
7481,989,1095
7482,989,1091
7483,988,1092
7484,985,1095
7485,988,1093
7486,987,1091
7487,984,1086
7488,977,1083
7489,979,1087
7490,982,1088
7491,980,1086
7492,975,1083
7493,972,1082
7494,976,1079
7495,978,1085
7496,979,1082
7497,975,1079
7498,970,1080
7499,965,1077
7500,961,1074
7501,967,1077
7502,968,1080
7503,972,1075
7504,970,1073
7505,966,1069
7506,963,1071
7507,965,1072
7508,967,1074
7509,964,1068
7510,962,1063
7511,961,1056
7512,965,1058
7513,968,1059
7514,969,1063
7515,968,1061
7516,964,1061
7517,959,1059
7518,958,1052
7519,959,1054
7520,964,1057
7521,967,1057
7522,969,1059
7523,972,1058
7524,975,1062
7525,974,1064
7526,975,1065
7527,973,1066
7528,969,1062
7529,971,1058
7530,970,1057
7531,968,1054
7532,969,1058
7533,969,1056
7534,967,1055
7535,960,1055
7536,952,1051
7537,952,1055
7538,952,1051
7539,952,1053
7540,953,1051
7541,953,1052
7542,951,1052
7543,949,1054
7544,950,1056
7545,949,1054
7546,946,1050
7547,947,1049
7548,944,1050
7549,946,1050
7550,948,1054
7551,952,1054
7552,957,1053
7553,958,1053
7554,955,1050
7555,948,1054
7556,940,1053
7557,938,1048
7558,938,1051
7559,940,1050
7560,943,1050
7561,947,1050
7562,948,1052
7563,946,1049
7564,943,1050
7565,938,1045
7566,934,1046
7567,929,1050
7568,930,1049
7569,931,1050
7570,933,1050
7571,935,1049
7572,936,1049
7573,943,1053
7574,945,1056
7575,945,1055
7576,942,1055
7577,938,1051
7578,933,1053
7579,935,1054
7580,940,1051
7581,948,1045
7582,947,1041
7583,942,1039
7584,939,1044
7585,937,1048
7586,941,1051
7587,945,1049
7588,945,1047
7589,940,1046
7590,933,1049
7591,932,1051
7592,936,1051
7593,938,1052
7594,939,1053
7595,937,1055
7596,930,1055
7597,930,1056
7598,935,1059
7599,940,1058
7600,944,1057
7601,945,1056
7602,945,1056
7603,944,1061
7604,943,1068
7605,950,1072
7606,966,1075
7607,978,1081
7608,989,1084
7609,1004,1092
7610,1020,1101
7611,1037,1100
7612,1060,1098
7613,1086,1099
7614,1114,1099
7615,1133,1104
7616,1144,1110
7617,1200,1145
7618,1309,1215
7619,1368,1245
7620,1336,1188
7621,1272,1115
7622,1219,1068
7623,1177,1032
7624,1138,1009
7625,1100,990
7626,1059,982
7627,1022,987
7628,985,998
7629,957,1006
7630,937,1017
7631,926,1029
7632,919,1038
7633,915,1046
7634,915,1045
7635,922,1039
7636,921,1041
7637,914,1042
7638,904,1049
7639,904,1056
7640,911,1059
7641,913,1059
7642,912,1058
7643,909,1056
7644,906,1055
7645,909,1057
7646,911,1060
7647,912,1059
7648,911,1058
7649,906,1056
7650,905,1056
7651,909,1058
7652,916,1058
7653,916,1056
7654,911,1056
7655,906,1055
7656,903,1054
7657,902,1053
7658,903,1055
7659,904,1053
7660,903,1049
7661,900,1048
7662,894,1050
7663,890,1051
7664,885,1054
7665,887,1054
7666,887,1052
7667,890,1049
7668,884,1048
7669,882,1050
7670,884,1054
7671,887,1055
7672,887,1054
7673,884,1055
7674,881,1062
7675,881,1066
7676,884,1063
7677,887,1049
7678,885,1040
7679,884,1032
7680,878,1035
7681,874,1047
7682,874,1066
7683,873,1074
7684,871,1061
7685,872,1038
7686,869,1024
7687,866,1025
7688,867,1030
7689,865,1034
7690,868,1032
7691,867,1034
7692,863,1031
7693,861,1035
7694,866,1039
7695,867,1039
7696,872,1038
7697,873,1037
7698,873,1038
7699,870,1037
7700,868,1040
7701,869,1040
7702,870,1037
7703,867,1038
7704,865,1038
7705,869,1041
7706,877,1048
7707,878,1047
7708,880,1043
7709,879,1043
7710,874,1047
7711,873,1048
7712,881,1047
7713,892,1051
7714,899,1056
7715,906,1066
7716,902,1079
7717,898,1079
7718,897,1070
7719,898,1054
7720,902,1050
7721,905,1050
7722,905,1061
7723,902,1069
7724,902,1078
7725,904,1083
7726,906,1087
7727,911,1082
7728,916,1076
7729,923,1068
7730,921,1067
7731,919,1070
7732,917,1073
7733,919,1072
7734,921,1077
7735,922,1080
7736,922,1080
7737,923,1078
7738,928,1077
7739,929,1075
7740,926,1075
7741,930,1079
7742,932,1084
7743,933,1081
7744,933,1079
7745,930,1079
7746,926,1079
7747,927,1081
7748,926,1081
7749,928,1083
7750,928,1083
7751,928,1081
7752,932,1083
7753,934,1081
7754,935,1080
7755,934,1078
7756,929,1080
7757,926,1077
7758,922,1077
7759,924,1077
7760,928,1079
7761,931,1082
7762,929,1088
7763,923,1088
7764,918,1086
7765,917,1080
7766,919,1079
7767,922,1085
7768,919,1089
7769,914,1093
7770,916,1095
7771,917,1095
7772,921,1087
7773,919,1077
7774,922,1072
7775,921,1080
7776,921,1086
7777,921,1082
7778,920,1071
7779,920,1063
7780,919,1063
7781,919,1072
7782,922,1079
7783,930,1081
7784,933,1080
7785,927,1073
7786,920,1071
7787,909,1070
7788,904,1071
7789,904,1074
7790,910,1077
7791,915,1074
7792,917,1075
7793,920,1074
7794,920,1079
7795,923,1079
7796,925,1080
7797,923,1076
7798,923,1072
7799,923,1072
7800,921,1077
7801,920,1080
7802,923,1080
7803,930,1078
7804,927,1076
7805,921,1076
7806,915,1077
7807,912,1077
7808,914,1079
7809,916,1083
7810,920,1084
7811,924,1085
7812,924,1088
7813,921,1086
7814,922,1081
7815,924,1070
7816,927,1067
7817,928,1074
7818,921,1083
7819,917,1088
7820,921,1084
7821,923,1072
7822,925,1064
7823,927,1064
7824,926,1070
7825,926,1075
7826,924,1077
7827,927,1081
7828,929,1081
7829,930,1081
7830,925,1082
7831,925,1075
7832,926,1070
7833,925,1069
7834,924,1070
7835,924,1071
7836,924,1067
7837,924,1071
7838,933,1068
7839,938,1068
7840,940,1068
7841,943,1067
7842,939,1073
7843,942,1081
7844,942,1087
7845,942,1082
7846,943,1077
7847,942,1067
7848,943,1067
7849,947,1074
7850,952,1076
7851,949,1069
7852,940,1063
7853,931,1060
7854,929,1070
7855,935,1080
7856,937,1086
7857,935,1085
7858,932,1075
7859,933,1066
7860,936,1062
7861,940,1060
7862,938,1057
7863,932,1058
7864,929,1056
7865,930,1060
7866,930,1061
7867,931,1060
7868,930,1057
7869,928,1058
7870,929,1056
7871,930,1057
7872,934,1055
7873,938,1056
7874,940,1057
7875,941,1062
7876,941,1065
7877,938,1072
7878,937,1073
7879,932,1068
7880,932,1058
7881,935,1049
7882,938,1045
7883,937,1049
7884,935,1053
7885,935,1055
7886,938,1059
7887,940,1059
7888,936,1057
7889,933,1056
7890,930,1059
7891,931,1062
7892,939,1058
7893,949,1057
7894,951,1057
7895,946,1058
7896,949,1069
7897,966,1080
7898,1009,1089
7899,1098,1100
7900,1186,1157
7901,1173,1195
7902,1085,1158
7903,1011,1106
7904,984,1086
7905,977,1098
7906,976,1105
7907,977,1112
7908,983,1113
7909,997,1106
7910,1014,1100
7911,1033,1098
7912,1052,1103
7913,1065,1103
7914,1074,1094
7915,1088,1089
7916,1110,1091
7917,1128,1102
7918,1149,1109
7919,1173,1107
7920,1195,1102
7921,1210,1092
7922,1210,1076
7923,1193,1050
7924,1164,1023
7925,1121,1003
7926,1075,986
7927,1030,982
7928,994,976
7929,958,975
7930,930,969
7931,907,971
7932,893,983
7933,892,997
7934,902,1017
7935,908,1034
7936,911,1041
7937,911,1042
7938,910,1038
7939,909,1041
7940,911,1043
7941,910,1048
7942,907,1046
7943,907,1043
7944,908,1039
7945,915,1035
7946,920,1037
7947,920,1044
7948,914,1052
7949,903,1053
7950,899,1046
7951,903,1035
7952,911,1025
7953,914,1024
7954,913,1025
7955,914,1029
7956,913,1039
7957,911,1047
7958,905,1052
7959,900,1052
7960,893,1050
7961,894,1041
7962,900,1026
7963,906,1023
7964,907,1026
7965,905,1034
7966,900,1038
7967,894,1037
7968,888,1034
7969,893,1031
7970,897,1030
7971,903,1030
7972,909,1032
7973,909,1033
7974,905,1035
7975,904,1041
7976,898,1038
7977,898,1029
7978,896,1021
7979,891,1024
7980,896,1034
7981,907,1036
7982,917,1027
7983,910,1016
7984,899,1010
7985,890,1017
7986,889,1025
7987,891,1034
7988,891,1038
7989,889,1033
7990,890,1025
7991,896,1020
7992,900,1020
7993,900,1027
7994,902,1038
7995,897,1036
7996,895,1030
7997,897,1027
7998,899,1028
7999,900,1037
8000,905,1051
8001,905,1053
8002,903,1040
8003,909,1019
8004,909,1010
8005,902,1016
8006,895,1027
8007,899,1035
8008,903,1038
8009,905,1042
8010,908,1044
8011,911,1043
8012,910,1036
8013,914,1028
8014,909,1032
8015,912,1044
8016,911,1056
8017,914,1067
8018,919,1063
8019,924,1052
8020,927,1038
8021,929,1036
8022,930,1043
8023,932,1052
8024,933,1055
8025,934,1055
8026,933,1055
8027,933,1058
8028,936,1059
8029,941,1063
8030,944,1064
8031,945,1060
8032,945,1057
8033,944,1055
8034,941,1060
8035,940,1064
8036,944,1067
8037,947,1067
8038,946,1060
8039,945,1050
8040,946,1048
8041,946,1049
8042,947,1053
8043,943,1054
8044,939,1055
8045,939,1055
8046,944,1054
8047,952,1058
8048,951,1064
8049,946,1065
8050,942,1060
8051,940,1051
8052,940,1043
8053,943,1048
8054,945,1055
8055,942,1059
8056,942,1053
8057,945,1039
8058,945,1037
8059,946,1041
8060,945,1042
8061,944,1042
8062,943,1044
8063,945,1050
8064,944,1055
8065,943,1057
8066,948,1054
8067,955,1042
8068,957,1029
8069,949,1019
8070,939,1023
8071,933,1033
8072,929,1039
8073,927,1043
8074,926,1042
8075,927,1044
8076,932,1044
8077,937,1045
8078,937,1045
8079,936,1041
8080,931,1041
8081,925,1035
8082,921,1032
8083,929,1035
8084,931,1040
8085,933,1042
8086,929,1045
8087,919,1045
8088,915,1042
8089,918,1039
8090,921,1036
8091,925,1040
8092,936,1041
8093,942,1042
8094,944,1042
8095,939,1041
8096,932,1041
8097,923,1044
8098,918,1049
8099,920,1050
8100,923,1048
8101,935,1043
8102,944,1035
8103,950,1034
8104,945,1036
8105,940,1044
8106,947,1049
8107,955,1045
8108,949,1044
8109,929,1038
8110,913,1033
8111,907,1034
8112,912,1033
8113,918,1037
8114,923,1035
8115,923,1033
8116,921,1032
8117,918,1033
8118,919,1039
8119,926,1037
8120,930,1032
8121,934,1031
8122,932,1030
8123,930,1032
8124,923,1040
8125,919,1039
8126,921,1037
8127,921,1034
8128,923,1030
8129,922,1030
8130,925,1038
8131,926,1045
8132,926,1053
8133,927,1057
8134,924,1058
8135,919,1050
8136,923,1038
8137,936,1026
8138,948,1022
8139,951,1021
8140,944,1023
8141,929,1024
8142,918,1029
8143,915,1033
8144,919,1035
8145,923,1036
8146,929,1039
8147,935,1038
8148,948,1041
8149,945,1044
8150,933,1038
8151,918,1035
8152,911,1035
8153,915,1043
8154,915,1053
8155,915,1051
8156,915,1037
8157,919,1024
8158,928,1024
8159,928,1031
8160,925,1043
8161,921,1045
8162,918,1040
8163,923,1028
8164,930,1023
8165,932,1025
8166,937,1035
8167,939,1051
8168,935,1057
8169,933,1049
8170,935,1026
8171,935,1008
8172,940,1004
8173,944,1011
8174,943,1029
8175,941,1036
8176,942,1038
8177,940,1038
8178,949,1040
8179,989,1037
8180,1044,1027
8181,1122,1046
8182,1181,1111
8183,1149,1154
8184,1056,1132
8185,992,1087
8186,971,1070
8187,974,1067
8188,978,1063
8189,980,1057
8190,980,1050
8191,984,1051
8192,982,1051
8193,978,1054
8194,969,1059
8195,955,1057
8196,945,1049
8197,955,1035
8198,975,1019
8199,996,1006
8200,1005,999
8201,1005,998
8202,1000,1008
8203,989,1017
8204,972,1026
8205,953,1032
8206,941,1031
8207,940,1017
8208,948,998
8209,958,975
8210,962,958
8211,945,956
8212,916,961
8213,878,970
8214,857,969
8215,842,967
8216,834,963
8217,839,964
8218,859,963
8219,879,963
8220,886,957
8221,874,944
8222,850,931
8223,830,924
8224,820,917
8225,813,917
8226,804,918
8227,799,913
8228,811,899
8229,832,884
8230,853,870
8231,864,870
8232,862,875
8233,861,877
8234,868,876
8235,871,881
8236,864,896
8237,854,906
8238,864,906
8239,900,898
8240,938,888
8241,954,881
8242,944,887
8243,929,905
8244,917,931
8245,912,951
8246,909,974
8247,904,994
8248,893,1005
8249,897,1007
8250,909,1001
8251,932,999
8252,945,993
8253,948,999
8254,945,1011
8255,939,1022
8256,933,1039
8257,923,1060
8258,916,1081
8259,919,1094
8260,940,1083
8261,973,1064
8262,997,1049
8263,996,1051
8264,974,1059
8265,941,1069
8266,924,1074
8267,925,1081
8268,927,1091
8269,926,1110
8270,920,1136
8271,915,1158
8272,923,1157
8273,942,1127
8274,960,1084
8275,969,1046
8276,973,1030
8277,974,1034
8278,965,1047
8279,960,1059
8280,950,1072
8281,935,1083
8282,934,1098
8283,956,1103
8284,985,1096
8285,1004,1070
8286,995,1046
8287,975,1030
8288,955,1034
8289,946,1049
8290,944,1058
8291,937,1067
8292,928,1074
8293,925,1077
8294,940,1072
8295,967,1066
8296,985,1059
8297,983,1048
8298,973,1043
8299,966,1046
8300,959,1051
8301,947,1055
8302,940,1061
8303,941,1066
8304,961,1066
8305,994,1065
8306,1021,1069
8307,1019,1076
8308,995,1079
8309,970,1081
8310,946,1087
8311,936,1097
8312,926,1109
8313,924,1112
8314,947,1097
8315,980,1076
8316,1006,1058
8317,1004,1041
8318,983,1036
8319,957,1048
8320,942,1069
8321,940,1081
8322,948,1090
8323,964,1094
8324,978,1086
8325,976,1075
8326,966,1071
8327,954,1078
8328,950,1087
8329,944,1095
8330,940,1095
8331,946,1095
8332,953,1096
8333,957,1096
8334,962,1090
8335,975,1083
8336,988,1074
8337,999,1068
8338,992,1072
8339,969,1091
8340,942,1118
8341,927,1119
8342,923,1100
8343,940,1071
8344,963,1046
8345,981,1039
8346,989,1046
8347,986,1053
8348,972,1057
8349,955,1058
8350,946,1056
8351,937,1059
8352,930,1063
8353,929,1067
8354,929,1068
8355,931,1075
8356,933,1081
8357,936,1078
8358,932,1073
8359,936,1057
8360,950,1048
8361,965,1050
8362,973,1050
8363,960,1051
8364,937,1055
8365,917,1069
8366,916,1071
8367,937,1065
8368,960,1055
8369,964,1052
8370,944,1046
8371,917,1035
8372,912,1030
8373,924,1030
8374,935,1034
8375,930,1031
8376,936,1025
8377,957,1028
8378,981,1042
8379,982,1055
8380,963,1059
8381,934,1057
8382,909,1057
8383,905,1052
8384,922,1039
8385,938,1024
8386,945,1016
8387,944,1015
8388,944,1023
8389,950,1031
8390,950,1042
8391,938,1052
8392,928,1052
8393,921,1041
8394,928,1034
8395,939,1035
8396,943,1038
8397,943,1040
8398,945,1045
8399,962,1045
8400,979,1046
8401,978,1036
8402,947,1028
8403,915,1024
8404,908,1026
8405,928,1027
8406,950,1036
8407,960,1039
8408,956,1039
8409,951,1035
8410,948,1036
8411,949,1038
8412,944,1042
8413,947,1044
8414,947,1044
8415,960,1040
8416,962,1032
8417,953,1030
8418,933,1025
8419,909,1029
8420,904,1037
8421,920,1045
8422,950,1048
8423,971,1047
8424,981,1039
8425,979,1028
8426,964,1021
8427,935,1020
8428,920,1019
8429,913,1024
8430,923,1031
8431,938,1031
8432,945,1028
8433,948,1024
8434,944,1024
8435,940,1024
8436,943,1031
8437,947,1036
8438,946,1044
8439,941,1060
8440,935,1071
8441,946,1065
8442,974,1042
8443,1004,1013
8444,999,992
8445,958,983
8446,919,987
8447,908,998
8448,916,1008
8449,927,1011
8450,933,1010
8451,935,1011
8452,933,1015
8453,934,1013
8454,941,1016
8455,960,1025
8456,979,1030
8457,978,1034
8458,956,1028
8459,929,1021
8460,917,1023
8461,917,1030
8462,917,1034
8463,920,1031
8464,927,1020
8465,936,1006
8466,938,1001
8467,935,997
8468,935,999
8469,933,999
8470,928,1001
8471,926,1003
8472,926,1014
8473,932,1026
8474,935,1030
8475,941,1031
8476,954,1029
8477,969,1032
8478,981,1039
8479,973,1045
8480,958,1044
8481,952,1036
8482,965,1023
8483,974,1004
8484,956,980
8485,927,970
8486,912,975
8487,925,993
8488,945,1008
8489,974,1015
8490,1033,1024
8491,1136,1067
8492,1185,1135
8493,1129,1143
8494,1046,1093
8495,1010,1055
8496,1014,1050
8497,1020,1051
8498,1018,1047
8499,1006,1049
8500,995,1053
8501,991,1058
8502,992,1061
8503,997,1057
8504,996,1053
8505,998,1043
8506,996,1035
8507,996,1022
8508,994,1017
8509,994,1020
8510,991,1023
8511,985,1019
8512,974,1013
8513,963,1008
8514,964,1004
8515,966,995
8516,962,987
8517,951,981
8518,943,978
8519,930,985
8520,921,991
8521,913,990
8522,905,985
8523,897,978
8524,889,968
8525,874,953
8526,864,942
8527,866,935
8528,878,925
8529,886,920
8530,891,913
8531,893,908
8532,896,904
8533,899,903
8534,901,906
8535,904,904
8536,915,894
8537,924,884
8538,921,872
8539,903,861
8540,888,850
8541,886,842
8542,897,849
8543,912,869
8544,926,903
8545,938,935
8546,944,962
8547,950,978
8548,958,968
8549,967,946
8550,971,921
8551,977,909
8552,975,917
8553,975,948
8554,977,987
8555,982,1018
8556,988,1030
8557,994,1018
8558,991,993
8559,983,966
8560,978,954
8561,979,966
8562,979,987
8563,979,1004
8564,970,1015
8565,968,1017
8566,983,1010
8567,1012,1000
8568,1029,986
8569,1026,979
8570,1010,993
8571,1007,1014
