'sample #','MLII','V1'
0,962,1063
1,962,1063
2,962,1063
3,962,1063
4,962,1063
5,962,1063
6,962,1063
7,962,1063
8,966,1063
9,967,1059
10,965,1059
11,961,1058
12,963,1058
13,964,1061
14,968,1061
15,969,1059
16,969,1058
17,970,1058
18,972,1063
19,976,1066
20,979,1065
21,981,1065
22,983,1056
23,980,1048
24,983,1047
25,990,1048
26,994,1053
27,993,1053
28,996,1053
29,998,1049
30,1001,1048
31,1009,1052
32,1014,1051
33,1012,1050
34,1014,1050
35,1016,1049
36,1021,1053
37,1025,1053
38,1030,1054
39,1033,1049
40,1038,1046
41,1040,1048
42,1045,1053
43,1050,1058
44,1061,1058
45,1069,1057
46,1075,1055
47,1078,1050
48,1085,1048
49,1093,1048
50,1104,1047
51,1110,1045
52,1116,1040
53,1116,1037
54,1119,1041
55,1128,1042
56,1135,1046
57,1141,1044
58,1139,1043
59,1139,1043
60,1137,1045
61,1138,1049
62,1136,1047
63,1134,1048
64,1130,1047
65,1121,1049
66,1120,1052
67,1117,1055
68,1116,1054
69,1108,1046
70,1101,1045
71,1095,1041
72,1085,1040
73,1081,1044
74,1075,1044
75,1066,1047
76,1057,1047
77,1048,1050
78,1045,1054
79,1041,1058
80,1039,1056
81,1032,1051
82,1025,1047
83,1016,1044
84,1015,1042
85,1013,1044
86,1016,1045
87,1010,1045
88,1004,1045
89,999,1047
90,997,1054
91,996,1059
92,993,1053
93,986,1048
94,986,1043
95,985,1044
96,983,1051
97,984,1053
98,981,1057
99,974,1054
100,967,1048
101,965,1045
102,966,1047
103,967,1052
104,971,1053
105,970,1051
106,967,1048
107,958,1050
108,954,1051
109,954,1057
110,962,1058
111,964,1058
112,963,1057
113,958,1054
114,954,1053
115,956,1052
116,957,1050
117,957,1046
118,958,1044
119,956,1047
120,955,1048
121,957,1054
122,957,1058
123,958,1064
124,959,1062
125,956,1059
126,956,1057
127,957,1058
128,961,1057
129,962,1054
130,961,1045
131,958,1046
132,960,1046
133,961,1049
134,968,1048
135,969,1046
136,968,1043
137,968,1047
138,969,1055
139,974,1063
140,978,1060
141,978,1054
142,975,1047
143,972,1041
144,974,1043
145,977,1045
146,981,1049
147,982,1044
148,974,1045
149,967,1046
150,968,1051
151,975,1056
152,977,1053
153,977,1049
154,972,1040
155,973,1039
156,972,1044
157,975,1049
158,981,1049
159,978,1050
160,975,1049
161,969,1050
162,965,1053
163,968,1056
164,973,1053
165,974,1051
166,971,1046
167,964,1044
168,966,1047
169,966,1051
170,972,1053
171,971,1046
172,969,1044
173,968,1043
174,967,1042
175,971,1047
176,976,1049
177,971,1052
178,965,1052
179,958,1050
180,956,1050
181,965,1047
182,967,1045
183,965,1048
184,958,1043
185,955,1045
186,955,1048
187,960,1048
188,962,1045
189,957,1041
190,956,1039
191,954,1040
192,956,1047
193,954,1055
194,961,1056
195,957,1056
196,955,1050
197,959,1043
198,960,1038
199,964,1043
200,963,1045
201,963,1045
202,959,1042
203,953,1040
204,950,1044
205,954,1045
206,955,1048
207,959,1047
208,953,1044
209,951,1042
210,953,1045
211,951,1048
212,954,1052
213,955,1050
214,956,1048
215,953,1046
216,954,1044
217,956,1041
218,955,1043
219,955,1042
220,952,1042
221,952,1042
222,953,1042
223,956,1043
224,958,1044
225,956,1042
226,954,1041
227,950,1037
228,952,1044
229,955,1045
230,952,1046
231,950,1047
232,950,1046
233,950,1045
234,949,1046
235,952,1049
236,953,1047
237,953,1046
238,951,1042
239,946,1043
240,946,1043
241,948,1048
242,951,1049
243,947,1046
244,948,1045
245,949,1044
246,949,1042
247,953,1042
248,956,1044
249,957,1040
250,957,1036
251,954,1034
252,951,1036
253,949,1042
254,951,1043
255,950,1044
256,949,1043
257,945,1045
258,944,1048
259,948,1051
260,954,1049
261,955,1045
262,955,1039
263,954,1037
264,952,1041
265,953,1046
266,955,1047
267,951,1046
268,945,1039
269,944,1034
270,945,1034
271,954,1037
272,959,1038
273,957,1039
274,954,1039
275,947,1042
276,950,1046
277,952,1051
278,955,1053
279,958,1048
280,957,1042
281,956,1035
282,952,1037
283,956,1037
284,957,1036
285,955,1039
286,946,1042
287,944,1039
288,945,1040
289,952,1039
290,955,1043
291,955,1042
292,955,1042
293,956,1044
294,954,1048
295,961,1048
296,966,1042
297,964,1038
298,960,1035
299,959,1036
300,963,1038
301,962,1044
302,968,1046
303,971,1052
304,975,1059
305,977,1059
306,987,1056
307,1004,1049
308,1023,1036
309,1031,1026
310,1026,1021
311,1018,1024
312,1010,1032
313,1006,1039
314,1004,1043
315,1001,1042
316,997,1037
317,992,1036
318,987,1037
319,988,1037
320,987,1039
321,979,1038
322,977,1032
323,972,1031
324,966,1032
325,963,1036
326,961,1041
327,952,1041
328,947,1042
329,947,1040
330,948,1043
331,953,1046
332,957,1045
333,960,1042
334,960,1037
335,957,1033
336,958,1032
337,957,1038
338,958,1039
339,956,1033
340,950,1032
341,939,1025
342,931,1029
343,932,1035
344,960,1042
345,1017,1039
346,1104,1031
347,1203,1027
348,1291,1031
349,1361,1044
350,1404,1057
351,1426,1064
352,1420,1067
353,1387,1063
354,1318,1056
355,1212,1044
356,1084,1040
357,956,1034
358,871,1022
359,879,1009
360,914,1001
361,934,995
362,935,996
363,932,1003
364,933,1009
365,937,1016
366,941,1024
367,946,1030
368,945,1034
369,941,1033
370,937,1034
371,934,1036
372,936,1039
373,941,1040
374,943,1038
375,941,1034
376,939,1031
377,938,1033
378,938,1035
379,937,1038
380,939,1040
381,940,1040
382,940,1037
383,941,1041
384,942,1041
385,942,1042
386,946,1042
387,946,1040
388,941,1039
389,938,1040
390,933,1043
391,942,1048
392,947,1053
393,948,1056
394,946,1054
395,947,1048
396,948,1039
397,947,1031
398,953,1032
399,953,1034
400,954,1031
401,954,1034
402,952,1035
403,955,1038
404,961,1039
405,966,1037
406,966,1034
407,960,1034
408,964,1041
409,969,1046
410,973,1046
411,975,1046
412,973,1042
413,974,1039
414,979,1041
415,981,1044
416,980,1043
417,986,1041
418,992,1034
419,1001,1031
420,1009,1030
421,1010,1035
422,1007,1037
423,1005,1039
424,1005,1038
425,1010,1035
426,1020,1037
427,1026,1038
428,1031,1036
429,1027,1035
430,1027,1034
431,1032,1036
432,1044,1037
433,1053,1038
434,1063,1038
435,1071,1036
436,1074,1029
437,1078,1033
438,1084,1035
439,1095,1038
440,1108,1038
441,1117,1031
442,1123,1024
443,1127,1021
444,1129,1027
445,1135,1031
446,1144,1031
447,1152,1032
448,1154,1025
449,1149,1025
450,1147,1028
451,1145,1033
452,1153,1034
453,1152,1037
454,1144,1040
455,1131,1048
456,1129,1057
457,1134,1059
458,1137,1051
459,1132,1040
460,1128,1024
461,1122,1013
462,1114,1012
463,1107,1018
464,1097,1024
465,1083,1030
466,1076,1030
467,1073,1030
468,1067,1031
469,1057,1039
470,1054,1039
471,1047,1040
472,1041,1034
473,1036,1034
474,1029,1038
475,1030,1049
476,1030,1049
477,1024,1047
478,1016,1044
479,1012,1037
480,1005,1035
481,1009,1034
482,1010,1030
483,1009,1025
484,1003,1021
485,998,1018
486,996,1025
487,994,1032
488,997,1038
489,990,1035
490,985,1032
491,982,1034
492,982,1035
493,985,1035
494,982,1035
495,982,1035
496,979,1037
497,975,1043
498,972,1049
499,974,1048
500,976,1045
501,976,1035
502,975,1031
503,974,1034
504,973,1039
505,974,1043
506,978,1043
507,979,1036
508,979,1030
509,983,1026
510,984,1026
511,981,1030
512,974,1036
513,967,1038
514,969,1037
515,973,1033
516,975,1033
517,980,1037
518,982,1042
519,977,1041
520,972,1038
521,971,1038
522,972,1040
523,978,1045
524,987,1044
525,992,1037
526,986,1037
527,986,1036
528,989,1037
529,992,1037
530,995,1038
531,995,1039
532,993,1041
533,992,1038
534,994,1038
535,996,1039
536,997,1040
537,998,1037
538,996,1032
539,993,1031
540,990,1031
541,992,1034
542,993,1035
543,991,1034
544,990,1031
545,990,1027
546,991,1029
547,993,1031
548,999,1033
549,998,1030
550,990,1030
551,983,1034
552,980,1035
553,982,1038
554,985,1039
555,983,1039
556,982,1034
557,982,1033
558,987,1038
559,989,1038
560,988,1043
561,985,1042
562,984,1040
563,981,1038
564,977,1039
565,979,1039
566,982,1040
567,979,1040
568,975,1039
569,975,1036
570,974,1034
571,973,1039
572,975,1044
573,970,1049
574,970,1049
575,974,1048
576,973,1045
577,975,1039
578,981,1031
579,981,1026
580,975,1025
581,970,1025
582,966,1029
583,967,1030
584,976,1030
585,977,1026
586,973,1027
587,969,1031
588,960,1030
589,963,1033
590,971,1033
591,973,1032
592,972,1029
593,966,1033
594,957,1035
595,962,1038
596,971,1039
597,970,1039
598,963,1042
599,957,1040
600,957,1039
601,961,1038
602,965,1035
603,966,1031
604,964,1030
605,962,1028
606,962,1034
607,964,1037
608,965,1038
609,967,1038
610,966,1038
611,962,1038
612,960,1043
613,964,1047
614,967,1046
615,965,1043
616,964,1039
617,960,1038
618,955,1038
619,964,1038
620,965,1038
621,964,1037
622,963,1035
623,963,1033
624,961,1035
625,962,1041
626,965,1043
627,966,1041
628,960,1037
629,962,1033
630,961,1034
631,967,1037
632,970,1038
633,971,1034
634,969,1030
635,968,1031
636,964,1037
637,957,1043
638,959,1047
639,959,1044
640,959,1038
641,958,1039
642,956,1045
643,962,1048
644,965,1046
645,966,1042
646,966,1035
647,968,1034
648,969,1037
649,970,1041
650,972,1045
651,970,1042
652,965,1038
653,962,1039
654,962,1042
655,965,1045
656,969,1046
657,967,1044
658,961,1041
659,961,1040
660,962,1041
661,965,1041
662,968,1039
663,968,1035
664,967,1033
665,966,1029
666,965,1032
667,967,1036
668,967,1041
669,972,1040
670,969,1041
671,966,1042
672,968,1047
673,967,1057
674,977,1057
675,982,1054
676,987,1050
677,989,1048
678,994,1050
679,1002,1052
680,1007,1054
681,1019,1049
682,1029,1038
683,1036,1032
684,1034,1030
685,1030,1031
686,1023,1036
687,1015,1041
688,1005,1042
689,1001,1041
690,1002,1037
691,1002,1034
692,1006,1032
693,1004,1030
694,997,1031
695,988,1034
696,979,1037
697,976,1041
698,978,1039
699,973,1038
700,967,1035
701,962,1035
702,962,1034
703,968,1037
704,972,1037
705,970,1038
706,967,1038
707,960,1041
708,960,1041
709,964,1042
710,972,1044
711,971,1041
712,964,1040
713,950,1037
714,941,1035
715,934,1035
716,937,1036
717,955,1038
718,998,1035
719,1080,1030
720,1182,1026
721,1282,1030
722,1354,1042
723,1397,1053
724,1423,1061
725,1430,1069
726,1418,1074
727,1385,1072
728,1312,1061
729,1184,1047
730,1056,1031
731,928,1016
732,876,1007
733,917,998
734,953,992
735,958,990
736,952,998
737,946,1008
738,951,1021
739,956,1029
740,965,1036
741,960,1037
742,951,1036
743,940,1041
744,939,1044
745,942,1047
746,945,1046
747,945,1044
748,943,1043
749,941,1045
750,940,1045
751,942,1049
752,945,1050
753,943,1048
754,943,1045
755,941,1048
756,944,1051
757,950,1053
758,952,1053
759,953,1049
760,951,1048
761,946,1049
762,946,1054
763,949,1057
764,957,1059
765,959,1052
766,956,1045
767,951,1040
768,950,1043
769,956,1047
770,961,1049
771,964,1049
772,962,1046
773,963,1042
774,964,1043
775,966,1049
776,971,1053
777,973,1049
778,972,1046
779,972,1047
780,973,1050
781,969,1057
782,973,1058
783,976,1058
784,975,1052
785,980,1049
786,984,1047
787,992,1048
788,994,1048
789,994,1047
790,995,1053
791,997,1052
792,1001,1051
793,1004,1051
794,1008,1046
795,1015,1043
796,1019,1039
797,1022,1039
798,1027,1039
799,1034,1043
800,1043,1041
801,1048,1039
802,1049,1035
803,1050,1036
804,1057,1039
805,1068,1044
806,1079,1047
807,1086,1045
808,1094,1041
809,1099,1040
810,1103,1040
811,1109,1043
812,1120,1045
813,1133,1043
814,1139,1038
815,1138,1038
816,1139,1038
817,1144,1039
818,1152,1039
819,1151,1039
820,1147,1036
821,1147,1033
822,1145,1030
823,1146,1028
824,1144,1032
825,1139,1035
826,1127,1032
827,1123,1031
828,1112,1035
829,1112,1040
830,1113,1040
831,1106,1043
832,1092,1042
833,1077,1037
834,1073,1037
835,1070,1042
836,1067,1045
837,1059,1044
838,1049,1046
839,1035,1045
840,1031,1041
841,1027,1046
842,1026,1050
843,1021,1044
844,1016,1041
845,1015,1035
846,1010,1036
847,1013,1043
848,1012,1044
849,1006,1046
850,999,1043
851,991,1043
852,982,1043
853,984,1045
854,984,1047
855,983,1047
856,980,1044
857,973,1045
858,973,1043
859,970,1044
860,971,1045
861,973,1043
862,974,1044
863,969,1045
864,967,1050
865,965,1052
866,966,1050
867,969,1043
868,968,1037
869,964,1036
870,962,1038
871,961,1044
872,960,1046
873,967,1046
874,959,1044
875,956,1045
876,953,1047
877,954,1054
878,956,1056
879,957,1054
880,957,1049
881,955,1047
882,959,1047
883,958,1047
884,955,1051
885,955,1048
886,952,1050
887,958,1052
888,960,1052
889,958,1056
890,959,1053
891,958,1045
892,957,1040
893,961,1043
894,962,1048
895,964,1047
896,970,1045
897,970,1039
898,969,1039
899,966,1038
900,965,1045
901,964,1047
902,968,1047
903,965,1045
904,967,1042
905,965,1042
906,968,1044
907,972,1046
908,970,1047
909,967,1046
910,964,1044
911,966,1045
912,966,1047
913,966,1049
914,969,1051
915,964,1048
916,963,1045
917,966,1043
918,966,1044
919,968,1048
920,968,1049
921,970,1050
922,965,1047
923,963,1048
924,960,1051
925,960,1052
926,964,1051
927,966,1048
928,967,1046
929,964,1043
930,963,1043
931,963,1046
932,964,1046
933,961,1045
934,960,1042
935,961,1043
936,959,1045
937,963,1049
938,970,1048
939,969,1047
940,966,1042
941,960,1044
942,960,1044
943,967,1046
944,972,1047
945,964,1048
946,957,1049
947,953,1052
948,956,1056
949,962,1052
950,965,1051
951,965,1048
952,962,1044
953,958,1045
954,953,1046
955,958,1045
956,959,1045
957,961,1040
958,958,1038
959,956,1040
960,956,1044
961,964,1048
962,969,1049
963,965,1044
964,958,1043
965,951,1039
966,952,1041
967,958,1045
968,961,1044
969,962,1046
970,961,1043
971,957,1042
972,956,1047
973,959,1050
974,960,1050
975,962,1048
976,960,1047
977,963,1043
978,962,1042
979,962,1042
980,961,1041
981,961,1039
982,959,1039
983,958,1039
984,955,1045
985,960,1050
986,964,1050
987,964,1051
988,963,1051
989,960,1054
990,960,1057
991,963,1057
992,962,1053
993,956,1043
994,951,1039
995,951,1041
996,956,1047
997,959,1054
998,959,1058
999,962,1043
1000,961,1032
1001,963,1027
1002,966,1029
1003,967,1029
1004,967,1029
1005,962,1030
1006,960,1031
1007,964,1037
1008,966,1042
1009,967,1045
1010,958,1044
1011,954,1043
1012,953,1043
1013,956,1047
1014,960,1047
1015,960,1048
1016,961,1047
1017,958,1047
1018,958,1042
1019,959,1040
1020,965,1035
1021,966,1033
1022,965,1032
1023,968,1033
1024,958,1036
1025,958,1044
1026,958,1047
1027,964,1046
1028,966,1041
1029,966,1036
1030,965,1034
1031,961,1038
1032,959,1041
1033,967,1043
1034,968,1041
1035,972,1043
1036,971,1045
1037,974,1048
1038,983,1051
1039,991,1055
1040,996,1057
1041,997,1055
1042,996,1050
1043,1003,1049
1044,1009,1050
1045,1026,1053
1046,1031,1054
1047,1031,1047
1048,1029,1039
1049,1022,1032
1050,1018,1033
1051,1010,1034
1052,1003,1035
1053,1001,1035
1054,999,1034
1055,992,1037
1056,991,1041
1057,990,1045
1058,987,1045
1059,982,1045
1060,974,1046
1061,971,1043
1062,969,1042
1063,969,1041
1064,963,1038
1065,967,1037
1066,969,1039
1067,974,1039
1068,975,1039
1069,972,1039
1070,965,1039
1071,963,1040
1072,959,1039
1073,956,1042
1074,955,1044
1075,952,1047
1076,946,1043
1077,937,1036
1078,938,1029
1079,967,1028
1080,1028,1036
1081,1118,1039
1082,1225,1044
1083,1318,1046
1084,1378,1051
1085,1414,1058
1086,1430,1063
1087,1426,1067
1088,1397,1067
1089,1331,1058
1090,1214,1044
1091,1086,1034
1092,958,1020
1093,874,1010
1094,901,998
1095,941,990
1096,953,991
1097,947,999
1098,943,1015
1099,951,1027
1100,958,1034
1101,957,1039
1102,954,1039
1103,946,1044
1104,942,1050
1105,942,1054
1106,941,1054
1107,946,1049
1108,946,1043
1109,948,1041
1110,947,1045
1111,948,1049
1112,945,1049
1113,941,1045
1114,937,1045
1115,939,1048
1116,943,1053
1117,947,1059
1118,946,1055
1119,945,1054
1120,944,1047
1121,943,1049
1122,946,1049
1123,949,1049
1124,947,1046
1125,950,1046
1126,952,1046
1127,953,1048
1128,957,1048
1129,961,1049
1130,958,1050
1131,952,1047
1132,953,1045
1133,954,1049
1134,955,1051
1135,963,1051
1136,965,1051
1137,972,1047
1138,965,1047
1139,964,1051
1140,966,1058
1141,971,1061
1142,973,1057
1143,976,1048
1144,974,1045
1145,974,1048
1146,977,1056
1147,980,1058
1148,987,1053
1149,991,1045
1150,994,1038
1151,993,1039
1152,998,1045
1153,1000,1054
1154,1003,1055
1155,1005,1050
1156,1012,1044
1157,1016,1042
1158,1024,1046
1159,1028,1045
1160,1030,1042
1161,1034,1038
1162,1036,1036
1163,1043,1038
1164,1049,1041
1165,1058,1046
1166,1064,1045
1167,1073,1042
1168,1075,1041
1169,1081,1043
1170,1090,1044
1171,1099,1043
1172,1104,1041
1173,1108,1039
1174,1108,1035
1175,1115,1035
1176,1124,1038
1177,1132,1038
1178,1136,1040
1179,1136,1040
1180,1140,1041
1181,1140,1039
1182,1141,1038
1183,1143,1039
1184,1141,1038
1185,1136,1035
1186,1129,1034
1187,1122,1041
1188,1119,1048
1189,1115,1049
1190,1111,1044
1191,1106,1036
1192,1095,1031
1193,1081,1032
1194,1073,1040
1195,1065,1044
1196,1059,1041
1197,1054,1039
1198,1053,1039
1199,1048,1043
1200,1036,1049
1201,1030,1057
1202,1023,1053
1203,1014,1049
1204,1011,1042
1205,1012,1041
1206,1011,1039
1207,1008,1041
1208,1005,1039
1209,999,1039
1210,994,1037
1211,992,1042
1212,992,1042
1213,992,1043
1214,987,1043
1215,980,1040
1216,974,1041
1217,975,1048
1218,975,1050
1219,975,1052
1220,971,1052
1221,970,1048
1222,969,1045
1223,972,1044
1224,973,1046
1225,972,1045
1226,964,1049
1227,957,1046
1228,955,1047
1229,959,1046
1230,961,1049
1231,966,1048
1232,966,1044
1233,962,1040
1234,958,1039
1235,956,1042
1236,957,1042
1237,960,1047
1238,960,1044
1239,958,1040
1240,957,1039
1241,956,1041
1242,960,1046
1243,967,1048
1244,971,1047
1245,968,1048
1246,966,1043
1247,961,1043
1248,963,1046
1249,968,1046
1250,966,1047
1251,964,1047
1252,963,1046
1253,966,1050
1254,969,1050
1255,970,1054
1256,968,1061
1257,965,1056
1258,961,1053
1259,968,1048
1260,976,1046
1261,979,1046
1262,975,1046
1263,973,1045
1264,972,1041
1265,971,1039
1266,970,1042
1267,974,1046
1268,975,1048
1269,974,1049
1270,974,1046
1271,973,1044
1272,973,1046
1273,979,1044
1274,981,1044
1275,974,1039
1276,973,1043
1277,973,1043
1278,975,1048
1279,978,1046
1280,979,1047
1281,977,1045
1282,975,1046
1283,976,1044
1284,974,1043
1285,971,1043
1286,969,1040
1287,966,1040
1288,965,1039
1289,962,1039
1290,964,1043
1291,966,1046
1292,967,1049
1293,966,1048
1294,963,1043
1295,964,1040
1296,966,1040
1297,965,1039
1298,963,1042
1299,962,1045
1300,961,1043
1301,960,1044
1302,967,1045
1303,969,1048
1304,968,1043
1305,965,1039
1306,964,1035
1307,962,1033
1308,965,1034
1309,966,1039
1310,963,1042
1311,960,1044
1312,957,1046
1313,960,1044
1314,962,1046
1315,963,1043
1316,964,1041
1317,961,1038
1318,958,1036
1319,955,1041
1320,957,1044
1321,960,1046
1322,962,1044
1323,959,1040
1324,955,1040
1325,950,1041
1326,955,1045
1327,959,1048
1328,959,1048
1329,959,1045
1330,957,1042
1331,957,1043
1332,961,1042
1333,964,1043
1334,961,1037
1335,962,1035
1336,961,1034
1337,958,1040
1338,960,1044
1339,964,1048
1340,961,1048
1341,959,1043
1342,957,1039
1343,959,1042
1344,961,1049
1345,961,1054
1346,962,1046
1347,954,1042
1348,952,1039
1349,955,1037
1350,960,1037
1351,965,1040
1352,966,1038
1353,965,1036
1354,960,1031
1355,959,1033
1356,959,1040
1357,960,1043
1358,956,1045
1359,958,1043
1360,958,1039
1361,957,1039
1362,963,1039
1363,962,1041
1364,965,1039
1365,959,1039
1366,956,1039
1367,956,1043
1368,961,1048
1369,963,1052
1370,962,1050
1371,960,1044
1372,958,1043
1373,959,1044
1374,962,1046
1375,966,1041
1376,965,1031
1377,962,1025
1378,963,1022
1379,963,1027
1380,965,1034
1381,967,1039
1382,966,1038
1383,967,1038
1384,965,1036
1385,962,1036
1386,961,1036
1387,961,1040
1388,958,1035
1389,959,1037
1390,957,1034
1391,960,1036
1392,964,1039
1393,969,1043
1394,972,1040
1395,971,1038
1396,965,1039
1397,964,1043
1398,966,1050
1399,977,1058
1400,979,1057
1401,986,1054
1402,986,1052
1403,993,1050
1404,1007,1047
1405,1020,1044
1406,1035,1037
1407,1038,1031
1408,1029,1027
1409,1025,1026
1410,1020,1027
1411,1012,1031
1412,1008,1033
1413,1007,1032
1414,1001,1032
1415,997,1032
1416,996,1036
1417,989,1037
1418,982,1040
1419,977,1039
1420,971,1037
1421,967,1035
1422,965,1035
1423,963,1039
1424,958,1040
1425,959,1037
1426,959,1040
1427,958,1037
1428,962,1032
1429,962,1032
1430,961,1032
1431,955,1036
1432,954,1037
1433,957,1034
1434,961,1035
1435,962,1034
1436,959,1034
1437,946,1030
1438,928,1028
1439,924,1027
1440,935,1028
1441,971,1031
1442,1028,1029
1443,1115,1030
1444,1212,1034
1445,1308,1044
1446,1370,1049
1447,1408,1053
1448,1426,1051
1449,1422,1054
1450,1389,1060
1451,1320,1059
1452,1214,1054
1453,1086,1044
1454,958,1026
1455,873,1007
1456,884,993
1457,922,985
1458,940,987
1459,942,992
1460,941,1003
1461,946,1008
1462,943,1013
1463,943,1021
1464,939,1031
1465,942,1039
1466,942,1036
1467,942,1038
1468,939,1035
1469,937,1032
1470,938,1033
1471,939,1036
1472,938,1038
1473,937,1038
1474,934,1040
1475,931,1044
1476,935,1048
1477,937,1043
1478,938,1036
1479,934,1031
1480,931,1033
1481,930,1041
1482,933,1042
1483,940,1043
1484,940,1044
1485,942,1042
1486,939,1037
1487,941,1036
1488,945,1040
1489,949,1038
1490,946,1038
1491,943,1035
1492,944,1036
1493,944,1038
1494,945,1042
1495,943,1046
1496,948,1042
1497,954,1037
1498,955,1036
1499,955,1038
1500,960,1041
1501,964,1041
1502,960,1041
1503,956,1039
1504,953,1038
1505,954,1038
1506,958,1038
1507,967,1043
1508,971,1038
1509,968,1039
1510,967,1040
1511,969,1041
1512,975,1042
1513,981,1043
1514,983,1035
1515,984,1030
1516,987,1027
1517,988,1030
1518,992,1034
1519,996,1034
1520,999,1030
1521,1001,1028
1522,1003,1028
1523,1004,1030
1524,1008,1032
1525,1015,1037
1526,1015,1037
1527,1018,1038
1528,1025,1035
1529,1031,1034
1530,1042,1033
1531,1050,1036
1532,1059,1037
1533,1060,1038
1534,1062,1038
1535,1071,1035
1536,1077,1036
1537,1093,1032
1538,1102,1026
1539,1103,1023
1540,1103,1024
1541,1107,1029
1542,1114,1030
1543,1123,1029
1544,1130,1028
1545,1131,1024
1546,1134,1019
1547,1132,1021
1548,1133,1027
1549,1134,1030
1550,1136,1026
1551,1133,1020
1552,1131,1016
1553,1127,1017
1554,1122,1021
1555,1119,1023
1556,1110,1023
1557,1103,1021
1558,1095,1022
1559,1086,1026
1560,1080,1031
1561,1075,1035
1562,1069,1039
1563,1059,1034
1564,1054,1032
1565,1048,1033
1566,1045,1031
1567,1044,1035
1568,1034,1035
1569,1029,1033
1570,1022,1032
1571,1020,1032
1572,1017,1033
1573,1013,1030
1574,1008,1028
1575,1006,1024
1576,998,1023
1577,993,1027
1578,987,1032
1579,988,1036
1580,986,1034
1581,984,1031
1582,979,1029
1583,975,1029
1584,976,1034
1585,975,1033
1586,974,1034
1587,968,1033
1588,964,1033
1589,959,1039
1590,958,1040
1591,961,1038
1592,957,1038
1593,954,1033
1594,950,1032
1595,952,1035
1596,954,1035
1597,958,1036
1598,959,1035
1599,958,1030
1600,951,1029
1601,946,1029
1602,945,1032
1603,946,1035
1604,951,1036
1605,950,1035
1606,949,1035
1607,948,1038
1608,951,1044
1609,955,1042
1610,953,1040
1611,951,1037
1612,950,1038
1613,946,1039
1614,950,1039
1615,953,1042
1616,954,1041
1617,952,1038
1618,949,1034
1619,950,1030
1620,950,1032
1621,954,1036
1622,955,1035
1623,955,1033
1624,951,1035
1625,954,1041
1626,955,1048
1627,957,1048
1628,958,1045
1629,957,1038
1630,960,1035
1631,961,1034
1632,963,1037
1633,965,1039
1634,963,1044
1635,962,1043
1636,963,1040
1637,965,1041
1638,966,1038
1639,965,1034
1640,962,1031
1641,959,1026
1642,957,1022
1643,960,1028
1644,966,1031
1645,965,1032
1646,964,1032
1647,962,1031
1648,960,1032
1649,961,1036
1650,967,1040
1651,972,1039
1652,969,1036
1653,964,1029
1654,961,1025
1655,962,1028
1656,964,1032
1657,966,1034
1658,964,1033
1659,961,1029
1660,961,1026
1661,961,1029
1662,961,1035
1663,962,1037
1664,961,1035
1665,961,1027
1666,956,1026
1667,953,1028
1668,955,1032
1669,958,1032
1670,959,1031
1671,961,1030
1672,954,1028
1673,955,1027
1674,956,1029
1675,957,1027
1676,956,1027
1677,953,1024
1678,949,1027
1679,951,1034
1680,954,1038
1681,957,1043
1682,954,1041
1683,952,1039
1684,950,1033
1685,950,1032
1686,950,1030
1687,953,1027
1688,953,1025
1689,950,1024
1690,947,1025
1691,949,1027
1692,951,1031
1693,956,1028
1694,955,1027
1695,952,1027
1696,950,1026
1697,951,1029
1698,952,1028
1699,951,1029
1700,954,1028
1701,953,1029
1702,948,1025
1703,946,1028
1704,946,1033
1705,951,1035
1706,954,1035
1707,952,1031
1708,944,1029
1709,941,1030
1710,945,1029
1711,947,1029
1712,947,1027
1713,950,1026
1714,947,1027
1715,949,1025
1716,949,1028
1717,951,1032
1718,954,1032
1719,948,1029
1720,946,1027
1721,947,1026
1722,944,1030
1723,951,1033
1724,949,1031
1725,946,1026
1726,942,1024
1727,945,1025
1728,944,1027
1729,944,1033
1730,943,1034
1731,944,1029
1732,947,1028
1733,948,1025
1734,951,1025
1735,946,1027
1736,945,1029
1737,941,1029
1738,938,1031
1739,940,1034
1740,943,1035
1741,946,1032
1742,950,1031
1743,948,1026
1744,948,1025
1745,945,1025
1746,944,1027
1747,945,1032
1748,947,1031
1749,945,1030
1750,943,1027
1751,945,1028
1752,944,1031
1753,947,1029
1754,950,1030
1755,946,1028
1756,945,1022
1757,945,1023
1758,946,1026
1759,948,1031
1760,945,1030
1761,940,1031
1762,941,1029
1763,947,1028
1764,953,1027
1765,953,1026
1766,953,1026
1767,951,1025
1768,948,1025
1769,949,1027
1770,949,1033
1771,951,1035
1772,950,1034
1773,950,1034
1774,946,1036
1775,947,1036
1776,951,1035
1777,958,1039
1778,960,1037
1779,964,1041
1780,962,1037
1781,966,1039
1782,973,1041
1783,981,1039
1784,996,1035
1785,1008,1029
1786,1011,1020
1787,1012,1018
1788,1007,1017
1789,1005,1018
1790,999,1018
1791,989,1020
1792,986,1023
1793,981,1028
1794,980,1029
1795,984,1030
1796,983,1027
1797,976,1022
1798,966,1020
1799,966,1021
1800,963,1020
1801,962,1022
1802,952,1024
1803,941,1029
1804,933,1031
1805,935,1037
1806,937,1038
1807,942,1036
1808,944,1032
1809,942,1028
1810,939,1025
1811,937,1030
1812,942,1035
1813,946,1032
1814,950,1026
1815,947,1018
1816,943,1017
1817,938,1021
1818,930,1025
1819,922,1026
1820,918,1022
1821,923,1019
1822,943,1018
1823,994,1019
1824,1081,1022
1825,1190,1021
1826,1290,1023
1827,1359,1031
1828,1394,1037
1829,1412,1046
1830,1415,1057
1831,1396,1066
1832,1343,1061
1833,1244,1046
1834,1116,1033
1835,988,1023
1836,860,1016
1837,858,1008
1838,894,998
1839,916,987
1840,916,978
1841,915,982
1842,918,992
1843,924,1003
1844,923,1013
1845,924,1017
1846,918,1022
1847,922,1028
1848,923,1034
1849,925,1036
1850,928,1032
1851,922,1023
1852,919,1022
1853,920,1026
1854,923,1033
1855,927,1035
1856,925,1030
1857,921,1027
1858,918,1026
1859,917,1032
1860,919,1038
1861,924,1039
1862,927,1039
1863,920,1039
1864,923,1039
1865,923,1041
1866,927,1041
1867,929,1039
1868,931,1031
1869,929,1027
1870,927,1024
1871,927,1027
1872,932,1032
1873,932,1033
1874,926,1031
1875,924,1032
1876,924,1033
1877,929,1033
1878,933,1037
1879,938,1039
1880,943,1038
1881,941,1034
1882,935,1029
1883,930,1026
1884,936,1029
1885,945,1030
1886,943,1031
1887,941,1031
1888,938,1031
1889,940,1030
1890,942,1034
1891,952,1034
1892,957,1038
1893,956,1038
1894,956,1038
1895,958,1035
1896,963,1035
1897,970,1033
1898,967,1029
1899,966,1031
1900,966,1034
1901,971,1034
1902,979,1035
1903,989,1031
1904,994,1025
1905,999,1021
1906,997,1015
1907,998,1019
1908,997,1028
1909,1002,1035
1910,1004,1034
1911,1011,1032
1912,1014,1029
1913,1025,1029
1914,1031,1032
1915,1042,1035
1916,1049,1033
1917,1055,1030
1918,1058,1024
1919,1066,1023
1920,1076,1024
1921,1084,1026
1922,1093,1024
1923,1099,1019
1924,1105,1014
1925,1106,1016
1926,1111,1016
1927,1118,1020
1928,1123,1020
1929,1123,1017
1930,1122,1020
1931,1121,1024
1932,1123,1032
1933,1128,1032
1934,1128,1027
1935,1124,1020
1936,1117,1017
1937,1107,1020
1938,1106,1028
1939,1104,1029
1940,1101,1024
1941,1095,1024
1942,1082,1022
1943,1074,1026
1944,1073,1031
1945,1070,1032
1946,1064,1028
1947,1054,1026
1948,1044,1028
1949,1042,1031
1950,1036,1034
1951,1034,1033
1952,1031,1026
1953,1026,1022
1954,1016,1021
1955,1008,1029
1956,1008,1035
1957,1005,1039
1958,1003,1042
1959,1001,1038
1960,994,1034
1961,989,1031
1962,992,1029
1963,993,1027
1964,991,1026
1965,985,1025
1966,982,1026
1967,978,1030
1968,979,1031
1969,976,1037
1970,973,1035
1971,971,1032
1972,962,1030
1973,960,1033
1974,962,1040
1975,965,1044
1976,964,1044
1977,962,1042
1978,960,1039
1979,958,1035
1980,955,1039
1981,952,1037
1982,955,1036
1983,955,1034
1984,953,1036
1985,954,1040
1986,954,1044
1987,953,1045
1988,956,1042
1989,953,1041
1990,953,1037
1991,952,1042
1992,958,1047
1993,962,1051
1994,960,1045
1995,959,1037
1996,957,1035
1997,954,1036
1998,953,1040
1999,953,1045
2000,958,1046
2001,953,1043
2002,958,1039
2003,957,1037
2004,958,1036
2005,963,1039
2006,968,1036
2007,969,1030
2008,971,1025
2009,970,1026
2010,972,1029
2011,973,1034
2012,973,1033
2013,970,1031
2014,969,1030
2015,971,1031
2016,966,1032
2017,972,1039
2018,975,1036
2019,976,1034
2020,974,1033
2021,973,1036
2022,971,1043
2023,971,1046
2024,969,1043
2025,970,1042
2026,969,1040
2027,970,1037
2028,972,1038
2029,977,1035
2030,975,1028
2031,972,1025
2032,968,1023
2033,968,1024
2034,970,1027
2035,976,1031
2036,975,1029
2037,969,1030
2038,967,1029
2039,970,1028
2040,971,1030
2041,973,1030
2042,968,1030
2043,967,1028
2044,964,1025
2045,964,1028
2046,964,1033
2047,963,1039
2048,958,1040
2049,961,1040
2050,957,1035
2051,956,1034
2052,962,1037
2053,963,1039
2054,961,1041
2055,956,1040
2056,953,1039
2057,956,1034
2058,960,1030
2059,961,1036
2060,957,1031
2061,954,1035
2062,953,1035
2063,957,1031
2064,961,1026
2065,963,1024
2066,955,1023
2067,952,1025
2068,949,1030
2069,951,1033
2070,952,1037
2071,954,1039
2072,956,1035
2073,956,1030
2074,954,1026
2075,957,1027
2076,961,1030
2077,960,1032
2078,961,1029
2079,956,1031
2080,946,1032
2081,947,1037
2082,951,1041
2083,951,1045
2084,952,1044
2085,952,1039
2086,950,1033
2087,951,1033
2088,954,1033
2089,953,1038
2090,953,1035
2091,952,1035
2092,945,1034
2093,944,1034
2094,945,1039
2095,947,1043
2096,949,1044
2097,952,1040
2098,946,1038
2099,944,1035
2100,945,1030
2101,957,1027
2102,958,1022
2103,953,1022
2104,948,1022
2105,945,1028
2106,946,1034
2107,950,1037
2108,954,1037
2109,953,1032
2110,954,1025
2111,949,1026
2112,951,1029
2113,954,1032
2114,958,1032
2115,951,1030
2116,951,1031
2117,952,1031
2118,954,1031
2119,957,1037
2120,957,1033
2121,951,1031
2122,945,1031
2123,947,1031
2124,950,1031
2125,951,1036
2126,950,1037
2127,944,1037
2128,942,1041
2129,946,1043
2130,944,1042
2131,949,1041
2132,950,1038
2133,950,1035
2134,945,1033
2135,948,1035
2136,949,1037
2137,952,1039
2138,953,1035
2139,954,1031
2140,956,1028
2141,957,1033
2142,956,1039
2143,960,1042
2144,962,1040
2145,962,1037
2146,962,1036
2147,966,1041
2148,973,1046
2149,981,1051
2150,987,1049
2151,994,1046
2152,1001,1040
2153,1009,1034
2154,1014,1030
2155,1012,1032
2156,1009,1028
2157,1000,1027
2158,996,1027
2159,988,1028
2160,986,1032
2161,988,1034
2162,987,1035
2163,983,1033
2164,978,1034
2165,973,1037
2166,971,1036
2167,968,1037
2168,965,1031
2169,961,1030
2170,954,1029
2171,951,1034
2172,951,1039
2173,954,1042
2174,953,1037
2175,948,1034
2176,944,1030
2177,944,1033
2178,948,1034
2179,952,1036
2180,953,1034
2181,951,1031
2182,948,1029
2183,949,1034
2184,946,1035
2185,949,1040
2186,945,1038
2187,934,1034
2188,922,1035
2189,928,1034
2190,956,1039
2191,1012,1042
2192,1086,1035
2193,1178,1029
2194,1266,1026
2195,1339,1037
2196,1386,1055
2197,1411,1071
2198,1417,1079
2199,1408,1080
2200,1366,1071
2201,1290,1057
2202,1179,1048
2203,1051,1041
2204,925,1024
2205,866,1012
2206,880,1002
2207,918,995
2208,936,997
2209,936,1001
2210,934,1005
2211,936,1008
2212,940,1013
2213,940,1024
2214,938,1035
2215,938,1042
2216,933,1042
2217,935,1037
2218,932,1035
2219,932,1034
2220,930,1040
2221,931,1047
2222,935,1047
2223,935,1044
2224,935,1044
2225,931,1044
2226,932,1046
2227,935,1049
2228,936,1046
2229,931,1043
2230,933,1041
2231,935,1039
2232,938,1039
2233,939,1040
2234,940,1043
2235,942,1040
2236,941,1037
2237,939,1038
2238,941,1040
2239,945,1044
2240,944,1044
2241,942,1042
2242,937,1041
2243,937,1041
2244,944,1043
2245,947,1045
2246,947,1044
2247,945,1043
2248,946,1044
2249,946,1045
2250,952,1046
2251,954,1048
2252,952,1042
2253,947,1043
2254,950,1040
2255,956,1047
2256,959,1047
2257,963,1048
2258,963,1049
2259,965,1049
2260,966,1044
2261,966,1045
2262,969,1045
2263,974,1048
2264,977,1051
2265,975,1049
2266,976,1046
2267,976,1045
2268,984,1043
2269,992,1043
2270,996,1043
2271,997,1040
2272,998,1039
2273,1002,1039
2274,1006,1040
2275,1013,1041
2276,1016,1042
2277,1016,1040
2278,1018,1041
2279,1023,1038
2280,1034,1038
2281,1041,1038
2282,1043,1037
2283,1052,1037
2284,1052,1037
2285,1057,1040
2286,1066,1045
2287,1078,1046
2288,1087,1043
2289,1091,1041
2290,1090,1040
2291,1099,1041
2292,1106,1045
2293,1114,1047
2294,1120,1045
2295,1121,1042
2296,1126,1043
2297,1134,1041
2298,1137,1038
2299,1142,1038
2300,1143,1032
2301,1137,1029
2302,1135,1033
2303,1132,1038
2304,1132,1042
2305,1131,1045
2306,1127,1042
2307,1120,1038
2308,1113,1036
2309,1111,1033
2310,1105,1038
2311,1099,1041
2312,1090,1041
2313,1084,1039
2314,1072,1035
2315,1066,1039
2316,1058,1040
2317,1058,1042
2318,1053,1040
2319,1044,1038
2320,1032,1035
2321,1028,1038
2322,1025,1041
2323,1022,1044
2324,1017,1043
2325,1012,1042
2326,1003,1045
2327,998,1049
2328,998,1048
2329,1000,1048
2330,1000,1041
2331,993,1037
2332,987,1034
2333,985,1038
2334,983,1039
2335,984,1040
2336,979,1040
2337,976,1039
2338,971,1037
2339,967,1040
2340,968,1041
2341,967,1043
2342,970,1041
2343,965,1040
2344,961,1039
2345,958,1040
2346,957,1044
2347,957,1047
2348,955,1046
2349,952,1044
2350,949,1042
2351,949,1043
2352,951,1047
2353,952,1052
2354,955,1054
2355,955,1050
2356,951,1043
2357,950,1041
2358,948,1044
2359,953,1047
2360,959,1044
2361,958,1043
2362,953,1040
2363,951,1041
2364,949,1043
2365,953,1043
2366,954,1043
2367,953,1041
2368,952,1040
2369,955,1040
2370,957,1042
2371,962,1042
2372,959,1042
2373,958,1037
2374,954,1034
2375,956,1036
2376,955,1040
2377,955,1043
2378,955,1046
2379,957,1043
2380,954,1041
2381,952,1044
2382,952,1047
2383,957,1051
2384,958,1051
2385,957,1049
2386,957,1047
2387,958,1050
2388,965,1053
2389,968,1055
2390,964,1049
2391,958,1042
2392,954,1041
2393,958,1042
2394,961,1049
2395,965,1051
2396,961,1051
2397,962,1047
2398,963,1039
2399,965,1041
2400,968,1041
2401,971,1046
2402,973,1048
2403,969,1044
2404,965,1046
2405,959,1045
2406,960,1046
2407,969,1045
2408,971,1040
2409,969,1034
2410,964,1032
2411,961,1034
2412,961,1040
2413,967,1041
2414,972,1041
2415,968,1040
2416,964,1036
2417,959,1041
2418,958,1043
2419,961,1049
2420,959,1049
2421,957,1047
2422,956,1047
2423,954,1049
2424,960,1048
2425,962,1047
2426,963,1043
2427,962,1042
2428,955,1042
2429,959,1042
2430,961,1041
2431,964,1039
2432,963,1039
2433,958,1035
2434,953,1034
2435,958,1033
2436,963,1038
2437,962,1042
2438,961,1042
2439,960,1042
2440,956,1038
2441,953,1040
2442,956,1043
2443,959,1041
2444,961,1042
2445,961,1037
2446,957,1040
2447,957,1040
2448,960,1042
2449,966,1043
2450,974,1037
2451,968,1031
2452,959,1031
2453,958,1033
2454,958,1038
2455,960,1039
2456,961,1038
2457,966,1035
2458,973,1036
2459,974,1035
2460,975,1035
2461,969,1037
2462,970,1037
2463,973,1033
2464,975,1032
2465,982,1031
2466,983,1038
2467,988,1036
2468,991,1034
2469,985,1034
2470,978,1035
2471,973,1037
2472,972,1038
2473,970,1042
2474,972,1040
2475,974,1037
2476,977,1034
2477,979,1035
2478,987,1034
2479,992,1035
2480,999,1036
2481,998,1031
2482,993,1030
2483,988,1029
2484,986,1035
2485,990,1043
2486,993,1043
2487,994,1038
2488,998,1032
2489,1001,1027
2490,1002,1026
2491,1002,1026
2492,999,1027
2493,1000,1025
2494,995,1025
2495,995,1025
2496,1000,1027
2497,1000,1032
2498,1004,1031
2499,1005,1027
2500,1002,1028
2501,997,1027
2502,999,1031
2503,1004,1031
2504,1005,1029
2505,999,1028
2506,994,1030
2507,993,1034
2508,998,1034
2509,1002,1038
2510,1004,1032
2511,1000,1029
2512,1000,1028
2513,1000,1030
2514,1006,1032
2515,1014,1035
2516,1016,1037
2517,1018,1034
2518,1021,1034
2519,1021,1033
2520,1020,1040
2521,1023,1044
2522,1029,1045
2523,1034,1042
2524,1033,1042
2525,1044,1043
2526,1058,1040
2527,1066,1039
2528,1067,1034
2529,1064,1030
2530,1055,1031
2531,1057,1033
2532,1063,1038
2533,1064,1039
2534,1057,1038
2535,1047,1039
2536,1042,1037
2537,1039,1039
2538,1037,1039
2539,1034,1041
2540,1024,1041
2541,1015,1045
2542,1005,1045
2543,1006,1039
2544,1013,1040
2545,1018,1039
2546,1014,1040
2547,1010,1039
2548,1001,1037
2549,993,1039
2550,984,1043
2551,979,1047
2552,980,1049
2553,989,1044
2554,993,1044
2555,994,1044
2556,994,1048
2557,995,1050
2558,991,1047
2559,984,1045
2560,980,1042
2561,977,1042
2562,974,1040
2563,987,1041
2564,1020,1038
2565,1072,1033
2566,1145,1029
2567,1242,1027
2568,1333,1036
2569,1399,1049
2570,1430,1061
2571,1439,1070
2572,1429,1080
2573,1406,1098
2574,1356,1103
2575,1264,1097
2576,1136,1081
2577,1008,1058
2578,922,1036
2579,930,1022
2580,972,1009
2581,994,1001
2582,990,997
2583,982,1000
2584,986,1009
2585,990,1021
2586,998,1031
2587,996,1038
2588,1000,1036
2589,998,1034
2590,994,1034
2591,989,1036
2592,991,1040
2593,993,1047
2594,992,1045
2595,986,1044
2596,981,1042
2597,981,1046
2598,980,1051
2599,980,1058
2600,976,1059
2601,974,1057
2602,974,1055
2603,978,1054
2604,980,1054
2605,987,1055
2606,991,1052
2607,989,1050
2608,990,1046
2609,994,1049
2610,995,1053
2611,995,1052
2612,986,1048
2613,980,1047
2614,979,1043
2615,980,1042
2616,991,1044
2617,998,1043
2618,995,1040
2619,989,1040
2620,987,1041
2621,990,1044
2622,996,1046
2623,1003,1045
2624,1002,1046
2625,999,1042
2626,995,1042
2627,993,1043
2628,1005,1047
2629,1016,1048
2630,1026,1048
2631,1032,1045
2632,1030,1041
2633,1024,1039
2634,1020,1041
2635,1016,1046
2636,1010,1048
2637,1010,1047
2638,1012,1044
2639,1023,1045
2640,1029,1046
2641,1030,1047
2642,1035,1047
2643,1037,1045
2644,1034,1045
2645,1038,1046
2646,1047,1050
2647,1052,1054
2648,1056,1052
2649,1061,1049
2650,1065,1044
2651,1075,1046
2652,1083,1046
2653,1089,1044
2654,1095,1043
2655,1094,1040
2656,1097,1041
2657,1106,1043
2658,1115,1042
2659,1120,1045
2660,1124,1040
2661,1127,1040
2662,1132,1036
2663,1138,1039
2664,1140,1039
2665,1149,1045
2666,1151,1041
2667,1154,1039
2668,1157,1037
2669,1162,1036
2670,1166,1037
2671,1166,1041
2672,1166,1039
2673,1162,1038
2674,1156,1036
2675,1151,1038
2676,1147,1043
2677,1142,1045
2678,1137,1045
2679,1129,1041
2680,1123,1042
2681,1117,1042
2682,1112,1042
2683,1114,1043
2684,1111,1041
2685,1100,1041
2686,1088,1041
2687,1087,1042
2688,1080,1045
2689,1074,1046
2690,1066,1045
2691,1059,1043
2692,1051,1045
2693,1049,1046
2694,1051,1047
2695,1050,1047
2696,1044,1044
2697,1036,1044
2698,1033,1041
2699,1033,1045
2700,1026,1051
2701,1019,1056
2702,1009,1057
2703,1002,1056
2704,998,1051
2705,996,1049
2706,1002,1050
2707,1008,1051
2708,1008,1048
2709,1001,1045
2710,993,1046
2711,989,1047
2712,993,1051
2713,1002,1054
2714,1003,1051
2715,998,1048
2716,992,1048
2717,986,1049
2718,992,1051
2719,994,1055
2720,991,1055
2721,988,1054
2722,986,1054
2723,990,1054
2724,993,1054
2725,993,1050
2726,995,1051
2727,995,1051
2728,993,1049
2729,991,1050
2730,990,1050
2731,996,1053
2732,993,1050
2733,988,1050
2734,982,1052
2735,983,1054
2736,988,1057
2737,995,1055
2738,994,1054
2739,992,1051
2740,984,1049
2741,982,1052
2742,982,1056
2743,992,1059
2744,996,1059
2745,996,1057
2746,993,1053
2747,995,1052
2748,997,1056
2749,1000,1057
2750,1001,1053
2751,997,1052
2752,994,1050
2753,992,1052
2754,992,1054
2755,993,1055
2756,993,1052
2757,988,1053
2758,985,1047
2759,988,1047
2760,990,1049
2761,996,1055
2762,994,1052
2763,994,1047
2764,990,1045
2765,987,1047
2766,989,1049
2767,990,1051
2768,991,1049
2769,988,1048
2770,981,1048
2771,982,1048
2772,988,1050
2773,989,1051
2774,987,1051
2775,983,1049
2776,986,1048
2777,988,1048
2778,989,1045
2779,982,1050
2780,979,1049
2781,976,1047
2782,974,1044
2783,973,1044
2784,978,1046
2785,979,1049
2786,976,1046
2787,973,1045
2788,973,1041
2789,973,1047
2790,975,1051
2791,974,1054
2792,971,1053
2793,973,1050
2794,965,1045
2795,967,1041
2796,970,1041
2797,972,1042
2798,969,1043
2799,965,1039
2800,960,1040
2801,961,1040
2802,965,1043
2803,968,1045
2804,963,1042
2805,953,1043
2806,944,1042
2807,947,1047
2808,960,1049
2809,970,1051
2810,972,1050
2811,969,1049
2812,962,1046
2813,959,1048
2814,961,1051
2815,967,1053
2816,967,1048
2817,960,1044
2818,953,1043
2819,953,1047
2820,958,1048
2821,962,1051
2822,967,1050
2823,967,1045
2824,965,1045
2825,963,1046
2826,963,1050
2827,965,1050
2828,961,1045
2829,956,1036
2830,950,1034
2831,944,1036
2832,946,1042
2833,949,1046
2834,955,1044
2835,956,1040
2836,953,1037
2837,957,1035
2838,960,1038
2839,963,1042
2840,958,1040
2841,947,1042
2842,945,1040
2843,950,1043
2844,960,1044
2845,969,1044
2846,971,1044
2847,967,1043
2848,960,1041
2849,957,1039
2850,956,1042
2851,957,1041
2852,955,1040
2853,952,1042
2854,950,1041
2855,951,1042
2856,949,1043
2857,946,1047
2858,947,1046
2859,946,1042
2860,944,1039
2861,943,1041
2862,947,1046
2863,952,1048
2864,959,1046
2865,963,1044
2866,961,1044
2867,965,1044
2868,970,1046
2869,973,1052
2870,982,1056
2871,987,1059
2872,988,1060
2873,997,1057
2874,1006,1054
2875,1022,1047
2876,1032,1041
2877,1039,1037
2878,1034,1029
2879,1025,1026
2880,1016,1026
2881,1013,1027
2882,1003,1027
2883,991,1028
2884,979,1032
2885,983,1036
2886,991,1037
2887,995,1037
2888,986,1038
2889,968,1042
2890,951,1040
2891,941,1043
2892,945,1046
2893,949,1049
2894,941,1046
2895,932,1043
2896,928,1042
2897,932,1043
2898,935,1047
2899,937,1049
2900,934,1050
2901,940,1048
2902,940,1043
2903,938,1044
2904,925,1043
2905,923,1048
2906,925,1047
2907,925,1046
2908,911,1044
2909,899,1046
2910,901,1051
2911,925,1058
2912,974,1059
2913,1049,1054
2914,1140,1046
2915,1238,1043
2916,1316,1046
2917,1365,1058
2918,1393,1062
2919,1404,1067
2920,1390,1075
2921,1349,1088
2922,1259,1095
2923,1131,1089
2924,1003,1077
2925,875,1058
2926,817,1032
2927,865,1009
2928,905,991
2929,910,983
2930,903,989
2931,900,1002
2932,906,1018
2933,911,1032
2934,914,1041
2935,914,1047
2936,916,1044
2937,916,1034
2938,918,1029
2939,919,1029
2940,918,1027
2941,914,1031
2942,908,1035
2943,908,1042
2944,902,1043
2945,899,1044
2946,896,1044
2947,895,1042
2948,891,1040
2949,883,1043
2950,879,1048
2951,882,1049
2952,890,1051
2953,895,1049
2954,901,1044
2955,906,1038
2956,913,1031
2957,914,1027
2958,908,1029
2959,904,1032
2960,897,1036
2961,897,1038
2962,896,1038
2963,899,1041
2964,900,1043
2965,902,1046
2966,902,1042
2967,902,1039
2968,905,1037
2969,909,1039
2970,916,1040
2971,918,1042
2972,918,1039
2973,919,1035
2974,919,1036
2975,924,1034
2976,926,1035
2977,925,1037
2978,927,1039
2979,931,1036
2980,929,1035
2981,933,1035
2982,937,1038
2983,948,1041
2984,956,1037
2985,953,1035
2986,942,1031
2987,940,1035
2988,945,1041
2989,956,1045
2990,965,1044
2991,971,1037
2992,974,1032
2993,979,1033
2994,982,1038
2995,984,1042
2996,988,1044
2997,995,1044
2998,1002,1041
2999,1017,1032
3000,1027,1022
3001,1033,1019
3002,1039,1018
3003,1045,1020
3004,1052,1017
3005,1058,1020
3006,1064,1018
3007,1070,1015
3008,1077,1009
3009,1083,1005
3010,1087,1005
3011,1093,1009
3012,1099,1011
3013,1105,1014
3014,1106,1012
3015,1100,1011
3016,1095,1009
3017,1089,1011
3018,1085,1018
3019,1077,1023
3020,1069,1023
3021,1063,1022
3022,1058,1023
3023,1054,1021
3024,1049,1025
3025,1040,1027
3026,1032,1028
3027,1026,1024
3028,1022,1023
3029,1016,1021
3030,1006,1026
3031,998,1034
3032,995,1035
3033,984,1030
3034,975,1026
3035,970,1028
3036,969,1031
3037,964,1035
3038,962,1030
3039,958,1024
3040,954,1024
3041,950,1028
3042,946,1028
3043,944,1030
3044,939,1025
3045,932,1025
3046,929,1023
3047,930,1027
3048,931,1030
3049,930,1031
3050,930,1027
3051,927,1023
3052,920,1023
3053,915,1028
3054,912,1032
3055,912,1036
3056,911,1035
3057,910,1030
3058,911,1029
3059,911,1033
3060,912,1037
3061,914,1037
3062,918,1033
3063,919,1026
3064,914,1022
3065,913,1028
3066,912,1034
3067,918,1037
3068,919,1035
3069,921,1033
3070,920,1030
3071,921,1029
3072,922,1033
3073,920,1036
3074,921,1035
3075,924,1033
3076,924,1027
3077,928,1032
3078,931,1036
3079,933,1036
3080,929,1038
3081,926,1038
3082,925,1035
3083,925,1034
3084,927,1036
3085,931,1034
3086,938,1033
3087,940,1029
3088,942,1028
3089,939,1030
3090,934,1035
3091,932,1043
3092,934,1043
3093,938,1036
3094,938,1030
3095,941,1029
3096,942,1031
3097,939,1035
3098,936,1032
3099,931,1031
3100,930,1026
3101,931,1027
3102,936,1029
3103,944,1030
3104,949,1031
3105,944,1030
3106,936,1027
3107,932,1026
3108,932,1027
3109,935,1028
3110,932,1030
3111,938,1028
3112,933,1028
3113,931,1029
3114,933,1029
3115,938,1026
3116,942,1024
3117,937,1024
3118,929,1025
3119,925,1030
3120,930,1033
3121,935,1036
3122,937,1039
3123,936,1036
3124,934,1030
3125,929,1023
3126,927,1020
3127,930,1020
3128,923,1018
3129,922,1020
3130,917,1020
3131,915,1024
3132,918,1031
3133,921,1035
3134,924,1033
3135,926,1034
3136,927,1030
3137,927,1029
3138,927,1026
3139,926,1031
3140,926,1030
3141,921,1032
3142,923,1029
3143,924,1026
3144,928,1024
3145,931,1024
3146,929,1024
3147,930,1020
3148,929,1019
3149,930,1021
3150,929,1024
3151,928,1033
3152,933,1032
3153,927,1033
3154,919,1034
3155,917,1035
3156,921,1026
3157,922,1026
3158,927,1024
3159,925,1027
3160,925,1027
3161,927,1028
3162,925,1025
3163,928,1028
3164,927,1024
3165,925,1026
3166,922,1028
3167,923,1028
3168,932,1030
3169,935,1030
3170,936,1026
3171,933,1026
3172,925,1027
3173,926,1028
3174,927,1029
3175,935,1021
3176,939,1017
3177,937,1019
3178,934,1019
3179,934,1024
3180,945,1026
3181,952,1025
3182,954,1023
3183,955,1021
3184,949,1024
3185,953,1029
3186,954,1038
3187,956,1046
3188,959,1050
3189,970,1051
3190,980,1050
3191,994,1048
3192,1004,1036
3193,1008,1028
3194,1007,1019
3195,1002,1016
3196,990,1014
3197,987,1018
3198,983,1024
3199,980,1032
3200,979,1030
3201,969,1025
3202,960,1022
3203,952,1022
3204,948,1026
3205,946,1027
3206,947,1028
3207,948,1022
3208,942,1019
3209,933,1018
3210,928,1023
3211,930,1027
3212,929,1028
3213,931,1023
3214,926,1020
3215,925,1022
3216,927,1027
3217,931,1028
3218,934,1027
3219,935,1023
3220,929,1020
3221,926,1020
3222,924,1026
3223,916,1027
3224,908,1025
3225,905,1017
3226,920,1016
3227,958,1019
3228,1026,1022
3229,1125,1022
3230,1230,1020
3231,1318,1025
3232,1368,1034
3233,1395,1045
3234,1407,1061
3235,1401,1074
3236,1371,1080
3237,1294,1070
3238,1166,1051
3239,1038,1035
3240,910,1027
3241,814,1017
3242,848,1001
3243,889,984
3244,899,969
3245,897,972
3246,899,980
3247,906,993
3248,909,1005
3249,912,1011
3250,911,1015
3251,909,1019
3252,912,1026
3253,909,1030
3254,910,1031
3255,908,1030
3256,907,1026
3257,909,1031
3258,913,1031
3259,912,1037
3260,910,1038
3261,905,1036
3262,900,1031
3263,903,1035
3264,904,1034
3265,909,1039
3266,911,1038
3267,913,1037
3268,910,1038
3269,909,1038
3270,913,1038
3271,916,1039
3272,919,1033
3273,918,1032
3274,914,1029
3275,914,1033
3276,917,1038
3277,917,1039
3278,919,1040
3279,923,1039
3280,918,1033
3281,915,1034
3282,918,1039
3283,921,1047
3284,926,1049
3285,928,1044
3286,929,1038
3287,929,1033
3288,931,1036
3289,935,1033
3290,943,1027
3291,947,1021
3292,947,1014
3293,942,1018
3294,939,1026
3295,941,1031
3296,941,1036
3297,946,1038
3298,951,1038
3299,954,1042
3300,960,1043
3301,966,1043
3302,969,1042
3303,967,1041
3304,962,1041
3305,967,1041
3306,973,1044
3307,985,1042
3308,993,1034
3309,1000,1022
3310,999,1014
3311,1004,1014
3312,1011,1019
3313,1025,1024
3314,1035,1027
3315,1040,1022
3316,1045,1016
3317,1044,1014
3318,1043,1018
3319,1047,1022
3320,1063,1024
3321,1070,1023
3322,1081,1020
3323,1085,1023
3324,1093,1025
3325,1102,1030
3326,1110,1027
3327,1113,1029
3328,1112,1029
3329,1115,1029
3330,1117,1030
3331,1119,1027
3332,1120,1025
3333,1114,1023
3334,1110,1019
3335,1102,1023
3336,1098,1027
3337,1095,1035
3338,1092,1037
3339,1086,1036
3340,1079,1033
3341,1074,1037
3342,1069,1039
3343,1068,1039
3344,1061,1033
3345,1051,1025
3346,1041,1024
3347,1037,1028
3348,1032,1032
3349,1029,1037
3350,1018,1036
3351,1006,1032
3352,997,1029
3353,997,1028
3354,993,1030
3355,993,1032
3356,989,1033
3357,980,1032
3358,974,1029
3359,970,1031
3360,973,1031
3361,973,1035
3362,970,1033
3363,966,1033
3364,963,1033
3365,957,1034
3366,959,1035
3367,958,1038
3368,952,1040
3369,948,1040
3370,950,1037
3371,953,1035
3372,954,1034
3373,952,1038
3374,948,1037
3375,942,1034
3376,936,1034
3377,937,1034
3378,935,1040
3379,930,1047
3380,926,1047
3381,921,1043
3382,922,1040
3383,925,1038
3384,929,1042
3385,932,1042
3386,935,1040
3387,934,1033
3388,931,1030
3389,925,1037
3390,929,1041
3391,932,1044
3392,935,1043
3393,937,1041
3394,933,1037
3395,935,1037
3396,936,1036
3397,943,1037
3398,941,1035
3399,941,1036
3400,937,1031
3401,934,1038
3402,938,1042
3403,944,1046
3404,944,1043
3405,943,1041
3406,940,1039
3407,940,1047
3408,941,1049
3409,943,1046
3410,946,1040
3411,944,1039
3412,946,1037
3413,949,1040
3414,951,1040
3415,955,1036
3416,956,1031
3417,953,1031
3418,947,1035
3419,948,1041
3420,949,1044
3421,950,1046
3422,953,1037
3423,955,1033
3424,948,1030
3425,946,1030
3426,949,1033
3427,952,1035
3428,953,1039
3429,951,1039
3430,951,1037
3431,953,1035
3432,956,1035
3433,954,1034
3434,950,1036
3435,947,1034
3436,939,1035
3437,943,1037
3438,940,1043
3439,945,1045
3440,946,1044
3441,946,1044
3442,945,1043
3443,942,1045
3444,946,1047
3445,950,1041
3446,948,1033
3447,942,1029
3448,936,1026
3449,933,1031
3450,937,1037
3451,942,1039
3452,942,1038
3453,942,1035
3454,937,1032
3455,933,1034
3456,930,1036
3457,935,1038
3458,940,1037
3459,943,1033
3460,939,1033
3461,935,1036
3462,935,1036
3463,936,1038
3464,939,1038
3465,935,1036
3466,935,1032
3467,938,1035
3468,939,1035
3469,939,1040
3470,936,1042
3471,933,1037
3472,931,1035
3473,928,1037
3474,926,1041
3475,931,1046
3476,934,1043
3477,934,1036
3478,931,1032
3479,933,1035
3480,936,1041
3481,942,1039
3482,937,1030
3483,933,1023
3484,933,1022
3485,932,1027
3486,932,1035
3487,933,1039
3488,929,1036
3489,929,1032
3490,925,1026
3491,925,1028
3492,928,1031
3493,932,1035
3494,936,1033
3495,936,1031
3496,931,1033
3497,930,1035
3498,929,1041
3499,934,1041
3500,933,1037
3501,935,1033
3502,932,1030
3503,930,1030
3504,925,1035
3505,929,1039
3506,935,1041
3507,937,1039
3508,931,1034
3509,930,1037
3510,935,1040
3511,936,1041
3512,932,1041
3513,928,1043
3514,929,1039
3515,931,1040
3516,936,1038
3517,945,1043
3518,946,1044
3519,948,1045
3520,949,1043
3521,956,1046
3522,961,1052
3523,971,1057
3524,975,1059
3525,984,1058
3526,994,1048
3527,1001,1043
3528,1004,1044
3529,1004,1045
3530,1004,1047
3531,1005,1043
3532,1004,1038
3533,995,1036
3534,994,1037
3535,994,1036
3536,987,1035
3537,973,1035
3538,957,1036
3539,950,1043
3540,950,1049
3541,952,1046
3542,953,1045
3543,947,1042
3544,937,1038
3545,932,1039
3546,928,1037
3547,928,1039
3548,934,1035
3549,936,1033
3550,937,1029
3551,932,1029
3552,932,1030
3553,934,1033
3554,934,1037
3555,929,1037
3556,925,1037
3557,922,1038
3558,922,1038
3559,920,1036
3560,911,1035
3561,903,1033
3562,901,1031
3563,916,1028
3564,956,1026
3565,1018,1025
3566,1112,1019
3567,1214,1010
3568,1294,1015
3569,1350,1029
3570,1382,1047
3571,1398,1060
3572,1393,1070
3573,1374,1081
3574,1324,1080
3575,1234,1074
3576,1106,1066
3577,978,1056
3578,867,1042
3579,853,1018
3580,882,993
3581,907,980
3582,906,980
3583,907,988
3584,910,995
3585,915,1004
3586,918,1014
3587,917,1022
3588,915,1029
3589,914,1034
3590,911,1038
3591,906,1035
3592,906,1037
3593,905,1038
3594,906,1039
3595,908,1041
3596,910,1041
3597,909,1039
3598,910,1045
3599,910,1046
3600,913,1045
3601,917,1044
3602,922,1040
3603,920,1034
3604,917,1035
3605,912,1036
3606,910,1043
3607,910,1045
3608,912,1043
3609,913,1040
3610,915,1038
3611,913,1038
3612,920,1037
3613,923,1037
3614,923,1034
3615,920,1037
3616,917,1035
3617,920,1038
3618,922,1040
3619,926,1042
3620,927,1042
3621,925,1042
3622,928,1044
3623,930,1046
3624,935,1044
3625,940,1041
3626,941,1038
3627,937,1036
3628,935,1034
3629,934,1036
3630,939,1042
3631,943,1045
3632,942,1041
3633,943,1036
3634,942,1031
3635,948,1032
3636,949,1034
3637,954,1040
3638,955,1039
3639,954,1039
3640,951,1037
3641,949,1041
3642,958,1044
3643,966,1044
3644,972,1038
3645,974,1034
3646,974,1033
3647,977,1033
3648,985,1037
3649,988,1040
3650,995,1039
3651,998,1037
3652,1002,1035
3653,1004,1036
3654,1010,1040
3655,1016,1039
3656,1023,1042
3657,1028,1039
3658,1030,1038
3659,1034,1040
3660,1039,1047
3661,1046,1051
3662,1056,1049
3663,1065,1041
3664,1070,1031
3665,1073,1026
3666,1079,1027
3667,1089,1030
3668,1091,1027
3669,1099,1020
3670,1102,1018
3671,1109,1017
3672,1115,1023
3673,1122,1024
3674,1122,1022
3675,1113,1022
3676,1097,1021
3677,1091,1028
3678,1094,1036
3679,1098,1036
3680,1098,1036
3681,1092,1034
3682,1087,1034
3683,1084,1038
3684,1079,1043
3685,1074,1047
3686,1067,1044
3687,1058,1044
3688,1048,1040
3689,1041,1043
3690,1039,1049
3691,1035,1056
3692,1031,1052
3693,1023,1043
3694,1015,1030
3695,1009,1023
3696,1007,1027
3697,1003,1037
3698,995,1045
3699,989,1052
3700,985,1051
3701,983,1046
3702,982,1034
3703,984,1027
3704,981,1021
3705,977,1023
3706,969,1022
3707,961,1022
3708,956,1029
3709,954,1035
3710,948,1036
3711,944,1034
3712,940,1034
3713,938,1035
3714,940,1039
3715,943,1044
3716,937,1043
3717,931,1042
3718,924,1043
3719,925,1046
3720,931,1052
3721,929,1056
3722,931,1052
3723,930,1044
3724,925,1039
3725,923,1039
3726,923,1047
3727,924,1054
3728,923,1053
3729,922,1049
3730,920,1045
3731,923,1041
3732,924,1039
3733,925,1040
3734,925,1044
3735,926,1046
3736,920,1046
3737,921,1045
3738,918,1040
3739,922,1040
3740,922,1041
3741,922,1042
3742,920,1040
3743,922,1045
3744,929,1050
3745,931,1056
3746,929,1048
3747,930,1038
3748,930,1030
3749,925,1027
3750,922,1034
3751,922,1040
3752,922,1042
3753,918,1041
3754,921,1036
3755,924,1040
3756,925,1046
3757,924,1051
3758,925,1054
3759,927,1052
3760,928,1050
3761,925,1043
3762,927,1039
3763,928,1040
3764,932,1040
3765,931,1040
3766,936,1042
3767,942,1039
3768,946,1034
3769,942,1034
3770,930,1032
3771,913,1035
3772,901,1041
3773,897,1046
3774,903,1050
3775,908,1052
3776,910,1052
3777,913,1049
3778,911,1047
3779,912,1048
3780,919,1051
3781,931,1054
3782,941,1051
3783,941,1045
3784,923,1038
3785,904,1034
3786,901,1042
3787,916,1047
3788,933,1045
3789,948,1034
3790,942,1023
3791,928,1025
3792,919,1034
3793,927,1043
3794,933,1039
3795,915,1035
3796,890,1041
3797,882,1052
3798,891,1052
3799,893,1045
3800,878,1044
3801,862,1051
3802,868,1059
3803,890,1061
3804,896,1058
3805,892,1054
3806,885,1055
3807,876,1054
3808,878,1057
3809,884,1061
3810,889,1061
3811,890,1058
3812,892,1050
3813,892,1042
3814,890,1040
3815,890,1045
3816,889,1048
3817,890,1046
3818,894,1041
3819,897,1041
3820,893,1041
3821,889,1043
3822,891,1044
3823,894,1045
3824,897,1037
3825,892,1034
3826,887,1031
3827,887,1031
3828,890,1035
3829,891,1040
3830,891,1042
3831,889,1043
3832,886,1040
3833,885,1038
3834,888,1042
3835,890,1043
3836,894,1044
3837,891,1042
3838,887,1039
3839,887,1038
3840,891,1041
3841,896,1046
3842,891,1045
3843,884,1045
3844,876,1041
3845,881,1040
3846,888,1043
3847,892,1045
3848,895,1044
3849,893,1039
3850,890,1039
3851,888,1037
3852,889,1043
3853,888,1047
3854,888,1048
3855,889,1043
3856,887,1041
3857,890,1039
3858,885,1043
3859,886,1046
3860,889,1046
3861,892,1041
3862,887,1041
3863,887,1043
3864,889,1043
3865,891,1046
3866,892,1045
3867,891,1043
3868,889,1043
3869,889,1042
3870,890,1043
3871,894,1049
3872,897,1048
3873,896,1044
3874,895,1044
3875,892,1046
3876,894,1048
3877,899,1048
3878,902,1051
3879,902,1053
3880,907,1054
3881,908,1058
3882,915,1064
3883,921,1067
3884,929,1065
3885,938,1064
3886,946,1062
3887,955,1061
3888,959,1058
3889,961,1064
3890,962,1063
3891,959,1061
3892,954,1053
3893,951,1049
3894,951,1048
3895,955,1046
3896,950,1046
3897,940,1043
3898,928,1040
3899,922,1041
3900,922,1044
3901,921,1047
3902,916,1045
3903,912,1041
3904,909,1040
3905,908,1039
3906,909,1040
3907,904,1044
3908,903,1040
3909,895,1039
3910,891,1041
3911,888,1045
3912,893,1049
3913,896,1049
3914,897,1048
3915,901,1045
3916,900,1042
3917,898,1041
3918,898,1042
3919,894,1038
3920,887,1030
3921,878,1028
3922,885,1028
3923,911,1030
3924,964,1032
3925,1041,1033
3926,1139,1029
3927,1235,1031
3928,1306,1039
3929,1358,1049
3930,1392,1059
3931,1410,1063
3932,1405,1063
3933,1374,1065
3934,1303,1062
3935,1190,1056
3936,1062,1052
3937,934,1051
3938,829,1042
3939,819,1027
3940,844,1009
3941,866,995
3942,870,986
3943,874,985
3944,873,986
3945,875,991
3946,875,1003
3947,881,1016
3948,886,1025
3949,892,1034
3950,887,1034
3951,886,1037
3952,889,1033
3953,890,1032
3954,892,1037
3955,889,1045
3956,892,1048
3957,890,1048
3958,881,1042
3959,876,1042
3960,879,1045
3961,888,1046
3962,898,1041
3963,901,1034
3964,894,1033
3965,893,1035
3966,888,1041
3967,886,1043
3968,893,1042
3969,892,1038
3970,889,1035
3971,890,1038
3972,894,1041
3973,900,1042
3974,901,1043
3975,897,1042
3976,894,1040
3977,898,1040
3978,902,1042
3979,910,1044
3980,912,1044
3981,907,1042
3982,904,1036
3983,909,1034
3984,915,1032
3985,920,1035
3986,921,1033
3987,915,1032
3988,919,1030
3989,921,1032
3990,923,1035
3991,929,1040
3992,934,1039
3993,933,1035
3994,929,1032
3995,926,1034
3996,929,1036
3997,938,1037
3998,943,1033
3999,944,1035
4000,946,1032
4001,943,1033
4002,950,1038
4003,954,1043
4004,959,1040
4005,958,1040
4006,958,1037
4007,958,1038
4008,966,1039
4009,972,1039
4010,979,1037
4011,979,1034
4012,982,1031
4013,985,1035
4014,991,1037
4015,999,1038
4016,1006,1038
4017,1007,1036
4018,1004,1031
4019,1010,1031
4020,1022,1035
4021,1034,1039
4022,1042,1036
4023,1041,1034
4024,1044,1027
4025,1048,1029
4026,1059,1029
4027,1064,1030
4028,1070,1030
4029,1075,1028
4030,1075,1027
4031,1077,1025
4032,1079,1029
4033,1087,1033
4034,1088,1034
4035,1089,1036
4036,1086,1031
4037,1086,1031
4038,1082,1032
4039,1088,1034
4040,1088,1032
4041,1086,1034
4042,1080,1032
4043,1070,1036
4044,1058,1037
4045,1051,1041
4046,1051,1042
4047,1055,1038
4048,1053,1029
4049,1047,1025
4050,1034,1028
4051,1019,1033
4052,1001,1038
4053,993,1045
4054,989,1046
4055,986,1049
4056,984,1051
4057,985,1052
4058,982,1050
4059,974,1048
4060,970,1041
4061,964,1039
4062,963,1042
4063,962,1045
4064,963,1045
4065,958,1044
4066,951,1042
4067,948,1045
4068,950,1050
4069,951,1051
4070,952,1053
4071,945,1048
4072,939,1047
4073,935,1049
4074,935,1049
4075,938,1052
4076,934,1050
4077,933,1047
4078,933,1045
4079,930,1047
4080,931,1052
4081,931,1056
4082,934,1052
4083,932,1045
4084,929,1045
4085,928,1048
4086,931,1049
4087,935,1048
4088,936,1049
4089,932,1046
4090,925,1049
4091,925,1048
4092,929,1049
4093,933,1047
4094,935,1044
4095,936,1039
4096,933,1037
4097,930,1041
4098,930,1041
4099,935,1044
4100,941,1041
4101,940,1034
4102,936,1033
4103,933,1034
4104,938,1036
4105,941,1036
4106,941,1035
4107,940,1034
4108,939,1034
4109,941,1033
4110,948,1037
4111,951,1040
4112,950,1040
4113,953,1035
4114,950,1034
4115,951,1034
4116,953,1038
4117,955,1040
4118,957,1034
4119,956,1029
4120,956,1028
4121,955,1030
4122,957,1034
4123,960,1036
4124,962,1034
4125,960,1033
4126,954,1033
4127,950,1034
4128,953,1040
4129,957,1043
4130,959,1037
4131,955,1032
4132,954,1027
4133,952,1028
4134,951,1031
4135,950,1034
4136,946,1030
4137,950,1029
4138,951,1027
4139,951,1027
4140,950,1025
4141,951,1028
4142,950,1029
4143,951,1027
4144,949,1024
4145,945,1019
4146,946,1021
4147,950,1025
4148,951,1024
4149,949,1024
4150,944,1024
4151,943,1027
4152,944,1031
4153,947,1033
4154,948,1029
4155,944,1024
4156,938,1027
4157,941,1029
4158,940,1032
4159,939,1033
4160,942,1032
4161,942,1029
4162,937,1024
4163,936,1029
4164,940,1029
4165,944,1031
4166,942,1029
4167,937,1030
4168,935,1029
4169,931,1029
4170,934,1033
4171,937,1035
4172,941,1033
4173,941,1032
4174,935,1026
4175,931,1025
4176,932,1022
4177,939,1022
4178,941,1021
4179,939,1020
4180,932,1020
4181,933,1020
4182,937,1023
4183,939,1029
4184,941,1027
4185,940,1025
4186,934,1019
4187,932,1020
4188,935,1020
4189,941,1025
4190,944,1025
4191,942,1024
4192,938,1023
4193,934,1024
4194,930,1026
4195,930,1030
4196,934,1026
4197,940,1021
4198,939,1021
4199,935,1021
4200,936,1023
4201,941,1026
4202,943,1024
4203,938,1025
4204,937,1023
4205,937,1024
4206,938,1024
4207,942,1027
4208,940,1026
4209,944,1023
4210,944,1021
4211,944,1023
4212,941,1023
4213,944,1026
4214,946,1023
4215,943,1023
4216,934,1019
4217,936,1022
4218,942,1021
4219,947,1020
4220,946,1019
4221,942,1015
4222,937,1015
4223,937,1013
4224,945,1017
4225,951,1022
4226,954,1024
4227,958,1023
4228,955,1024
4229,957,1025
4230,960,1032
4231,970,1039
4232,977,1043
4233,980,1044
4234,978,1042
4235,983,1045
4236,990,1046
4237,1000,1049
4238,1012,1044
4239,1017,1035
4240,1013,1030
4241,1012,1024
4242,1014,1026
4243,1015,1030
4244,1014,1029
4245,1014,1025
4246,1005,1023
4247,997,1021
4248,989,1022
4249,983,1026
4250,979,1030
4251,974,1029
4252,966,1020
4253,963,1017
4254,963,1018
4255,962,1019
4256,958,1022
4257,957,1023
4258,951,1023
4259,949,1020
4260,952,1017
4261,954,1016
4262,957,1017
4263,955,1016
4264,948,1015
4265,944,1011
4266,945,1013
4267,948,1013
4268,949,1014
4269,943,1010
4270,934,1009
4271,926,1011
4272,918,1011
4273,928,1013
4274,960,1012
4275,1013,1015
4276,1093,1015
4277,1191,1009
4278,1284,1011
4279,1358,1019
4280,1403,1030
4281,1434,1043
4282,1443,1052
4283,1430,1062
4284,1395,1067
4285,1325,1055
4286,1214,1037
4287,1086,1017
4288,958,999
4289,873,987
4290,889,976
4291,931,968
4292,951,963
4293,945,963
4294,936,969
4295,930,979
4296,934,991
4297,945,999
4298,944,1006
4299,945,1010
4300,941,1013
4301,939,1013
4302,937,1014
4303,937,1020
4304,942,1021
4305,938,1023
4306,938,1021
4307,939,1020
4308,944,1025
4309,945,1029
4310,946,1030
4311,938,1030
4312,927,1029
4313,934,1027
4314,944,1028
4315,953,1027
4316,950,1024
4317,943,1020
4318,940,1010
4319,941,1010
4320,946,1010
4321,950,1015
4322,952,1016
4323,954,1019
4324,953,1022
4325,947,1023
4326,942,1024
4327,944,1017
4328,951,1012
4329,956,1008
4330,956,1009
4331,954,1010
4332,957,1015
4333,955,1016
4334,955,1018
4335,959,1018
4336,962,1017
4337,964,1018
4338,965,1018
4339,966,1019
4340,972,1018
4341,974,1018
4342,973,1022
4343,970,1022
4344,972,1022
4345,972,1023
4346,977,1022
4347,981,1020
4348,983,1018
4349,981,1023
4350,981,1022
4351,985,1022
4352,988,1016
4353,992,1017
4354,994,1016
4355,996,1015
4356,1002,1018
4357,1007,1021
4358,1006,1020
4359,1012,1018
4360,1015,1014
4361,1017,1017
4362,1021,1019
4363,1033,1022
4364,1037,1021
4365,1042,1020
4366,1046,1019
4367,1048,1020
4368,1057,1022
4369,1067,1023
4370,1074,1016
4371,1081,1014
4372,1086,1011
4373,1088,1015
4374,1094,1018
4375,1106,1017
4376,1114,1016
4377,1118,1013
4378,1121,1009
4379,1124,1009
4380,1132,1013
4381,1138,1016
4382,1142,1015
4383,1143,1013
4384,1138,1011
4385,1134,1011
4386,1138,1010
4387,1140,1013
4388,1141,1011
4389,1141,1010
4390,1137,1010
4391,1131,1010
4392,1131,1012
4393,1128,1014
4394,1127,1012
4395,1116,1010
4396,1107,1008
4397,1097,1010
4398,1091,1014
4399,1086,1015
4400,1079,1013
4401,1075,1016
4402,1065,1018
4403,1059,1020
4404,1054,1018
4405,1051,1017
4406,1048,1013
4407,1038,1018
4408,1038,1016
4409,1033,1021
4410,1032,1019
4411,1027,1020
4412,1020,1018
4413,1018,1009
4414,1019,1004
4415,1012,1003
4416,1010,1006
4417,1010,1011
4418,1005,1013
4419,1001,1008
4420,998,1000
4421,997,997
4422,998,1001
4423,1001,1008
4424,1000,1009
4425,997,1004
4426,990,1006
4427,988,1008
4428,988,1013
4429,990,1013
4430,994,1012
4431,993,1013
4432,985,1015
4433,980,1015
4434,980,1013
4435,985,1014
4436,986,1012
4437,982,1014
4438,978,1010
4439,978,1008
4440,981,1007
4441,984,1012
4442,981,1011
4443,979,1009
4444,970,1005
4445,968,1007
4446,969,1011
4447,976,1014
4448,979,1011
4449,976,1008
4450,970,1003
4451,972,1005
4452,973,1008
4453,975,1012
4454,976,1009
4455,973,1011
4456,969,1008
4457,968,1012
4458,974,1014
4459,975,1017
4460,973,1017
4461,971,1014
4462,971,1010
4463,971,1010
4464,975,1013
4465,979,1013
4466,979,1015
4467,977,1014
4468,975,1011
4469,975,1012
4470,975,1013
4471,980,1017
4472,979,1016
4473,981,1013
4474,978,1008
4475,981,1009
4476,982,1012
4477,985,1013
4478,985,1016
4479,983,1021
4480,977,1021
4481,975,1023
4482,980,1018
4483,984,1014
4484,984,1007
4485,982,1003
4486,980,1004
4487,978,1004
4488,976,1007
4489,983,1008
4490,982,1004
4491,982,1004
4492,974,1002
4493,973,1007
4494,971,1005
4495,974,1009
4496,978,1008
4497,981,1008
4498,981,1010
4499,977,1010
4500,970,1010
4501,970,1010
4502,977,1007
4503,983,1006
4504,983,1005
4505,980,1004
4506,972,1008
4507,967,1011
4508,964,1009
4509,967,1006
4510,967,1005
4511,964,1005
4512,971,1011
4513,974,1017
4514,972,1016
4515,971,1017
4516,975,1013
4517,974,1011
4518,970,1011
4519,972,1015
4520,974,1017
4521,976,1017
4522,975,1015
4523,970,1012
4524,966,1014
4525,961,1020
4526,961,1021
4527,961,1018
4528,964,1013
4529,965,1010
4530,961,1008
4531,956,1000
4532,958,997
4533,963,1003
4534,967,1006
4535,967,1007
4536,965,1010
4537,965,1010
4538,969,1009
4539,972,1009
4540,971,1010
4541,969,1010
4542,971,1010
4543,972,1016
4544,969,1017
4545,967,1017
4546,959,1014
4547,960,1016
4548,964,1016
4549,966,1020
4550,965,1019
4551,962,1017
4552,962,1015
4553,964,1019
4554,964,1022
4555,970,1022
4556,972,1018
4557,970,1018
4558,973,1019
4559,975,1015
4560,978,1015
4561,982,1016
4562,990,1016
4563,993,1024
4564,999,1031
4565,999,1036
4566,1009,1041
4567,1019,1045
4568,1028,1047
4569,1033,1046
4570,1034,1044
4571,1029,1039
4572,1030,1042
4573,1038,1043
4574,1045,1041
4575,1040,1033
4576,1032,1028
4577,1028,1025
4578,1025,1025
4579,1021,1026
4580,1012,1023
4581,1001,1023
4582,992,1023
4583,985,1027
4584,984,1029
4585,982,1032
4586,978,1032
4587,972,1035
4588,964,1031
4589,959,1021
4590,951,1012
4591,960,1010
4592,966,1011
4593,967,1014
4594,964,1008
4595,957,1001
4596,959,1003
4597,957,1004
4598,956,1001
4599,957,1001
4600,955,998
4601,948,998
4602,935,1002
4603,935,1002
4604,938,1003
4605,957,1002
4606,1000,1008
4607,1073,1012
4608,1179,1010
4609,1281,1013
4610,1364,1023
4611,1414,1043
4612,1435,1058
4613,1437,1066
4614,1418,1079
4615,1374,1080
4616,1279,1065
4617,1151,1043
4618,1023,1021
4619,895,1004
4620,869,994
4621,904,984
4622,935,973
4623,941,962
4624,930,962
4625,927,970
4626,936,987
4627,937,1002
4628,941,1012
4629,942,1017
4630,937,1017
4631,933,1019
4632,934,1025
4633,936,1030
4634,937,1030
4635,935,1030
4636,935,1028
4637,932,1026
4638,933,1027
4639,938,1027
4640,938,1025
4641,934,1025
4642,930,1026
4643,929,1028
4644,934,1031
4645,941,1031
4646,943,1029
4647,936,1028
4648,921,1021
4649,916,1018
4650,933,1018
4651,940,1019
4652,941,1015
4653,939,1013
4654,936,1011
4655,936,1011
4656,939,1014
4657,941,1014
4658,942,1012
4659,943,1009
4660,942,1007
4661,940,1012
4662,943,1017
4663,946,1022
4664,953,1025
4665,953,1024
4666,950,1022
4667,948,1022
4668,954,1024
4669,958,1027
4670,950,1026
4671,945,1026
4672,948,1028
4673,963,1031
4674,974,1028
4675,971,1019
4676,966,1013
4677,965,1009
4678,960,1008
4679,958,1012
4680,977,1018
4681,981,1023
4682,969,1023
4683,972,1021
4684,978,1017
4685,981,1021
4686,981,1022
4687,993,1025
4688,999,1027
4689,1003,1027
4690,1003,1024
4691,1006,1022
4692,1012,1026
4693,1019,1031
4694,1025,1031
4695,1032,1029
4696,1032,1025
4697,1040,1027
4698,1048,1031
4699,1052,1033
4700,1060,1031
4701,1066,1028
4702,1070,1024
4703,1077,1023
4704,1082,1027
4705,1088,1030
4706,1096,1028
4707,1098,1025
4708,1102,1024
4709,1108,1024
4710,1113,1028
4711,1116,1031
4712,1121,1032
4713,1121,1030
4714,1114,1028
4715,1111,1033
4716,1114,1039
4717,1115,1045
4718,1111,1043
4719,1108,1039
4720,1101,1034
4721,1098,1032
4722,1091,1033
4723,1087,1034
4724,1085,1034
4725,1078,1033
4726,1068,1035
4727,1059,1035
4728,1050,1033
4729,1046,1035
4730,1043,1034
4731,1039,1033
4732,1032,1031
4733,1019,1029
4734,1010,1032
4735,1012,1037
4736,1013,1035
4737,1008,1038
4738,994,1033
4739,990,1032
4740,994,1030
4741,992,1031
4742,992,1031
4743,987,1028
4744,980,1030
4745,976,1029
4746,983,1033
4747,984,1031
4748,973,1025
4749,964,1020
4750,961,1017
4751,966,1021
4752,962,1028
4753,956,1029
4754,955,1028
4755,958,1023
4756,958,1021
4757,954,1028
4758,953,1029
4759,955,1034
4760,956,1034
4761,954,1033
4762,951,1030
4763,952,1030
4764,954,1032
4765,957,1034
4766,956,1031
4767,954,1027
4768,950,1025
4769,946,1026
4770,949,1027
4771,952,1028
4772,957,1026
4773,952,1029
4774,952,1029
4775,951,1029
4776,957,1033
4777,959,1033
4778,957,1033
4779,955,1031
4780,953,1033
4781,955,1036
4782,952,1041
4783,954,1043
4784,960,1040
4785,962,1036
4786,963,1034
4787,967,1037
4788,970,1043
4789,971,1045
4790,975,1037
4791,976,1030
4792,976,1024
4793,975,1026
4794,972,1033
4795,974,1037
4796,974,1038
4797,976,1034
4798,970,1033
4799,965,1034
4800,967,1039
4801,972,1040
4802,975,1038
4803,974,1034
4804,968,1030
4805,965,1031
4806,966,1036
4807,969,1038
4808,970,1041
4809,965,1040
4810,961,1043
4811,963,1043
4812,965,1043
4813,970,1037
4814,972,1027
4815,969,1028
4816,966,1028
4817,965,1034
4818,959,1035
4819,962,1036
4820,963,1034
4821,962,1035
4822,962,1037
4823,962,1039
4824,963,1036
4825,961,1034
4826,957,1027
4827,956,1022
4828,952,1024
4829,956,1028
4830,960,1030
4831,960,1028
4832,960,1021
4833,953,1020
4834,952,1021
4835,953,1023
4836,957,1025
4837,957,1029
4838,956,1034
4839,956,1031
4840,954,1027
4841,951,1026
4842,952,1028
4843,955,1031
4844,955,1027
4845,954,1026
4846,948,1021
4847,946,1024
4848,947,1027
4849,952,1031
4850,953,1028
4851,948,1027
4852,947,1026
4853,947,1025
4854,946,1029
4855,943,1032
4856,945,1034
4857,947,1035
4858,951,1032
4859,943,1025
4860,936,1023
4861,941,1024
4862,951,1027
4863,954,1031
4864,944,1030
4865,939,1031
4866,940,1032
4867,945,1036
4868,946,1042
4869,944,1045
4870,942,1045
4871,943,1043
4872,943,1039
4873,943,1044
4874,942,1043
4875,942,1036
4876,943,1025
4877,941,1019
4878,941,1022
4879,941,1031
4880,941,1031
4881,941,1033
4882,938,1032
4883,934,1032
4884,935,1027
4885,941,1024
4886,943,1019
4887,946,1020
4888,940,1019
4889,937,1024
4890,936,1028
4891,940,1031
4892,948,1028
4893,948,1016
4894,944,1010
4895,940,1013
4896,942,1020
4897,947,1028
4898,953,1027
4899,958,1026
4900,959,1024
4901,961,1033
4902,967,1042
4903,972,1052
4904,978,1051
4905,989,1046
4906,1000,1043
4907,1003,1044
4908,1003,1050
4909,1003,1053
4910,1006,1049
4911,1007,1037
4912,1001,1029
4913,999,1023
4914,993,1023
4915,984,1026
4916,977,1025
4917,964,1025
4918,957,1022
4919,952,1025
4920,947,1030
4921,946,1040
4922,942,1044
4923,934,1043
4924,927,1033
4925,922,1029
4926,925,1024
4927,927,1029
4928,930,1025
4929,930,1024
4930,927,1024
4931,923,1029
4932,924,1034
4933,926,1033
4934,926,1031
4935,922,1026
4936,910,1025
4937,898,1018
4938,892,1010
4939,892,1005
4940,911,1006
4941,961,1013
4942,1041,1013
4943,1155,1002
4944,1268,1004
4945,1356,1028
4946,1409,1051
4947,1433,1066
4948,1429,1075
4949,1408,1082
4950,1345,1078
4951,1237,1057
4952,1109,1037
4953,981,1017
4954,853,1000
4955,862,984
4956,898,966
4957,913,956
4958,908,953
4959,905,960
4960,904,972
4961,908,992
4962,910,1003
4963,907,1009
4964,905,1009
4965,901,1008
4966,899,1012
4967,899,1013
4968,898,1009
4969,902,1006
4970,903,1005
4971,902,1008
4972,898,1009
4973,895,1009
4974,898,1015
4975,899,1023
4976,902,1024
4977,901,1026
4978,898,1024
4979,894,1025
4980,896,1031
4981,900,1033
4982,905,1027
4983,901,1020
4984,902,1017
4985,905,1018
4986,909,1018
4987,912,1009
4988,911,1000
4989,909,1002
4990,906,1006
4991,906,1014
4992,908,1015
4993,910,1017
4994,914,1017
4995,913,1013
4996,911,1011
4997,909,1014
4998,911,1021
4999,917,1025
5000,922,1024
5001,922,1018
5002,920,1013
5003,922,1011
5004,924,1018
5005,925,1027
5006,929,1031
5007,933,1032
5008,932,1027
5009,937,1023
5010,938,1014
5011,941,1011
5012,946,1013
5013,949,1019
5014,951,1023
5015,954,1033
5016,956,1039
5017,962,1042
5018,966,1036
5019,971,1029
5020,973,1020
5021,977,1015
5022,986,1022
5023,992,1029
5024,997,1027
5025,1002,1018
5026,1001,1004
5027,1005,998
5028,1016,1002
5029,1025,1010
5030,1029,1014
5031,1034,1012
5032,1038,1010
5033,1043,1013
5034,1051,1016
5035,1059,1020
5036,1066,1020
5037,1068,1015
5038,1069,1011
5039,1067,1014
5040,1074,1020
5041,1078,1028
5042,1083,1034
5043,1081,1031
5044,1075,1026
5045,1068,1024
5046,1068,1024
5047,1075,1023
5048,1074,1009
5049,1067,994
5050,1057,992
5051,1050,1005
5052,1048,1012
5053,1045,1016
5054,1040,1014
5055,1035,1009
5056,1021,1003
5057,1013,1000
5058,1007,1004
5059,1006,1005
5060,1006,1006
5061,997,1011
5062,988,1017
5063,980,1022
5064,977,1023
5065,977,1021
5066,973,1013
5067,965,1012
5068,957,1009
5069,953,1008
5070,957,1014
5071,953,1021
5072,951,1023
5073,946,1022
5074,942,1022
5075,937,1020
5076,937,1020
5077,942,1019
5078,945,1023
5079,939,1025
5080,933,1025
5081,932,1028
5082,931,1025
5083,934,1023
5084,932,1014
5085,933,1005
5086,933,1002
5087,930,1009
5088,932,1018
5089,932,1022
5090,933,1023
5091,930,1017
5092,931,1015
5093,930,1015
5094,933,1021
5095,936,1028
5096,934,1025
5097,932,1018
5098,929,1018
5099,930,1022
5100,932,1025
5101,935,1018
5102,937,1009
5103,937,1002
5104,935,1004
5105,936,1008
5106,935,1014
5107,938,1019
5108,942,1019
5109,941,1017
5110,940,1014
5111,937,1015
5112,940,1020
5113,944,1030
5114,946,1036
5115,944,1040
5116,944,1044
5117,942,1044
5118,944,1034
5119,946,1020
5120,948,1001
5121,945,997
5122,944,1002
5123,944,1008
5124,950,1016
5125,955,1020
5126,954,1022
5127,946,1020
5128,946,1016
5129,949,1014
5130,950,1015
5131,954,1018
5132,953,1012
5133,952,1005
5134,948,1002
5135,945,1006
5136,947,1012
5137,951,1017
5138,951,1016
5139,949,1011
5140,948,1012
5141,947,1013
5142,948,1013
5143,949,1019
5144,950,1019
5145,949,1020
5146,948,1016
5147,943,1018
5148,946,1020
5149,948,1024
5150,954,1025
5151,949,1016
5152,946,1010
5153,945,1008
5154,946,1015
5155,947,1018
5156,949,1021
5157,948,1018
5158,944,1009
5159,943,1005
5160,945,1006
5161,949,1009
5162,953,1010
5163,952,1011
5164,948,1012
5165,943,1015
5166,948,1021
5167,952,1025
5168,953,1027
5169,954,1027
5170,951,1025
5171,945,1024
5172,946,1020
5173,949,1024
5174,954,1024
5175,954,1023
5176,953,1026
5177,952,1028
5178,951,1033
5179,949,1031
5180,951,1017
5181,955,1001
5182,955,990
5183,952,998
5184,953,1002
5185,955,1003
5186,957,1001
5187,958,1001
5188,956,1002
5189,949,1007
5190,952,1010
5191,957,1015
5192,960,1017
5193,958,1016
5194,954,1016
5195,957,1016
5196,956,1019
5197,961,1019
5198,967,1019
5199,969,1018
5200,965,1023
5201,965,1028
5202,969,1030
5203,978,1027
5204,981,1024
5205,982,1030
5206,986,1036
5207,987,1037
5208,989,1036
5209,993,1032
5210,1000,1033
5211,1014,1037
5212,1024,1040
5213,1027,1047
5214,1029,1038
5215,1031,1034
5216,1034,1026
5217,1034,1027
5218,1029,1024
5219,1025,1021
5220,1024,1019
5221,1018,1020
5222,1009,1020
5223,1000,1019
5224,993,1019
5225,990,1021
5226,989,1022
5227,985,1028
5228,978,1029
5229,970,1029
5230,963,1022
5231,962,1021
5232,966,1021
5233,967,1024
5234,965,1022
5235,962,1018
5236,959,1019
5237,958,1017
5238,960,1015
5239,960,1014
5240,966,1014
5241,966,1011
5242,959,1011
5243,954,1012
5244,950,1014
5245,949,1014
5246,954,1010
5247,967,1011
5248,998,1014
5249,1063,1020
5250,1162,1023
5251,1267,1025
5252,1357,1033
5253,1411,1044
5254,1438,1050
5255,1444,1057
5256,1434,1066
5257,1403,1070
5258,1330,1063
5259,1212,1044
5260,1084,1024
5261,956,1012
5262,874,1006
5263,903,997
5264,945,988
5265,953,980
5266,946,979
5267,936,984
5268,942,993
5269,947,1006
5270,952,1013
5271,951,1016
5272,944,1019
5273,944,1018
5274,946,1021
5275,947,1025
5276,951,1025
5277,950,1023
5278,944,1025
5279,939,1030
5280,945,1036
5281,949,1034
5282,950,1036
5283,950,1032
5284,949,1037
5285,947,1046
5286,951,1051
5287,953,1046
5288,953,1032
5289,950,1023
5290,951,1019
5291,953,1023
5292,953,1028
5293,954,1031
5294,958,1031
5295,960,1031
5296,955,1029
5297,954,1029
5298,955,1035
5299,957,1036
5300,962,1034
5301,963,1031
5302,963,1028
5303,961,1031
5304,963,1035
5305,967,1040
5306,972,1043
5307,970,1043
5308,968,1038
5309,969,1037
5310,971,1037
5311,975,1034
5312,977,1031
5313,978,1025
5314,978,1023
5315,978,1023
5316,982,1023
5317,987,1027
5318,991,1029
5319,991,1026
5320,991,1022
5321,991,1021
5322,996,1025
5323,1001,1027
5324,1008,1027
5325,1012,1026
5326,1018,1022
5327,1022,1025
5328,1031,1027
5329,1035,1033
5330,1031,1033
5331,1027,1029
5332,1031,1026
5333,1043,1027
5334,1053,1026
5335,1061,1030
5336,1066,1030
5337,1072,1031
5338,1076,1032
5339,1081,1030
5340,1089,1032
5341,1098,1034
5342,1106,1033
5343,1111,1031
5344,1111,1030
5345,1114,1034
5346,1119,1038
5347,1121,1042
5348,1126,1041
5349,1124,1043
5350,1124,1044
5351,1124,1039
5352,1131,1033
5353,1128,1026
5354,1122,1023
5355,1111,1025
5356,1108,1030
5357,1102,1030
5358,1102,1032
5359,1100,1035
5360,1094,1035
5361,1087,1034
5362,1079,1033
5363,1072,1035
5364,1066,1035
5365,1063,1039
5366,1061,1040
5367,1048,1038
5368,1038,1039
5369,1029,1041
5370,1027,1051
5371,1027,1059
5372,1025,1057
5373,1016,1043
5374,1008,1027
5375,1004,1019
5376,1003,1021
5377,1002,1030
5378,1003,1037
5379,999,1034
5380,990,1032
5381,984,1031
5382,984,1036
5383,983,1045
5384,986,1039
5385,980,1027
5386,971,1017
5387,965,1016
5388,968,1020
5389,970,1027
5390,973,1028
5391,972,1028
5392,966,1027
5393,962,1027
5394,964,1031
5395,969,1031
5396,970,1031
5397,966,1031
5398,965,1031
5399,961,1034
5400,961,1036
5401,967,1038
5402,969,1033
5403,967,1032
5404,967,1029
5405,966,1031
5406,967,1032
5407,970,1035
5408,972,1034
5409,971,1031
5410,969,1029
5411,970,1031
5412,972,1037
5413,975,1035
5414,977,1038
5415,980,1034
5416,977,1029
5417,980,1031
5418,981,1035
5419,985,1036
5420,985,1034
5421,983,1033
5422,984,1029
5423,983,1030
5424,985,1031
5425,986,1035
5426,984,1031
5427,982,1031
5428,983,1027
5429,979,1028
5430,979,1028
5431,982,1030
5432,985,1027
5433,985,1027
5434,981,1027
5435,978,1028
5436,977,1028
5437,980,1031
5438,983,1033
5439,981,1030
5440,979,1027
5441,973,1028
5442,977,1028
5443,978,1031
5444,976,1031
5445,976,1031
5446,975,1033
5447,972,1035
5448,971,1036
5449,972,1035
5450,974,1031
5451,972,1029
5452,967,1021
5453,965,1020
5454,965,1022
5455,969,1025
5456,971,1030
5457,970,1029
5458,967,1027
5459,966,1025
5460,965,1020
5461,967,1016
5462,971,1015
5463,970,1016
5464,967,1017
5465,967,1023
5466,970,1024
5467,970,1026
5468,966,1029
5469,958,1028
5470,957,1025
5471,960,1021
5472,965,1019
5473,963,1018
5474,966,1017
5475,965,1017
5476,963,1015
5477,959,1013
5478,960,1016
5479,960,1018
5480,963,1021
5481,963,1018
5482,958,1018
5483,957,1018
5484,955,1023
5485,959,1026
5486,961,1027
5487,962,1024
5488,959,1020
5489,953,1021
5490,957,1024
5491,960,1026
5492,962,1026
5493,960,1024
5494,957,1024
5495,956,1027
5496,957,1031
5497,958,1031
5498,962,1031
5499,959,1025
5500,955,1026
5501,955,1028
5502,957,1031
5503,962,1033
5504,966,1034
5505,969,1033
5506,970,1033
5507,966,1038
5508,976,1048
5509,984,1056
5510,985,1061
5511,989,1062
5512,991,1063
5513,996,1065
5514,1007,1067
5515,1013,1067
5516,1018,1065
5517,1021,1058
5518,1022,1051
5519,1018,1053
5520,1019,1053
5521,1020,1049
5522,1025,1042
5523,1023,1035
5524,1011,1029
5525,995,1027
5526,985,1027
5527,980,1034
5528,980,1032
5529,979,1035
5530,969,1033
5531,958,1032
5532,956,1031
5533,954,1032
5534,956,1032
5535,955,1030
5536,954,1028
5537,948,1030
5538,946,1032
5539,946,1032
5540,946,1031
5541,949,1030
5542,948,1031
5543,945,1031
5544,945,1034
5545,943,1032
5546,940,1033
5547,928,1031
5548,913,1028
5549,906,1028
5550,918,1032
5551,948,1036
5552,1010,1037
5553,1103,1033
5554,1215,1029
5555,1319,1037
5556,1398,1049
5557,1442,1069
5558,1455,1081
5559,1448,1080
5560,1418,1061
5561,1356,1034
5562,1250,1015
5563,1122,1001
5564,994,987
5565,880,973
5566,887,963
5567,926,959
5568,943,962
5569,941,970
5570,938,981
5571,939,989
5572,936,995
5573,932,999
5574,931,1004
5575,928,1009
5576,933,1012
5577,932,1011
5578,928,1009
5579,926,1012
5580,927,1013
5581,925,1018
5582,928,1016
5583,929,1014
5584,924,1010
5585,922,1014
5586,920,1016
5587,922,1021
5588,926,1024
5589,927,1023
5590,926,1019
5591,926,1020
5592,925,1024
5593,929,1026
5594,931,1026
5595,926,1022
5596,924,1017
5597,923,1021
5598,924,1026
5599,932,1031
5600,937,1032
5601,937,1032
5602,935,1031
5603,930,1036
5604,930,1041
5605,936,1039
5606,944,1033
5607,944,1027
5608,938,1023
5609,936,1023
5610,939,1027
5611,944,1029
5612,949,1029
5613,947,1032
5614,946,1032
5615,948,1032
5616,951,1032
5617,955,1034
5618,958,1032
5619,960,1033
5620,957,1026
5621,961,1028
5622,961,1034
5623,962,1041
5624,969,1045
5625,972,1038
5626,969,1034
5627,971,1040
5628,976,1050
5629,981,1052
5630,984,1030
5631,993,1010
5632,993,1001
5633,994,1005
5634,996,1011
5635,1004,1021
5636,1007,1022
5637,1014,1018
5638,1017,1015
5639,1021,1014
5640,1027,1014
5641,1034,1017
5642,1039,1018
5643,1045,1017
5644,1046,1014
5645,1051,1014
5646,1056,1017
5647,1061,1018
5648,1067,1017
5649,1070,1014
5650,1070,1014
5651,1073,1017
5652,1076,1019
5653,1079,1022
5654,1084,1028
5655,1083,1031
5656,1080,1031
5657,1081,1031
5658,1080,1031
5659,1082,1029
5660,1080,1023
5661,1074,1016
5662,1070,1011
5663,1064,1011
5664,1064,1013
5665,1061,1012
5666,1059,1009
5667,1051,1009
5668,1045,1012
5669,1036,1014
5670,1033,1017
5671,1028,1022
5672,1024,1022
5673,1018,1019
5674,1010,1015
5675,1004,1016
5676,999,1022
5677,994,1028
5678,995,1030
5679,991,1028
5680,984,1024
5681,977,1025
5682,978,1026
5683,980,1029
5684,982,1028
5685,978,1028
5686,974,1027
5687,968,1028
5688,966,1031
5689,965,1030
5690,968,1030
5691,970,1029
5692,965,1024
5693,960,1030
5694,959,1035
5695,962,1038
5696,965,1033
5697,966,1029
5698,961,1025
5699,957,1022
5700,962,1022
5701,962,1022
5702,964,1024
5703,967,1023
5704,963,1019
5705,965,1020
5706,961,1026
5707,963,1032
5708,968,1030
5709,968,1023
5710,968,1013
5711,968,1013
5712,967,1016
5713,968,1021
5714,972,1020
5715,971,1021
5716,968,1018
5717,968,1020
5718,971,1026
5719,973,1026
5720,978,1025
5721,975,1024
5722,974,1026
5723,971,1030
5724,972,1037
5725,975,1040
5726,978,1037
5727,976,1034
5728,975,1028
5729,977,1031
5730,976,1033
5731,976,1036
5732,980,1036
5733,977,1029
5734,975,1022
5735,971,1015
5736,974,1013
5737,978,1020
5738,979,1024
5739,982,1020
5740,979,1017
5741,976,1016
5742,974,1018
5743,976,1026
5744,977,1026
5745,978,1026
5746,979,1027
5747,979,1028
5748,979,1029
5749,980,1032
5750,977,1024
5751,973,1018
5752,967,1016
5753,967,1020
5754,970,1030
5755,970,1037
5756,966,1030
5757,966,1016
5758,965,1008
5759,960,1009
5760,959,1021
5761,960,1026
5762,967,1015
5763,966,1000
5764,960,990
5765,960,991
5766,963,999
5767,963,1008
5768,964,1006
5769,965,1006
5770,961,1005
5771,960,1009
5772,961,1016
5773,963,1020
5774,968,1021
5775,966,1022
5776,969,1017
5777,967,1018
5778,968,1023
5779,969,1025
5780,968,1024
5781,967,1017
5782,964,1014
5783,960,1015
5784,960,1021
5785,962,1034
5786,965,1043
5787,965,1039
5788,970,1022
5789,967,1005
5790,960,995
5791,960,995
5792,961,998
5793,965,1001
5794,966,1003
5795,963,1003
5796,963,1004
5797,964,1005
5798,967,1005
5799,969,1007
5800,968,1010
5801,970,1010
5802,966,1012
5803,966,1018
5804,968,1021
5805,968,1027
5806,967,1030
5807,963,1037
5808,961,1039
5809,968,1036
5810,980,1026
5811,983,1022
5812,983,1021
5813,982,1034
5814,987,1049
5815,992,1064
5816,998,1064
5817,1002,1053
5818,1006,1033
5819,1020,1025
5820,1029,1028
5821,1033,1035
5822,1034,1040
5823,1031,1039
5824,1031,1036
5825,1027,1033
5826,1030,1027
5827,1030,1024
5828,1031,1015
5829,1020,1008
5830,1007,1002
5831,999,1005
5832,991,1011
5833,991,1018
5834,988,1020
5835,978,1025
5836,971,1025
5837,961,1023
5838,956,1023
5839,961,1017
5840,964,1013
5841,960,1013
5842,955,1010
5843,955,1007
5844,953,1008
5845,957,1015
5846,964,1018
5847,964,1020
5848,960,1016
5849,956,1011
5850,950,1007
5851,946,1010
5852,935,1010
5853,924,1007
5854,922,1000
5855,939,1000
5856,983,1014
5857,1058,1034
5858,1161,1039
5859,1268,1035
5860,1353,1027
5861,1408,1024
5862,1436,1031
5863,1447,1044
5864,1438,1054
5865,1406,1061
5866,1342,1057
5867,1231,1047
5868,1103,1034
5869,975,1023
5870,888,1006
5871,898,987
5872,928,972
5873,943,962
5874,941,964
5875,939,974
5876,944,989
5877,944,1003
5878,944,1008
5879,938,1010
5880,935,1014
5881,935,1013
5882,939,1012
5883,938,1011
5884,936,1010
5885,934,1012
5886,935,1019
5887,935,1029
5888,936,1034
5889,935,1027
5890,932,1011
5891,932,1007
5892,933,1006
5893,935,1015
5894,938,1018
5895,939,1017
5896,938,1016
5897,934,1017
5898,934,1022
5899,936,1024
5900,938,1028
5901,939,1026
5902,939,1024
5903,933,1021
5904,936,1022
5905,935,1027
5906,940,1029
5907,941,1028
5908,941,1025
5909,940,1021
5910,941,1021
5911,943,1022
5912,946,1020
5913,946,1018
5914,945,1016
5915,946,1017
5916,947,1018
5917,950,1018
5918,952,1021
5919,953,1019
5920,953,1016
5921,949,1015
5922,952,1017
5923,951,1020
5924,956,1022
5925,961,1023
5926,960,1021
5927,961,1022
5928,965,1029
5929,967,1033
5930,973,1029
5931,973,1022
5932,970,1015
5933,969,1011
5934,973,1008
5935,976,1010
5936,982,1017
5937,984,1017
5938,987,1018
5939,988,1020
5940,990,1023
5941,997,1028
5942,1003,1028
5943,1003,1027
5944,1005,1017
5945,1002,1014
5946,1009,1011
5947,1020,1016
5948,1022,1015
5949,1027,1014
5950,1027,1012
5951,1028,1014
5952,1033,1018
5953,1041,1020
5954,1050,1022
5955,1051,1019
5956,1053,1017
5957,1056,1016
5958,1060,1019
5959,1065,1022
5960,1072,1019
5961,1072,1016
5962,1074,1016
5963,1072,1017
5964,1075,1023
5965,1079,1024
5966,1086,1025
5967,1086,1026
5968,1082,1027
5969,1079,1035
5970,1080,1042
5971,1082,1045
5972,1083,1040
5973,1076,1032
5974,1073,1024
5975,1062,1017
5976,1055,1015
5977,1047,1016
5978,1047,1022
5979,1048,1029
5980,1048,1039
5981,1039,1040
5982,1036,1036
5983,1036,1033
5984,1037,1032
5985,1026,1034
5986,1013,1030
5987,999,1026
5988,996,1019
5989,1002,1015
5990,1009,1016
5991,1004,1019
5992,994,1014
5993,988,1012
5994,988,1016
5995,992,1025
5996,992,1031
5997,988,1030
5998,984,1028
5999,975,1026
6000,974,1029
6001,976,1030
6002,981,1017
6003,979,1010
6004,975,1006
6005,970,1010
6006,967,1020
6007,967,1027
6008,971,1031
6009,970,1034
6010,967,1037
6011,968,1043
6012,969,1050
6013,968,1054
6014,965,1050
6015,966,1054
6016,973,1047
6017,972,1033
6018,975,1016
6019,974,1009
6020,971,1004
6021,970,1010
6022,969,1016
6023,970,1027
6024,970,1044
6025,970,1049
6026,971,1040
6027,975,1025
6028,979,1006
6029,977,1002
6030,976,1003
6031,981,1012
6032,986,1017
6033,984,1016
6034,983,1012
6035,980,1011
6036,977,1009
6037,980,1013
6038,983,1016
6039,984,1018
6040,980,1018
6041,979,1023
6042,979,1022
6043,983,1022
6044,986,1019
6045,986,1018
6046,982,1017
6047,978,1020
6048,981,1025
6049,983,1024
6050,985,1016
6051,983,1013
6052,983,1012
6053,978,1014
6054,979,1019
6055,982,1022
6056,981,1023
6057,982,1021
6058,977,1020
6059,977,1019
6060,974,1022
6061,978,1023
6062,976,1026
6063,975,1026
6064,974,1025
6065,969,1026
6066,970,1027
6067,974,1031
6068,975,1032
6069,974,1033
6070,967,1028
6071,966,1027
6072,969,1028
6073,970,1029
6074,972,1026
6075,969,1022
6076,962,1018
6077,963,1019
6078,966,1021
6079,970,1026
6080,971,1026
6081,964,1026
6082,958,1024
6083,960,1025
6084,964,1025
6085,968,1029
6086,966,1034
6087,963,1038
6088,957,1041
6089,953,1035
6090,955,1023
6091,961,1020
6092,965,1015
6093,964,1017
6094,959,1018
6095,957,1017
6096,955,1021
6097,962,1024
6098,966,1026
6099,964,1024
6100,958,1025
6101,955,1025
6102,957,1030
6103,960,1031
6104,962,1032
6105,960,1028
6106,960,1026
6107,958,1026
6108,956,1031
6109,959,1032
6110,962,1036
6111,959,1031
6112,960,1031
6113,958,1034
6114,959,1037
6115,963,1039
6116,964,1037
6117,965,1039
6118,964,1033
6119,961,1035
6120,963,1040
6121,968,1042
6122,974,1043
6123,978,1045
6124,979,1047
6125,980,1053
6126,980,1065
6127,988,1071
6128,995,1070
6129,1001,1067
6130,1008,1064
6131,1018,1063
6132,1024,1062
6133,1031,1065
6134,1032,1061
6135,1031,1056
6136,1030,1052
6137,1032,1048
6138,1036,1045
6139,1033,1041
6140,1025,1034
6141,1007,1025
6142,989,1022
6143,984,1022
6144,985,1027
6145,981,1029
6146,978,1029
6147,972,1030
6148,965,1029
6149,954,1030
6150,950,1027
6151,952,1031
6152,955,1033
6153,955,1029
6154,953,1022
6155,951,1022
6156,953,1019
6157,952,1024
6158,956,1025
6159,956,1025
6160,953,1022
6161,948,1021
6162,941,1025
6163,933,1024
6164,922,1018
6165,918,1011
6166,929,1007
6167,958,1011
6168,1011,1019
6169,1101,1024
6170,1207,1025
6171,1307,1026
6172,1375,1030
6173,1417,1039
6174,1435,1051
6175,1437,1066
6176,1421,1076
6177,1374,1077
6178,1284,1064
6179,1156,1048
6180,1028,1035
6181,902,1021
6182,884,1011
6183,912,996
6184,933,983
6185,936,976
6186,936,977
6187,941,986
6188,947,1000
6189,947,1010
6190,943,1017
6191,941,1020
6192,936,1028
6193,935,1032
6194,939,1032
6195,939,1030
6196,936,1027
6197,929,1029
6198,931,1033
6199,935,1035
6200,944,1038
6201,944,1039
6202,938,1035
6203,925,1035
6204,922,1037
6205,930,1040
6206,943,1042
6207,945,1043
6208,940,1037
6209,937,1039
6210,935,1039
6211,937,1041
6212,938,1039
6213,933,1035
6214,931,1030
6215,931,1033
6216,935,1039
6217,935,1042
6218,936,1042
6219,939,1038
6220,940,1034
6221,940,1034
6222,941,1037
6223,941,1041
6224,942,1041
6225,943,1041
6226,942,1041
6227,939,1042
6228,942,1042
6229,945,1041
6230,949,1037
6231,949,1039
6232,950,1036
6233,948,1039
6234,952,1037
6235,954,1038
6236,959,1038
6237,960,1036
6238,957,1033
6239,955,1034
6240,955,1039
6241,962,1040
6242,967,1042
6243,970,1037
6244,968,1037
6245,974,1038
6246,979,1042
6247,984,1048
6248,991,1053
6249,993,1054
6250,992,1055
6251,984,1048
6252,983,1037
6253,989,1026
6254,997,1017
6255,1002,1018
6256,1001,1020
6257,998,1023
6258,1003,1027
6259,1008,1028
6260,1017,1029
6261,1022,1027
6262,1019,1027
6263,1022,1027
6264,1031,1029
6265,1036,1032
6266,1044,1032
6267,1047,1030
6268,1045,1029
6269,1048,1030
6270,1053,1029
6271,1060,1031
6272,1062,1029
6273,1064,1031
6274,1059,1031
6275,1059,1027
6276,1061,1028
6277,1062,1033
6278,1065,1031
6279,1061,1033
6280,1056,1029
6281,1053,1032
6282,1054,1034
6283,1056,1037
6284,1052,1040
6285,1047,1041
6286,1039,1038
6287,1031,1040
6288,1031,1040
6289,1029,1041
6290,1024,1038
6291,1019,1036
6292,1017,1034
6293,1011,1038
6294,1008,1039
6295,1006,1043
6296,1005,1043
6297,1001,1042
6298,995,1041
6299,989,1043
6300,986,1051
6301,984,1056
6302,977,1054
6303,973,1049
6304,971,1042
6305,970,1038
6306,971,1039
6307,967,1045
6308,970,1040
6309,962,1037
6310,957,1031
6311,955,1030
6312,958,1034
6313,963,1036
6314,963,1034
6315,963,1036
6316,965,1034
6317,963,1034
6318,960,1035
6319,961,1036
6320,961,1040
6321,962,1036
6322,961,1033
6323,953,1035
6324,954,1038
6325,957,1042
6326,962,1042
6327,964,1038
6328,962,1035
6329,956,1036
6330,959,1038
6331,960,1038
6332,963,1039
6333,962,1038
6334,961,1037
6335,961,1042
6336,959,1049
6337,963,1054
6338,967,1051
6339,966,1044
6340,965,1041
6341,964,1043
6342,963,1051
6343,968,1062
6344,975,1058
6345,969,1047
6346,960,1037
6347,960,1029
6348,966,1028
6349,969,1033
6350,970,1032
6351,967,1032
6352,966,1029
6353,966,1028
6354,964,1030
6355,967,1038
6356,970,1036
6357,970,1036
6358,969,1034
6359,962,1032
6360,965,1038
6361,966,1041
6362,966,1048
6363,965,1053
6364,963,1051
6365,958,1049
6366,953,1041
6367,954,1034
6368,961,1033
6369,962,1031
6370,962,1036
6371,962,1037
6372,963,1037
6373,962,1040
6374,964,1037
6375,962,1035
6376,957,1034
6377,950,1036
6378,950,1037
6379,956,1040
6380,954,1041
6381,951,1042
6382,951,1041
6383,949,1048
6384,948,1057
6385,954,1060
6386,958,1053
6387,957,1038
6388,954,1033
6389,951,1030
6390,953,1033
6391,959,1031
6392,957,1029
6393,955,1031
6394,952,1032
6395,951,1032
6396,953,1030
6397,958,1030
6398,955,1026
6399,952,1025
6400,953,1026
6401,954,1029
6402,957,1031
6403,957,1034
6404,960,1034
6405,956,1033
6406,947,1033
6407,942,1032
6408,945,1032
6409,950,1033
6410,954,1036
6411,958,1035
6412,954,1037
6413,949,1035
6414,951,1038
6415,953,1038
6416,958,1040
6417,962,1040
6418,963,1038
6419,962,1039
6420,964,1045
6421,968,1053
6422,980,1057
6423,986,1060
6424,985,1060
6425,982,1059
6426,977,1060
6427,984,1060
6428,1001,1060
6429,1013,1059
6430,1015,1058
6431,1009,1062
6432,1010,1065
6433,1012,1062
6434,1017,1062
6435,1013,1054
6436,1008,1048
6437,999,1042
6438,994,1037
6439,990,1038
6440,986,1037
6441,978,1036
6442,974,1036
6443,968,1038
6444,964,1039
6445,958,1040
6446,959,1039
6447,957,1036
6448,953,1033
6449,947,1032
6450,948,1034
6451,952,1034
6452,955,1030
6453,953,1030
6454,945,1029
6455,937,1031
6456,940,1031
6457,947,1037
6458,951,1036
6459,947,1030
6460,944,1022
6461,937,1021
6462,938,1019
6463,944,1017
6464,960,1019
6465,986,1024
6466,1035,1029
6467,1109,1034
6468,1204,1038
6469,1287,1043
6470,1354,1047
6471,1394,1049
6472,1409,1047
6473,1404,1047
6474,1384,1055
6475,1336,1055
6476,1247,1044
6477,1124,1026
6478,996,1013
6479,891,1006
6480,868,1005
6481,886,1001
6482,911,990
6483,919,983
6484,912,979
6485,911,979
6486,916,990
6487,924,1001
6488,932,1005
6489,937,1010
6490,933,1009
6491,929,1010
6492,923,1016
6493,923,1023
6494,927,1022
6495,929,1022
6496,927,1022
6497,925,1019
6498,925,1022
6499,930,1026
6500,935,1024
6501,937,1025
6502,938,1023
6503,937,1023
6504,934,1026
6505,931,1029
6506,929,1030
6507,931,1030
6508,935,1026
6509,935,1022
6510,932,1022
6511,932,1024
6512,939,1024
6513,939,1023
6514,941,1021
6515,938,1019
6516,938,1023
6517,936,1025
6518,935,1029
6519,939,1026
6520,941,1027
6521,940,1024
6522,934,1024
6523,936,1029
6524,941,1032
6525,950,1034
6526,950,1034
6527,946,1033
6528,946,1025
6529,951,1016
6530,954,1013
6531,954,1012
6532,953,1014
6533,953,1016
6534,955,1014
6535,958,1016
6536,961,1017
6537,960,1017
6538,957,1020
6539,956,1019
6540,961,1023
6541,968,1024
6542,976,1021
6543,977,1020
6544,974,1021
6545,974,1022
6546,980,1022
6547,981,1021
6548,982,1023
6549,983,1024
6550,984,1023
6551,985,1025
6552,990,1026
6553,995,1030
6554,1003,1025
6555,998,1022
6556,998,1019
6557,999,1020
6558,1007,1025
6559,1012,1028
6560,1015,1031
6561,1021,1033
6562,1025,1035
6563,1032,1036
6564,1042,1036
6565,1053,1035
6566,1056,1028
6567,1058,1025
6568,1051,1028
6569,1054,1028
6570,1058,1029
6571,1059,1022
6572,1061,1012
6573,1066,1006
6574,1068,1003
6575,1066,1009
6576,1070,1010
6577,1073,1014
6578,1077,1014
6579,1077,1013
6580,1074,1018
6581,1067,1022
6582,1068,1025
6583,1069,1032
6584,1066,1036
6585,1062,1039
6586,1056,1042
6587,1049,1039
6588,1046,1030
6589,1046,1025
6590,1042,1020
6591,1038,1024
6592,1028,1025
6593,1020,1028
6594,1018,1037
6595,1016,1047
6596,1012,1045
6597,1011,1032
6598,1009,1018
6599,1002,1012
6600,1000,1016
6601,999,1026
6602,998,1027
6603,994,1023
6604,989,1018
6605,990,1015
6606,990,1015
6607,987,1018
6608,987,1019
6609,984,1018
6610,977,1014
6611,972,1014
6612,974,1019
6613,972,1024
6614,977,1029
6615,978,1034
6616,973,1036
6617,968,1040
6618,968,1038
6619,972,1032
6620,976,1028
6621,980,1024
6622,977,1024
6623,970,1024
6624,970,1032
6625,973,1038
6626,977,1039
6627,976,1033
6628,967,1021
6629,970,1019
6630,971,1025
6631,978,1031
6632,985,1031
6633,984,1025
6634,982,1021
6635,978,1020
6636,975,1024
6637,976,1033
6638,983,1039
6639,983,1040
6640,983,1038
6641,983,1040
6642,983,1036
6643,988,1031
6644,992,1021
6645,991,1016
6646,987,1021
6647,984,1029
6648,986,1033
6649,993,1035
6650,1000,1034
6651,997,1030
6652,987,1027
6653,982,1029
6654,985,1031
6655,988,1029
6656,990,1029
6657,990,1037
6658,987,1046
6659,984,1055
6660,983,1062
6661,986,1060
6662,990,1047
6663,989,1028
6664,985,1008
6665,982,998
6666,985,997
6667,988,1000
6668,986,1000
6669,984,998
6670,983,1001
6671,979,1000
6672,981,1004
6673,982,1006
6674,983,1005
6675,979,1004
6676,973,1003
6677,974,1002
6678,976,1010
6679,979,1015
6680,980,1013
6681,976,1008
6682,974,1006
6683,972,1010
6684,970,1015
6685,969,1017
6686,973,1015
6687,971,1012
6688,971,1009
6689,966,1011
6690,970,1017
6691,970,1021
6692,978,1020
6693,977,1015
6694,974,1011
6695,970,1011
6696,973,1013
6697,978,1021
6698,981,1023
6699,979,1027
6700,978,1026
6701,978,1030
6702,985,1030
6703,990,1032
6704,992,1032
6705,992,1030
6706,991,1025
6707,988,1025
6708,994,1032
6709,999,1036
6710,1010,1034
6711,1017,1033
6712,1024,1035
6713,1020,1042
6714,1017,1054
6715,1020,1059
6716,1030,1055
6717,1036,1040
6718,1038,1027
6719,1034,1022
6720,1031,1022
6721,1023,1020
6722,1021,1013
6723,1014,1001
6724,1005,993
6725,994,997
6726,991,1002
6727,989,998
6728,982,986
6729,977,977
6730,971,977
6731,967,981
6732,965,987
6733,965,992
6734,969,993
6735,966,993
6736,963,992
6737,964,995
6738,964,998
6739,969,1002
6740,974,1006
6741,974,1007
6742,970,1003
6743,968,1002
6744,968,1005
6745,967,1006
6746,966,1006
6747,960,1002
6748,962,999
6749,978,994
6750,1010,1002
6751,1060,1016
6752,1125,1031
6753,1212,1038
6754,1289,1040
6755,1345,1037
6756,1386,1041
6757,1404,1045
6758,1402,1055
6759,1377,1069
6760,1321,1069
6761,1232,1054
6762,1121,1030
6763,1005,1009
6764,921,991
6765,894,979
6766,909,966
6767,924,961
6768,929,963
6769,930,972
6770,936,977
6771,941,981
6772,948,978
6773,947,981
6774,949,989
6775,952,998
6776,952,1005
6777,956,1008
6778,952,1011
6779,951,1029
6780,956,1052
6781,955,1063
6782,949,1056
6783,944,1031
6784,942,1014
6785,948,1013
6786,952,1016
6787,951,1001
6788,950,980
6789,952,965
6790,953,969
6791,957,979
6792,951,983
6793,949,988
6794,952,990
6795,955,994
6796,954,994
6797,953,994
6798,957,992
6799,961,993
6800,961,997
6801,960,1000
6802,962,1003
6803,963,1008
6804,963,1014
6805,956,1020
6806,951,1019
6807,954,1015
6808,959,1010
6809,957,1003
6810,960,1007
6811,967,1008
6812,974,1010
6813,977,1008
6814,971,1007
6815,967,1008
6816,964,1011
6817,968,1016
6818,973,1018
6819,979,1020
6820,981,1023
6821,975,1024
6822,976,1024
6823,980,1026
6824,987,1026
6825,990,1018
6826,991,1007
6827,989,1004
6828,995,1008
6829,997,1015
6830,999,1017
6831,997,1018
6832,1000,1021
6833,998,1027
6834,999,1029
6835,1001,1036
6836,1005,1037
6837,1005,1038
6838,1007,1039
6839,1009,1034
6840,1015,1026
6841,1026,1022
6842,1034,1021
6843,1039,1021
6844,1039,1022
6845,1037,1026
6846,1037,1027
6847,1044,1032
6848,1051,1031
6849,1050,1027
6850,1048,1022
6851,1048,1022
6852,1052,1025
6853,1053,1024
6854,1050,1020
6855,1051,1013
6856,1052,1007
6857,1055,1006
6858,1058,1012
6859,1061,1014
6860,1058,1015
6861,1052,1017
6862,1048,1014
6863,1045,1013
6864,1046,1014
6865,1045,1017
6866,1043,1023
6867,1034,1023
6868,1028,1022
6869,1025,1022
6870,1024,1022
6871,1019,1026
6872,1011,1025
6873,1005,1028
6874,1006,1029
6875,1006,1029
6876,1004,1029
6877,995,1026
6878,991,1031
6879,990,1034
6880,989,1037
6881,979,1038
6882,974,1038
6883,973,1033
6884,976,1023
6885,975,1018
6886,970,1021
6887,965,1025
6888,967,1029
6889,967,1025
6890,972,1024
6891,972,1026
6892,969,1027
6893,967,1024
6894,966,1029
6895,972,1028
6896,975,1026
6897,969,1026
6898,964,1025
6899,967,1027
6900,969,1030
6901,972,1030
6902,976,1033
6903,979,1034
6904,980,1031
6905,977,1032
6906,977,1034
6907,981,1034
6908,983,1030
6909,984,1033
6910,986,1035
6911,986,1035
6912,988,1038
6913,992,1040
6914,994,1037
6915,995,1031
6916,995,1026
6917,994,1025
6918,995,1028
6919,997,1030
6920,998,1032
6921,995,1032
6922,997,1031
6923,993,1033
6924,994,1034
6925,998,1031
6926,997,1029
6927,993,1029
6928,992,1029
6929,994,1029
6930,995,1032
6931,1003,1033
6932,1003,1034
6933,995,1034
6934,983,1033
6935,977,1034
6936,983,1037
6937,990,1034
6938,992,1031
6939,992,1027
6940,989,1031
6941,986,1030
6942,984,1033
6943,984,1034
6944,985,1032
6945,983,1028
6946,977,1027
6947,979,1027
6948,978,1032
6949,975,1034
6950,980,1034
6951,981,1034
6952,980,1032
6953,979,1031
6954,977,1031
6955,972,1033
6956,968,1037
6957,966,1033
6958,964,1030
6959,965,1030
6960,966,1033
6961,968,1035
6962,975,1034
6963,975,1032
6964,974,1029
6965,960,1031
6966,957,1036
6967,957,1036
6968,962,1036
6969,965,1031
6970,962,1030
6971,959,1034
6972,961,1036
6973,966,1038
6974,969,1037
6975,971,1036
6976,970,1032
6977,967,1035
6978,965,1037
6979,961,1041
6980,966,1042
6981,967,1041
6982,961,1033
6983,958,1036
6984,960,1041
6985,966,1046
6986,966,1047
6987,961,1043
6988,962,1037
6989,964,1034
6990,958,1034
6991,963,1033
6992,972,1035
6993,976,1035
6994,972,1038
6995,980,1043
6996,984,1051
6997,990,1060
6998,995,1064
6999,998,1063
7000,996,1062
7001,997,1060
7002,1004,1065
7003,1013,1070
7004,1024,1072
7005,1032,1071
7006,1033,1064
7007,1029,1063
7008,1026,1064
7009,1023,1065
7010,1019,1064
7011,1013,1055
7012,1005,1044
7013,1000,1040
7014,991,1041
7015,987,1043
7016,985,1046
7017,977,1043
7018,971,1042
7019,959,1042
7020,953,1046
7021,952,1051
7022,957,1052
7023,958,1048
7024,956,1041
7025,957,1040
7026,957,1039
7027,958,1045
7028,960,1046
7029,957,1046
7030,951,1042
7031,949,1046
7032,949,1049
7033,948,1047
7034,945,1042
7035,939,1039
7036,940,1035
7037,949,1034
7038,968,1035
7039,1019,1043
7040,1104,1051
7041,1208,1054
7042,1294,1056
7043,1356,1066
7044,1396,1075
7045,1417,1081
7046,1411,1081
7047,1370,1076
7048,1294,1067
7049,1186,1043
7050,1059,1022
7051,940,1008
7052,879,1002
7053,889,1007
7054,920,1007
7055,936,1009
7056,938,1012
7057,938,1018
7058,939,1017
7059,944,1013
7060,941,1015
7061,939,1019
7062,934,1030
7063,937,1034
7064,938,1036
7065,936,1034
7066,929,1035
7067,922,1031
7068,927,1037
7069,932,1037
7070,934,1040
7071,934,1040
7072,934,1040
7073,930,1041
7074,935,1044
7075,936,1048
7076,938,1047
7077,938,1049
7078,936,1048
7079,931,1046
7080,933,1046
7081,936,1045
7082,939,1049
7083,937,1053
7084,936,1056
7085,935,1052
7086,938,1045
7087,942,1038
7088,948,1035
7089,948,1035
7090,948,1035
7091,943,1038
7092,940,1041
7093,940,1040
7094,945,1040
7095,947,1034
7096,946,1031
7097,939,1034
7098,939,1035
7099,942,1038
7100,949,1040
7101,952,1040
7102,949,1037
7103,950,1037
7104,952,1042
7105,956,1046
7106,962,1050
7107,961,1049
7108,962,1053
7109,962,1050
7110,964,1054
7111,967,1054
7112,978,1057
7113,980,1058
7114,974,1058
7115,971,1059
7116,971,1050
7117,977,1045
7118,987,1035
7119,988,1027
7120,991,1027
7121,993,1029
7122,995,1033
7123,1002,1036
7124,1007,1040
7125,1007,1039
7126,1011,1035
7127,1010,1032
7128,1012,1034
7129,1014,1040
7130,1021,1043
7131,1024,1042
7132,1025,1041
7133,1027,1038
7134,1029,1037
7135,1037,1042
7136,1042,1045
7137,1046,1049
7138,1041,1044
7139,1039,1048
7140,1043,1050
7141,1051,1051
7142,1055,1044
7143,1048,1036
7144,1046,1035
7145,1042,1038
7146,1038,1045
7147,1040,1046
7148,1042,1046
7149,1041,1046
7150,1034,1043
7151,1027,1043
7152,1020,1044
7153,1024,1050
7154,1024,1054
7155,1021,1056
7156,1014,1052
7157,1009,1047
7158,1007,1045
7159,1007,1045
7160,1006,1043
7161,1001,1040
7162,995,1037
7163,990,1029
7164,990,1031
7165,992,1034
7166,991,1035
7167,992,1038
7168,987,1035
7169,982,1038
7170,985,1041
7171,987,1044
7172,982,1045
7173,981,1042
7174,981,1037
7175,978,1035
7176,980,1038
7177,982,1039
7178,984,1046
7179,983,1045
7180,984,1045
7181,981,1048
7182,984,1052
7183,989,1057
7184,996,1060
7185,998,1054
7186,990,1044
7187,985,1031
7188,984,1025
7189,987,1030
7190,990,1034
7191,991,1036
7192,991,1035
7193,989,1031
7194,988,1034
7195,990,1042
7196,997,1046
7197,998,1044
7198,996,1046
7199,993,1046
7200,989,1046
7201,989,1043
7202,994,1042
7203,995,1046
7204,994,1046
7205,995,1049
7206,992,1045
7207,993,1040
7208,995,1033
7209,995,1032
7210,991,1031
7211,988,1035
7212,989,1038
7213,992,1044
7214,994,1046
7215,998,1049
7216,999,1047
7217,994,1047
7218,990,1045
7219,988,1046
7220,985,1041
7221,987,1035
7222,985,1028
7223,982,1029
7224,978,1036
7225,980,1037
7226,984,1039
7227,987,1041
7228,986,1040
7229,982,1045
7230,980,1046
7231,983,1046
7232,985,1045
7233,983,1041
7234,980,1036
7235,976,1034
7236,976,1032
7237,980,1035
7238,982,1034
7239,980,1034
7240,978,1032
7241,976,1029
7242,976,1030
7243,977,1033
7244,981,1035
7245,976,1034
7246,975,1032
7247,969,1029
7248,971,1031
7249,973,1033
7250,976,1036
7251,976,1037
7252,973,1033
7253,970,1033
7254,970,1034
7255,973,1039
7256,976,1041
7257,978,1050
7258,978,1055
7259,974,1053
7260,968,1047
7261,973,1035
7262,974,1029
7263,971,1029
7264,965,1034
7265,963,1036
7266,963,1036
7267,970,1031
7268,977,1027
7269,978,1023
7270,977,1022
7271,971,1019
7272,968,1020
7273,971,1024
7274,974,1028
7275,976,1033
7276,974,1037
7277,971,1035
7278,969,1033
7279,970,1028
7280,976,1024
7281,975,1031
7282,975,1033
7283,970,1037
7284,973,1034
7285,976,1036
7286,982,1035
7287,985,1033
7288,988,1036
7289,992,1030
7290,997,1033
7291,1003,1042
7292,1006,1055
7293,1003,1066
7294,998,1059
7295,997,1046
7296,1008,1040
7297,1027,1047
7298,1041,1057
7299,1045,1064
7300,1041,1057
7301,1038,1056
7302,1037,1051
7303,1038,1046
7304,1042,1044
7305,1035,1041
7306,1028,1043
7307,1017,1047
7308,1002,1050
7309,999,1048
7310,997,1046
7311,993,1047
7312,986,1047
7313,973,1038
7314,974,1020
7315,974,1011
7316,977,1010
7317,975,1007
7318,973,1007
7319,972,1009
7320,974,1012
7321,980,1012
7322,983,1017
7323,981,1022
7324,970,1020
7325,954,1014
7326,945,1010
7327,945,1009
7328,958,1012
7329,993,1019
7330,1055,1023
7331,1154,1029
7332,1264,1035
7333,1362,1047
7334,1422,1069
7335,1452,1088
7336,1455,1097
7337,1439,1084
7338,1390,1061
7339,1302,1041
7340,1182,1024
7341,1054,1005
7342,926,986
7343,900,985
7344,934,993
7345,962,997
7346,965,988
7347,965,977
7348,964,974
7349,966,979
7350,963,988
7351,962,996
7352,963,1003
7353,959,1007
7354,954,1009
7355,946,1013
7356,946,1019
7357,951,1021
7358,953,1020
7359,954,1021
7360,953,1016
7361,951,1016
7362,949,1029
7363,954,1044
7364,960,1041
7365,958,1022
7366,957,1008
7367,954,1004
7368,954,1011
7369,954,1016
7370,960,1019
7371,961,1022
7372,958,1025
7373,956,1016
7374,956,1016
7375,960,1025
7376,963,1034
7377,960,1033
7378,958,1018
7379,960,1005
7380,961,1002
7381,964,1012
7382,968,1019
7383,968,1017
7384,969,1011
7385,969,1008
7386,968,1011
7387,970,1015
7388,976,1017
7389,975,1020
7390,975,1024
7391,974,1022
7392,976,1022
7393,979,1025
7394,985,1028
7395,985,1029
7396,984,1029
7397,983,1026
7398,983,1023
7399,991,1020
7400,995,1017
7401,996,1017
7402,997,1017
7403,997,1018
7404,1000,1025
7405,1006,1030
7406,1012,1040
7407,1014,1038
7408,1012,1026
7409,1011,1020
7410,1015,1021
7411,1021,1031
7412,1029,1037
7413,1029,1033
7414,1027,1023
7415,1030,1013
7416,1032,1013
7417,1035,1020
7418,1042,1025
7419,1047,1029
7420,1049,1023
7421,1050,1013
7422,1054,1010
7423,1055,1015
7424,1062,1024
7425,1066,1038
7426,1064,1043
7427,1062,1039
7428,1063,1037
7429,1068,1033
7430,1072,1024
7431,1071,1015
7432,1063,1013
7433,1058,1016
7434,1060,1014
7435,1060,1011
7436,1060,1018
7437,1062,1022
7438,1051,1020
7439,1044,1018
7440,1043,1021
7441,1042,1028
7442,1040,1038
7443,1037,1039
7444,1028,1039
7445,1023,1038
7446,1024,1037
7447,1023,1029
7448,1024,1021
7449,1019,1016
7450,1013,1015
7451,1005,1018
7452,1006,1023
7453,1008,1027
7454,1010,1019
7455,1005,1012
7456,997,1009
7457,995,1009
7458,993,1017
7459,996,1026
7460,999,1033
7461,996,1034
7462,992,1030
7463,989,1022
7464,991,1018
7465,994,1024
7466,998,1023
7467,999,1023
7468,997,1026
7469,993,1035
7470,994,1052
7471,996,1058
7472,1001,1045
7473,999,1017
7474,999,994
7475,997,997
7476,998,1011
7477,1000,1021
7478,1002,1024
7479,1003,1023
7480,1003,1022
7481,997,1022
7482,1000,1024
7483,1002,1030
7484,1007,1031
7485,1006,1026
7486,1002,1027
7487,999,1027
7488,1000,1029
7489,1001,1032
7490,1003,1034
7491,1005,1033
7492,1005,1032
7493,1004,1030
7494,1004,1032
7495,1006,1032
7496,1011,1031
7497,1013,1027
7498,1010,1027
7499,1007,1028
7500,1005,1029
7501,1008,1032
7502,1009,1033
7503,1010,1034
7504,1007,1032
7505,1003,1028
7506,1004,1031
7507,1008,1033
7508,1009,1033
7509,1005,1033
7510,1002,1027
7511,1000,1028
7512,999,1031
7513,998,1033
7514,1005,1033
7515,1002,1027
7516,1001,1028
7517,1000,1035
7518,1002,1042
7519,999,1040
7520,1003,1029
7521,999,1017
7522,998,1014
7523,997,1016
7524,994,1020
7525,996,1024
7526,996,1024
7527,996,1024
7528,998,1028
7529,996,1035
7530,993,1035
7531,992,1032
7532,997,1025
7533,994,1017
7534,992,1013
7535,989,1015
7536,990,1019
7537,992,1024
7538,995,1024
7539,992,1025
7540,992,1023
7541,988,1024
7542,985,1027
7543,986,1033
7544,992,1034
7545,992,1034
7546,985,1029
7547,984,1021
7548,987,1022
7549,990,1027
7550,990,1027
7551,989,1020
7552,988,1011
7553,985,1015
7554,985,1018
7555,988,1022
7556,991,1025
7557,991,1022
7558,992,1023
7559,988,1030
7560,986,1033
7561,989,1037
7562,994,1040
7563,996,1037
7564,996,1029
7565,996,1024
7566,1000,1024
7567,1008,1028
7568,1013,1036
7569,1018,1036
7570,1015,1034
7571,1015,1035
7572,1018,1041
7573,1026,1045
7574,1042,1050
7575,1051,1050
7576,1054,1049
7577,1050,1050
7578,1050,1052
7579,1055,1049
7580,1059,1048
7581,1059,1043
7582,1056,1036
7583,1048,1031
7584,1041,1025
7585,1029,1024
7586,1022,1026
7587,1017,1023
7588,1007,1020
7589,1001,1018
7590,993,1020
7591,988,1026
7592,988,1028
7593,987,1026
7594,984,1024
7595,982,1024
7596,979,1024
7597,979,1024
7598,987,1027
7599,986,1029
7600,986,1032
7601,980,1037
7602,979,1039
7603,975,1033
7604,975,1024
7605,962,1010
7606,945,1002
7607,940,993
7608,955,995
7609,1003,1002
7610,1084,1009
7611,1194,1007
7612,1309,1008
7613,1392,1017
7614,1442,1032
7615,1464,1047
7616,1463,1055
7617,1449,1059
7618,1410,1058
7619,1321,1045
7620,1193,1028
7621,1065,1010
7622,937,994
7623,902,983
7624,938,975
7625,965,973
7626,970,975
7627,969,989
7628,968,1000
7629,973,1005
7630,972,1010
7631,965,1012
7632,962,1019
7633,963,1025
7634,964,1024
7635,961,1024
7636,956,1024
7637,954,1025
7638,954,1030
7639,959,1031
7640,960,1027
7641,958,1024
7642,956,1022
7643,955,1025
7644,955,1027
7645,959,1028
7646,958,1025
7647,960,1022
7648,954,1021
7649,950,1023
7650,948,1022
7651,952,1020
7652,958,1018
7653,961,1017
7654,958,1021
7655,955,1020
7656,956,1022
7657,960,1028
7658,964,1028
7659,966,1024
7660,966,1016
7661,961,1012
7662,963,1016
7663,964,1021
7664,968,1026
7665,973,1029
7666,973,1028
7667,970,1028
7668,972,1031
7669,976,1035
7670,980,1033
7671,982,1022
7672,983,1014
7673,982,1015
7674,983,1018
7675,984,1028
7676,990,1033
7677,990,1034
7678,992,1035
7679,991,1032
7680,990,1030
7681,995,1030
7682,1000,1031
7683,1004,1030
7684,1003,1027
7685,1006,1022
7686,1009,1027
7687,1015,1032
7688,1019,1036
7689,1023,1033
7690,1021,1027
7691,1021,1020
7692,1024,1015
7693,1028,1020
7694,1035,1024
7695,1038,1027
7696,1038,1017
7697,1039,1017
7698,1045,1016
7699,1049,1020
7700,1051,1023
7701,1056,1022
7702,1053,1020
7703,1054,1019
7704,1057,1024
7705,1061,1030
7706,1066,1033
7707,1070,1032
7708,1065,1028
7709,1065,1027
7710,1065,1032
7711,1067,1039
7712,1069,1044
7713,1063,1041
7714,1064,1036
7715,1055,1033
7716,1052,1038
7717,1053,1040
7718,1053,1041
7719,1050,1045
7720,1047,1046
7721,1039,1042
7722,1038,1027
7723,1038,1013
7724,1035,1007
7725,1029,1010
7726,1020,1015
7727,1019,1020
7728,1019,1022
7729,1019,1027
7730,1018,1030
7731,1013,1029
7732,1007,1027
7733,1001,1028
7734,1000,1032
7735,1000,1035
7736,1004,1036
7737,999,1035
7738,1003,1036
7739,999,1034
7740,998,1038
7741,999,1045
7742,1000,1049
7743,999,1052
7744,997,1056
7745,994,1053
7746,995,1047
7747,997,1043
7748,999,1049
7749,1000,1050
7750,999,1046
7751,999,1038
7752,1002,1034
7753,1002,1027
7754,1003,1020
7755,1007,1014
7756,1004,1016
7757,998,1019
7758,1000,1025
7759,1002,1025
7760,1008,1025
7761,1008,1023
7762,1008,1025
7763,1003,1026
7764,1004,1031
7765,1007,1037
7766,1007,1037
7767,1004,1035
7768,1004,1034
7769,1003,1032
7770,1004,1033
7771,1008,1034
7772,1011,1038
7773,1009,1042
7774,1008,1039
7775,1006,1032
7776,1008,1025
7777,1007,1026
7778,1007,1030
7779,1008,1032
7780,1007,1033
7781,1005,1028
7782,1003,1024
7783,1004,1027
7784,1006,1032
7785,1007,1034
7786,1006,1032
7787,1002,1032
7788,1001,1034
7789,1003,1038
7790,1004,1037
7791,1002,1036
7792,998,1039
7793,993,1041
7794,995,1045
7795,996,1046
7796,1000,1041
7797,1001,1035
7798,997,1035
7799,992,1043
7800,993,1046
7801,992,1043
7802,996,1028
7803,994,1018
7804,992,1016
7805,987,1022
7806,983,1026
7807,983,1025
7808,990,1024
7809,992,1022
7810,988,1023
7811,984,1023
7812,985,1025
7813,986,1030
7814,988,1031
7815,987,1028
7816,983,1029
7817,980,1029
7818,979,1030
7819,981,1034
7820,985,1039
7821,986,1041
7822,982,1043
7823,978,1045
7824,981,1046
7825,981,1042
7826,984,1034
7827,982,1028
7828,978,1023
7829,976,1023
7830,977,1027
7831,977,1033
7832,982,1035
7833,982,1033
7834,980,1024
7835,977,1023
7836,975,1035
7837,977,1044
7838,980,1044
7839,979,1039
7840,980,1035
7841,980,1031
7842,982,1025
7843,988,1019
7844,990,1019
7845,995,1018
7846,995,1018
7847,995,1025
7848,998,1034
7849,1005,1045
7850,1010,1057
7851,1014,1063
7852,1015,1064
7853,1018,1064
7854,1029,1066
7855,1039,1070
7856,1046,1073
7857,1046,1071
7858,1042,1065
7859,1036,1065
7860,1036,1072
7861,1042,1077
7862,1045,1071
7863,1039,1052
7864,1023,1025
7865,1008,1005
7866,1000,1002
7867,995,1012
7868,995,1019
7869,988,1019
7870,978,1014
7871,970,1012
7872,967,1014
7873,970,1019
7874,973,1020
7875,971,1021
7876,968,1019
7877,964,1020
7878,963,1025
7879,964,1035
7880,968,1043
7881,969,1046
7882,967,1037
7883,963,1026
7884,959,1023
7885,950,1025
7886,939,1032
7887,923,1023
7888,918,1004
7889,929,990
7890,967,993
7891,1032,1008
7892,1127,1018
7893,1238,1020
7894,1333,1017
7895,1402,1023
7896,1434,1036
7897,1447,1045
7898,1440,1052
7899,1419,1056
7900,1364,1054
7901,1261,1039
7902,1133,1022
7903,1005,1006
7904,886,996
7905,891,986
7906,930,980
7907,952,973
7908,950,978
7909,946,992
7910,947,1005
7911,952,1010
7912,944,1015
7913,940,1019
7914,938,1023
7915,934,1025
7916,937,1030
7917,936,1032
7918,933,1032
7919,933,1033
7920,930,1033
7921,933,1028
7922,935,1023
7923,935,1024
7924,932,1024
7925,929,1024
7926,928,1027
7927,932,1028
7928,936,1028
7929,937,1029
7930,935,1031
7931,933,1036
7932,933,1032
7933,935,1020
7934,935,1011
7935,936,1008
7936,935,1011
7937,930,1016
7938,933,1016
7939,937,1023
7940,940,1028
7941,942,1028
7942,939,1027
7943,938,1028
7944,937,1029
7945,941,1035
7946,944,1041
7947,946,1048
7948,942,1048
7949,939,1044
7950,941,1047
7951,946,1058
7952,951,1058
7953,951,1033
7954,954,999
7955,955,983
7956,956,991
7957,959,1011
7958,964,1016
7959,968,1012
7960,965,1005
7961,963,1005
7962,967,1011
7963,967,1015
7964,972,1020
7965,976,1025
7966,977,1028
7967,976,1029
7968,979,1037
7969,986,1040
7970,989,1037
7971,993,1025
7972,993,1014
7973,988,1014
7974,992,1020
7975,1000,1024
7976,1006,1023
7977,1013,1016
7978,1010,1015
7979,1007,1014
7980,1005,1017
7981,1008,1023
7982,1017,1024
7983,1021,1024
7984,1022,1020
7985,1019,1017
7986,1023,1021
7987,1029,1022
7988,1030,1026
7989,1031,1025
7990,1034,1024
7991,1031,1025
7992,1030,1026
7993,1032,1032
7994,1035,1032
7995,1034,1031
7996,1031,1028
7997,1023,1027
7998,1027,1031
7999,1022,1034
8000,1020,1034
8001,1020,1032
8002,1015,1031
8003,1011,1029
8004,1009,1032
8005,1007,1034
8006,1006,1037
8007,1003,1038
8008,998,1034
8009,994,1033
8010,992,1036
8011,990,1038
8012,992,1039
8013,988,1041
8014,982,1039
8015,980,1038
8016,980,1045
8017,981,1056
8018,982,1057
8019,982,1044
8020,978,1027
8021,974,1014
8022,973,1016
8023,975,1029
8024,980,1041
8025,981,1044
8026,981,1035
8027,976,1029
8028,975,1024
8029,980,1027
8030,983,1029
8031,987,1029
8032,984,1027
8033,979,1028
8034,983,1033
8035,985,1043
8036,991,1049
8037,992,1047
8038,985,1035
8039,983,1026
8040,983,1026
8041,984,1028
8042,985,1035
8043,987,1035
8044,983,1034
8045,983,1036
8046,985,1042
8047,989,1044
8048,992,1041
8049,992,1035
8050,985,1037
8051,982,1044
8052,979,1050
8053,982,1042
8054,987,1031
8055,989,1022
8056,989,1019
8057,986,1028
8058,986,1043
8059,987,1050
8060,988,1043
8061,990,1027
8062,988,1013
8063,983,1009
8064,984,1011
8065,986,1017
8066,987,1022
8067,984,1026
8068,981,1025
8069,979,1024
8070,977,1026
8071,979,1029
8072,983,1032
8073,980,1036
8074,980,1035
8075,975,1037
8076,975,1037
8077,977,1033
8078,978,1032
8079,975,1029
8080,975,1025
8081,971,1023
8082,972,1027
8083,975,1029
8084,975,1031
8085,976,1028
8086,972,1026
8087,971,1035
8088,970,1049
8089,972,1054
8090,975,1048
8091,979,1041
8092,976,1037
8093,973,1036
8094,965,1025
8095,963,1012
8096,967,1008
8097,972,1010
8098,974,1013
8099,971,1015
8100,969,1016
8101,966,1019
8102,970,1023
8103,973,1024
8104,971,1027
8105,969,1024
8106,966,1023
8107,967,1023
8108,969,1022
8109,963,1016
8110,964,1017
8111,962,1024
8112,965,1031
8113,968,1034
8114,971,1030
8115,972,1019
8116,968,1010
8117,964,1008
8118,967,1012
8119,968,1020
8120,971,1024
8121,973,1026
8122,970,1024
8123,965,1024
8124,966,1027
8125,970,1033
8126,974,1039
8127,976,1041
8128,975,1038
8129,977,1035
8130,985,1040
8131,989,1049
8132,994,1059
8133,998,1061
8134,1000,1061
8135,997,1056
8136,998,1061
8137,1007,1062
8138,1018,1068
8139,1032,1070
8140,1039,1071
8141,1037,1066
8142,1036,1063
8143,1036,1058
8144,1039,1056
8145,1040,1055
8146,1037,1052
8147,1033,1048
8148,1026,1043
8149,1018,1041
8150,1009,1039
8151,1002,1035
8152,996,1033
8153,990,1034
8154,983,1031
8155,977,1026
8156,976,1025
8157,970,1021
8158,960,1022
8159,951,1020
8160,950,1021
8161,961,1023
8162,963,1026
8163,964,1027
8164,961,1023
8165,955,1022
8166,957,1025
8167,958,1027
8168,957,1030
8169,956,1028
8170,950,1025
8171,936,1023
8172,928,1024
8173,919,1024
8174,923,1022
8175,943,1024
8176,982,1027
8177,1045,1031
8178,1137,1033
8179,1242,1037
8180,1331,1036
8181,1392,1043
8182,1423,1050
8183,1432,1054
8184,1427,1057
8185,1415,1066
8186,1381,1076
8187,1308,1078
8188,1195,1081
8189,1067,1080
8190,951,1070
8191,893,1042
8192,900,1001
8193,928,964
8194,944,947
8195,944,949
8196,947,969
8197,951,987
8198,956,1001
8199,956,1011
8200,952,1013
8201,948,1013
8202,943,1018
8203,942,1020
8204,945,1028
8205,942,1035
8206,938,1046
8207,932,1073
8208,930,1120
8209,938,1146
8210,947,1119
8211,950,1040
8212,948,966
8213,939,939
8214,938,960
8215,940,987
8216,944,999
8217,948,1003
8218,947,1002
8219,944,1002
8220,946,1008
8221,947,1013
8222,949,1018
8223,953,1019
8224,950,1019
8225,949,1018
8226,947,1024
8227,948,1030
8228,948,1036
8229,947,1045
8230,943,1049
8231,941,1055
8232,947,1056
8233,955,1061
8234,961,1060
8235,957,1047
8236,955,1022
8237,956,1000
8238,954,992
8239,959,999
8240,961,1007
8241,961,1007
8242,961,1007
8243,958,1010
8244,960,1012
8245,964,1020
8246,970,1024
8247,970,1023
8248,972,1024
8249,976,1027
8250,976,1034
8251,980,1044
8252,981,1049
8253,979,1045
8254,976,1035
8255,976,1021
8256,977,1016
8257,977,1019
8258,987,1028
8259,990,1032
8260,991,1035
8261,992,1037
8262,991,1040
8263,995,1037
8264,996,1038
8265,999,1035
8266,998,1024
8267,997,1009
8268,1000,1003
8269,1005,1013
8270,1008,1027
8271,1010,1038
8272,1011,1044
8273,1013,1039
8274,1017,1030
8275,1021,1012
8276,1026,1004
8277,1031,1001
8278,1031,1005
8279,1028,1013
8280,1027,1019
8281,1023,1025
8282,1019,1029
8283,1016,1031
8284,1017,1031
8285,1025,1028
8286,1025,1023
8287,1028,1021
8288,1028,1020
8289,1028,1020
8290,1023,1016
8291,1023,1019
8292,1022,1024
8293,1020,1026
8294,1021,1029
8295,1017,1027
8296,1016,1024
8297,1012,1030
8298,1013,1042
8299,1011,1060
8300,1012,1073
8301,1011,1075
8302,1007,1056
8303,1004,1032
8304,1000,1017
8305,999,1011
8306,996,1011
8307,994,1015
8308,988,1016
8309,981,1022
8310,978,1025
8311,977,1033
8312,982,1039
8313,983,1041
8314,981,1039
8315,978,1039
8316,976,1049
8317,982,1060
8318,984,1064
8319,982,1061
8320,982,1053
8321,979,1042
8322,982,1032
8323,984,1028
8324,984,1032
8325,983,1035
8326,983,1028
8327,972,1018
8328,972,1013
8329,980,1012
8330,989,1017
8331,989,1023
8332,986,1025
8333,979,1026
8334,984,1030
8335,985,1038
8336,989,1045
8337,988,1040
8338,986,1031
8339,987,1018
8340,988,1010
8341,987,1009
8342,988,1014
8343,991,1011
8344,990,1011
8345,989,1016
8346,990,1020
8347,993,1028
8348,994,1031
8349,993,1030
8350,988,1026
8351,989,1032
8352,988,1038
8353,991,1045
8354,993,1054
8355,997,1055
8356,996,1053
8357,991,1048
8358,988,1047
8359,988,1039
8360,989,1034
8361,986,1035
8362,989,1036
8363,984,1029
8364,985,1028
8365,986,1024
8366,987,1023
8367,987,1020
8368,981,1023
8369,979,1024
8370,981,1027
8371,982,1031
8372,984,1034
8373,981,1035
8374,981,1034
8375,976,1033
8376,975,1038
8377,977,1043
8378,981,1045
8379,977,1040
8380,975,1041
8381,973,1045
8382,970,1052
8383,973,1061
8384,975,1070
8385,973,1066
8386,970,1049
8387,969,1025
8388,968,1016
8389,970,1021
8390,971,1038
8391,970,1051
8392,968,1048
8393,965,1040
8394,964,1040
8395,966,1050
8396,967,1061
8397,968,1060
8398,966,1049
8399,963,1031
8400,960,1028
8401,965,1038
8402,968,1053
8403,968,1051
8404,970,1047
8405,966,1041
8406,965,1037
8407,965,1028
8408,967,1015
8409,967,1006
8410,963,1008
8411,962,1013
8412,962,1018
8413,962,1025
8414,964,1032
8415,966,1036
8416,963,1039
8417,960,1044
8418,962,1056
8419,966,1074
8420,970,1087
8421,972,1082
8422,976,1068
8423,979,1065
8424,982,1066
8425,986,1070
8426,988,1070
8427,991,1066
8428,990,1071
8429,989,1093
8430,1001,1120
8431,1015,1119
8432,1029,1085
8433,1035,1048
8434,1035,1027
8435,1030,1029
8436,1031,1030
8437,1035,1029
8438,1037,1027
8439,1034,1027
8440,1029,1024
8441,1016,1028
8442,1004,1038
8443,998,1057
8444,996,1080
8445,992,1086
8446,987,1066
8447,975,1022
8448,964,997
8449,958,1001
8450,955,1033
8451,955,1069
8452,956,1089
8453,952,1073
8454,951,1042
8455,955,1015
8456,960,998
8457,958,993
8458,952,1005
8459,947,1025
8460,948,1051
8461,949,1069
8462,951,1071
8463,945,1051
8464,931,1020
8465,916,996
8466,916,1004
8467,936,1028
8468,977,1051
8469,1044,1052
8470,1139,1029
8471,1238,1000
8472,1323,991
8473,1385,1007
8474,1418,1036
8475,1431,1060
8476,1429,1077
8477,1417,1091
8478,1384,1100
8479,1325,1098
8480,1218,1090
8481,1090,1081
8482,962,1064
8483,852,1030
8484,851,998
8485,890,997
8486,920,1014
8487,932,1020
8488,936,986
8489,936,945
8490,938,930
8491,936,948
8492,942,975
8493,941,995
8494,936,1004
8495,930,1010
8496,929,1020
8497,927,1031
8498,931,1041
8499,933,1049
8500,932,1057
8501,929,1062
8502,930,1055
8503,930,1036
8504,932,1022
8505,934,1021
8506,931,1015
8507,926,1004
8508,927,1001
8509,932,1011
8510,937,1026
8511,938,1033
8512,936,1021
8513,932,995
8514,932,984
8515,937,992
8516,939,1009
8517,937,1015
8518,937,1019
