'sample #','MLII','V1'
0,615,775
1,615,775
2,615,775
3,615,775
4,615,775
5,606,775
6,596,775
7,583,755
8,570,735
9,556,709
10,543,680
11,531,658
12,515,658
13,508,681
14,513,721
15,537,762
16,580,805
17,636,842
18,696,868
19,739,886
20,781,903
21,814,928
22,837,953
23,856,982
24,868,1005
25,880,1021
26,886,1033
27,896,1045
28,905,1054
29,910,1067
30,916,1082
31,924,1092
32,928,1100
33,934,1107
34,945,1112
35,959,1120
36,974,1127
37,984,1134
38,991,1138
39,996,1144
40,1001,1152
41,1008,1163
42,1017,1167
43,1025,1174
44,1033,1173
45,1042,1173
46,1052,1173
47,1060,1176
48,1071,1174
49,1078,1178
50,1084,1178
51,1083,1178
52,1084,1179
53,1084,1183
54,1088,1187
55,1092,1188
56,1093,1188
57,1095,1188
58,1099,1191
59,1104,1194
60,1110,1198
61,1116,1195
62,1119,1197
63,1120,1197
64,1123,1197
65,1129,1204
66,1136,1207
67,1144,1212
68,1151,1213
69,1154,1211
70,1160,1216
71,1166,1221
72,1175,1223
73,1181,1223
74,1186,1226
75,1188,1227
76,1192,1231
77,1198,1235
78,1208,1238
79,1217,1239
80,1220,1242
81,1224,1243
82,1230,1244
83,1238,1250
84,1243,1253
85,1245,1251
86,1244,1252
87,1244,1251
88,1247,1251
89,1250,1254
90,1253,1256
91,1255,1254
92,1254,1250
93,1252,1250
94,1250,1246
95,1249,1247
96,1250,1245
97,1246,1243
98,1241,1240
99,1233,1234
100,1227,1230
101,1221,1228
102,1215,1226
103,1208,1220
104,1200,1212
105,1192,1207
106,1181,1203
107,1173,1201
108,1168,1197
109,1161,1187
110,1151,1182
111,1139,1173
112,1127,1167
113,1118,1166
114,1109,1163
115,1097,1158
116,1085,1154
117,1074,1149
118,1062,1142
119,1056,1143
120,1052,1140
121,1043,1136
122,1034,1132
123,1025,1128
124,1014,1128
125,1007,1127
126,1002,1129
127,998,1126
128,994,1125
129,986,1121
130,979,1119
131,977,1119
132,978,1123
133,974,1122
134,972,1118
135,968,1116
136,961,1118
137,963,1119
138,962,1118
139,960,1117
140,955,1114
141,951,1112
142,949,1112
143,950,1116
144,952,1117
145,951,1116
146,948,1115
147,949,1113
148,946,1113
149,946,1113
150,949,1116
151,947,1115
152,946,1112
153,942,1112
154,945,1110
155,944,1113
156,948,1114
157,948,1112
158,949,1113
159,946,1111
160,945,1110
161,943,1112
162,948,1115
163,949,1113
164,948,1113
165,946,1110
166,941,1110
167,942,1112
168,947,1112
169,946,1112
170,945,1110
171,946,1105
172,947,1105
173,950,1109
174,952,1110
175,954,1109
176,954,1106
177,955,1106
178,954,1106
179,958,1106
180,959,1107
181,958,1103
182,957,1102
183,956,1099
184,954,1100
185,955,1100
186,954,1102
187,957,1103
188,956,1101
189,957,1097
190,953,1094
191,957,1097
192,961,1096
193,960,1097
194,957,1096
195,951,1095
196,949,1091
197,952,1092
198,956,1093
199,959,1094
200,957,1091
201,956,1088
202,952,1088
203,948,1090
204,950,1092
205,952,1090
206,953,1090
207,949,1086
208,949,1086
209,952,1088
210,953,1088
211,954,1090
212,954,1086
213,951,1084
214,951,1084
215,953,1085
216,955,1085
217,953,1085
218,954,1084
219,950,1082
220,951,1083
221,954,1085
222,954,1086
223,954,1083
224,951,1082
225,952,1080
226,951,1081
227,953,1081
228,955,1086
229,955,1085
230,955,1080
231,952,1080
232,952,1079
233,957,1078
234,956,1080
235,956,1080
236,955,1078
237,952,1075
238,950,1075
239,953,1079
240,956,1080
241,956,1077
242,954,1075
243,951,1073
244,951,1075
245,953,1077
246,956,1079
247,959,1075
248,959,1072
249,957,1071
250,952,1073
251,957,1077
252,962,1082
253,964,1090
254,964,1091
255,967,1089
256,968,1092
257,975,1093
258,981,1091
259,986,1083
260,992,1054
261,999,991
262,1013,915
263,1041,902
264,1089,961
265,1185,1014
266,1304,1026
267,1384,1016
268,1402,1014
269,1387,1018
270,1370,1019
271,1357,1014
272,1348,1008
273,1332,1000
274,1312,994
275,1290,991
276,1276,987
277,1257,981
278,1244,975
279,1225,968
280,1203,965
281,1182,964
282,1159,961
283,1130,954
284,1102,943
285,1066,934
286,1028,918
287,989,907
288,946,898
289,902,888
290,851,881
291,803,873
292,762,859
293,724,839
294,694,814
295,663,776
296,635,744
297,615,725
298,600,711
299,590,693
300,585,675
301,572,655
302,555,634
303,538,618
304,524,597
305,518,575
306,511,557
307,498,557
308,489,579
309,486,613
310,504,653
311,545,692
312,591,732
313,636,766
314,674,801
315,708,822
316,733,851
317,756,879
318,772,905
319,787,926
320,797,942
321,806,954
322,811,972
323,822,990
324,828,1003
325,829,1010
326,830,1018
327,831,1023
328,834,1031
329,849,1041
330,862,1050
331,874,1056
332,886,1061
333,894,1066
334,903,1075
335,913,1084
336,931,1087
337,943,1093
338,956,1095
339,969,1096
340,981,1099
341,990,1104
342,1005,1106
343,1017,1107
344,1024,1107
345,1033,1109
346,1034,1110
347,1034,1114
348,1039,1116
349,1041,1116
350,1045,1115
351,1045,1117
352,1048,1118
353,1053,1124
354,1061,1126
355,1067,1128
356,1071,1130
357,1075,1126
358,1077,1131
359,1084,1135
360,1091,1137
361,1096,1141
362,1097,1142
363,1098,1143
364,1104,1145
365,1111,1147
366,1122,1152
367,1129,1154
368,1136,1153
369,1141,1155
370,1144,1157
371,1151,1164
372,1161,1165
373,1168,1171
374,1174,1168
375,1179,1170
376,1186,1174
377,1193,1175
378,1200,1178
379,1206,1179
380,1212,1175
381,1216,1175
382,1214,1178
383,1218,1182
384,1223,1187
385,1227,1185
386,1226,1182
387,1226,1181
388,1226,1183
389,1227,1184
390,1231,1183
391,1231,1181
392,1226,1177
393,1222,1175
394,1217,1169
395,1214,1170
396,1215,1166
397,1209,1163
398,1199,1155
399,1197,1150
400,1190,1146
401,1184,1145
402,1182,1139
403,1174,1132
404,1168,1126
405,1158,1121
406,1148,1113
407,1141,1112
408,1132,1105
409,1123,1098
410,1114,1088
411,1101,1081
412,1088,1079
413,1082,1077
414,1074,1073
415,1069,1069
416,1059,1062
417,1048,1057
418,1037,1054
419,1032,1052
420,1026,1056
421,1020,1055
422,1013,1049
423,1006,1047
424,997,1044
425,994,1045
426,991,1046
427,987,1044
428,982,1041
429,980,1037
430,976,1037
431,972,1039
432,972,1041
433,968,1040
434,965,1033
435,962,1032
436,958,1036
437,960,1039
438,958,1039
439,960,1038
440,957,1036
441,955,1035
442,954,1036
443,954,1033
444,957,1035
445,955,1037
446,952,1038
447,949,1037
448,946,1036
449,946,1037
450,950,1041
451,950,1045
452,947,1042
453,945,1039
454,946,1038
455,947,1039
456,949,1042
457,951,1041
458,950,1039
459,947,1036
460,945,1037
461,944,1043
462,947,1047
463,951,1045
464,950,1042
465,946,1038
466,944,1039
467,947,1043
468,955,1043
469,960,1043
470,962,1041
471,957,1038
472,955,1039
473,953,1040
474,955,1041
475,958,1041
476,959,1039
477,956,1035
478,955,1035
479,958,1037
480,959,1037
481,959,1038
482,955,1034
483,953,1032
484,953,1033
485,954,1031
486,955,1031
487,956,1032
488,952,1033
489,953,1033
490,952,1030
491,954,1031
492,954,1033
493,954,1030
494,949,1029
495,949,1027
496,947,1026
497,948,1028
498,951,1032
499,954,1034
500,952,1035
501,948,1035
502,949,1039
503,955,1046
504,959,1053
505,963,1061
506,965,1059
507,965,1058
508,967,1059
509,973,1066
510,982,1070
511,990,1072
512,998,1068
513,1000,1064
514,1001,1061
515,1005,1057
516,1009,1045
517,1012,1036
518,1019,1032
519,1021,1030
520,1021,1030
521,1020,1027
522,1018,1025
523,1014,1020
524,1012,1014
525,1008,1011
526,1004,1011
527,1008,1019
528,1011,1020
529,1009,1018
530,1006,1014
531,1002,1011
532,1001,1009
533,1002,1010
534,1000,1013
535,994,1013
536,987,1011
537,981,1010
538,974,1011
539,971,1013
540,970,1016
541,965,1016
542,959,1012
543,955,1009
544,950,1010
545,949,1010
546,948,1010
547,947,1006
548,946,1002
549,942,1000
550,937,998
551,939,1003
552,935,1003
553,936,1002
554,935,998
555,936,988
556,939,981
557,944,964
558,950,916
559,958,833
560,973,783
561,1009,815
562,1091,878
563,1214,919
564,1327,927
565,1372,930
566,1352,932
567,1318,934
568,1297,937
569,1288,937
570,1283,937
571,1266,933
572,1251,928
573,1231,923
574,1210,921
575,1199,921
576,1184,916
577,1168,912
578,1149,905
579,1124,898
580,1101,895
581,1082,892
582,1058,883
583,1035,874
584,1005,858
585,974,838
586,945,824
587,920,816
588,894,807
589,865,799
590,830,782
591,793,756
592,754,730
593,726,698
594,709,676
595,700,654
596,692,637
597,680,623
598,673,607
599,663,589
600,643,572
601,622,555
602,599,532
603,581,515
604,566,498
605,549,495
606,539,515
607,529,547
608,535,577
609,554,608
610,583,643
611,618,677
612,654,710
613,689,742
614,723,771
615,744,799
616,755,828
617,768,852
618,778,873
619,788,892
620,796,910
621,804,926
622,809,944
623,815,957
624,818,969
625,822,981
626,827,991
627,836,997
628,847,1008
629,862,1016
630,875,1025
631,892,1035
632,901,1038
633,907,1042
634,919,1048
635,936,1054
636,951,1061
637,969,1063
638,981,1066
639,994,1066
640,1003,1069
641,1015,1070
642,1027,1075
643,1034,1076
644,1037,1076
645,1041,1076
646,1044,1077
647,1049,1080
648,1054,1084
649,1058,1084
650,1059,1086
651,1061,1083
652,1065,1089
653,1068,1091
654,1075,1092
655,1078,1095
656,1081,1094
657,1085,1092
658,1086,1095
659,1092,1098
660,1097,1102
661,1101,1107
662,1107,1107
663,1111,1106
664,1113,1110
665,1121,1114
666,1127,1116
667,1135,1120
668,1137,1121
669,1143,1118
670,1146,1122
671,1153,1125
672,1159,1128
673,1166,1132
674,1170,1130
675,1175,1133
676,1179,1139
677,1186,1141
678,1190,1145
679,1194,1146
680,1198,1146
681,1200,1147
682,1205,1149
683,1207,1154
684,1211,1154
685,1214,1154
686,1212,1153
687,1214,1151
688,1212,1150
689,1215,1152
690,1216,1151
691,1214,1157
692,1213,1153
693,1210,1149
694,1209,1147
695,1208,1147
696,1206,1143
697,1200,1142
698,1197,1136
699,1190,1131
700,1185,1128
701,1181,1124
702,1178,1121
703,1173,1115
704,1167,1111
705,1160,1104
706,1154,1099
707,1148,1096
708,1143,1092
709,1135,1082
710,1129,1075
711,1121,1065
712,1108,1062
713,1103,1058
714,1097,1058
715,1090,1055
716,1082,1047
717,1071,1038
718,1063,1034
719,1058,1033
720,1055,1033
721,1044,1029
722,1036,1023
723,1029,1021
724,1019,1021
725,1016,1020
726,1009,1018
727,1004,1015
728,997,1012
729,991,1010
730,982,1011
731,982,1012
732,982,1011
733,978,1011
734,974,1007
735,971,1006
736,965,1006
737,965,1007
738,966,1008
739,963,1007
740,962,1004
741,961,1005
742,959,1005
743,956,1007
744,955,1011
745,954,1009
746,953,1007
747,953,1004
748,951,1007
749,952,1006
750,955,1008
751,952,1007
752,950,1006
753,949,1005
754,947,1006
755,949,1008
756,951,1010
757,948,1013
758,948,1011
759,949,1015
760,949,1022
761,950,1030
762,953,1035
763,956,1037
764,958,1037
765,960,1036
766,962,1042
767,970,1046
768,978,1050
769,988,1053
770,994,1051
771,1000,1053
772,1002,1054
773,1007,1051
774,1012,1049
775,1014,1037
776,1017,1028
777,1019,1023
778,1021,1020
779,1025,1019
780,1025,1017
781,1019,1012
782,1013,1006
783,1007,1005
784,1004,1004
785,1004,1002
786,1005,1002
787,1008,999
788,1009,997
789,1007,996
790,1004,996
791,1009,997
792,1008,996
793,1005,995
794,1002,995
795,998,990
796,993,989
797,991,993
798,984,995
799,979,995
800,975,996
801,973,998
802,966,996
803,963,995
804,958,994
805,958,992
806,952,989
807,947,989
808,943,990
809,940,991
810,939,988
811,934,986
812,936,986
813,928,983
814,929,984
815,930,984
816,930,984
817,928,984
818,925,983
819,925,980
820,923,982
821,925,981
822,927,984
823,926,983
824,926,980
825,925,976
826,922,978
827,921,979
828,924,979
829,923,980
830,922,978
831,922,978
832,921,979
833,922,979
834,925,980
835,923,979
836,923,981
837,922,975
838,921,979
839,922,980
840,924,980
841,923,981
842,920,977
843,920,975
844,917,974
845,918,979
846,921,978
847,922,978
848,923,978
849,921,976
850,920,978
851,918,980
852,923,981
853,924,981
854,924,976
855,923,974
856,920,976
857,921,977
858,924,980
859,925,976
860,924,975
861,921,974
862,922,977
863,921,980
864,924,980
865,928,979
866,929,977
867,927,972
868,927,971
869,929,970
870,934,970
871,936,967
872,939,959
873,940,932
874,944,874
875,954,801
876,976,784
877,1022,827
878,1107,870
879,1218,889
880,1317,898
881,1356,903
882,1342,911
883,1318,917
884,1299,913
885,1287,913
886,1276,912
887,1261,911
888,1246,904
889,1227,900
890,1211,899
891,1192,893
892,1175,891
893,1163,888
894,1148,883
895,1127,876
896,1103,872
897,1077,869
898,1050,865
899,1024,861
900,998,851
901,966,834
902,928,818
903,886,804
904,844,796
905,806,790
906,768,779
907,732,766
908,696,744
909,658,721
910,626,696
911,608,676
912,598,662
913,590,653
914,587,638
915,581,622
916,574,608
917,563,598
918,548,588
919,530,573
920,517,551
921,507,529
922,498,522
923,491,534
924,494,562
925,506,594
926,527,622
927,556,648
928,578,682
929,614,713
930,649,742
931,684,765
932,715,786
933,737,809
934,748,830
935,765,850
936,779,868
937,795,887
938,803,898
939,812,908
940,821,921
941,831,935
942,837,947
943,841,958
944,843,964
945,847,969
946,857,979
947,874,989
948,889,997
949,900,1006
950,910,1009
951,918,1014
952,930,1019
953,943,1028
954,957,1036
955,970,1040
956,980,1041
957,992,1042
958,1005,1048
959,1019,1051
960,1028,1053
961,1042,1054
962,1051,1052
963,1055,1052
964,1059,1054
965,1064,1061
966,1068,1065
967,1071,1065
968,1071,1064
969,1073,1065
970,1077,1067
971,1085,1072
972,1090,1075
973,1094,1075
974,1092,1077
975,1095,1075
976,1096,1078
977,1102,1080
978,1108,1085
979,1109,1086
980,1112,1084
981,1112,1086
982,1116,1091
983,1122,1092
984,1129,1094
985,1131,1097
986,1134,1099
987,1138,1099
988,1141,1099
989,1144,1106
990,1150,1110
991,1154,1111
992,1159,1110
993,1165,1111
994,1170,1114
995,1177,1119
996,1184,1124
997,1185,1125
998,1183,1126
999,1187,1131
1000,1194,1136
1001,1200,1136
1002,1203,1138
1003,1203,1137
1004,1203,1138
1005,1201,1143
1006,1205,1143
1007,1208,1147
1008,1209,1146
1009,1209,1144
1010,1208,1143
1011,1210,1145
1012,1212,1147
1013,1215,1147
1014,1213,1145
1015,1210,1142
1016,1205,1141
1017,1202,1139
1018,1200,1138
1019,1200,1137
1020,1195,1134
1021,1191,1129
1022,1187,1123
1023,1182,1123
1024,1180,1119
1025,1175,1117
1026,1172,1111
1027,1166,1105
1028,1159,1099
1029,1154,1095
1030,1148,1093
1031,1147,1092
1032,1144,1092
1033,1135,1088
1034,1129,1086
1035,1123,1085
1036,1119,1085
1037,1115,1087
1038,1114,1081
1039,1111,1075
1040,1105,1070
1041,1104,1068
1042,1103,1068
1043,1105,1070
1044,1104,1065
1045,1101,1058
1046,1097,1049
1047,1089,1042
1048,1088,1035
1049,1087,1031
1050,1086,1023
1051,1084,1018
1052,1081,1010
1053,1071,1005
1054,1063,1003
1055,1056,1001
1056,1046,1000
1057,1040,998
1058,1032,996
1059,1026,995
1060,1028,997
1061,1028,997
1062,1027,997
1063,1022,996
1064,1017,994
1065,1014,995
1066,1010,1000
1067,1007,1000
1068,1003,998
1069,1000,996
1070,994,997
1071,988,999
1072,982,999
1073,978,1002
1074,974,1004
1075,966,1001
1076,960,999
1077,952,999
1078,950,999
1079,944,1002
1080,941,1004
1081,937,1002
1082,932,999
1083,930,997
1084,931,998
1085,928,1000
1086,926,998
1087,921,998
1088,917,996
1089,914,1000
1090,915,1001
1091,916,1001
1092,915,1001
1093,914,1000
1094,915,1001
1095,912,1002
1096,913,1005
1097,914,1004
1098,913,1003
1099,912,1001
1100,911,1001
1101,907,1001
1102,910,1004
1103,914,1005
1104,911,1003
1105,913,1000
1106,909,1000
1107,910,999
1108,910,1002
1109,913,1005
1110,914,1000
1111,913,1001
1112,914,995
1113,912,996
1114,912,998
1115,915,999
1116,914,999
1117,914,996
1118,911,994
1119,914,996
1120,913,997
1121,916,1000
1122,911,999
1123,909,995
1124,905,995
1125,901,996
1126,900,999
1127,903,997
1128,908,996
1129,907,994
1130,907,994
1131,905,996
1132,904,998
1133,906,997
1134,903,998
1135,904,995
1136,907,994
1137,908,997
1138,909,998
1139,909,997
1140,906,1000
1141,905,998
1142,901,1000
1143,907,997
1144,911,1001
1145,915,1003
1146,913,1002
1147,912,1002
1148,910,1001
1149,909,1001
1150,912,1005
1151,910,1006
1152,907,1003
1153,906,1003
1154,906,1002
1155,906,1005
1156,908,1008
1157,910,1009
1158,914,1009
1159,917,1007
1160,916,1005
1161,914,1009
1162,917,1011
1163,921,1012
1164,921,1008
1165,919,1009
1166,915,1010
1167,911,1012
1168,912,1013
1169,914,1015
1170,921,1011
1171,922,1011
1172,922,1011
1173,918,1011
1174,921,1012
1175,921,1012
1176,924,1011
1177,925,1012
1178,925,1010
1179,926,1008
1180,926,1011
1181,928,1012
1182,929,1012
1183,930,1011
1184,930,1007
1185,931,1010
1186,931,1011
1187,933,1010
1188,932,1006
1189,934,1007
1190,937,1006
1191,936,1004
1192,939,1002
1193,943,995
1194,944,972
1195,948,915
1196,959,833
1197,981,799
1198,1034,844
1199,1132,901
1200,1254,930
1201,1343,933
1202,1365,934
1203,1338,940
1204,1310,946
1205,1296,949
1206,1287,948
1207,1274,943
1208,1256,941
1209,1235,939
1210,1217,939
1211,1201,936
1212,1183,933
1213,1167,928
1214,1144,920
1215,1118,919
1216,1092,918
1217,1067,917
1218,1037,910
1219,1005,902
1220,971,887
1221,937,874
1222,901,863
1223,860,852
1224,819,848
1225,776,837
1226,739,826
1227,704,810
1228,675,786
1229,644,762
1230,623,738
1231,607,721
1232,596,710
1233,590,695
1234,586,683
1235,578,667
1236,565,645
1237,545,623
1238,530,602
1239,514,576
1240,506,556
1241,496,551
1242,488,570
1243,487,598
1244,502,627
1245,532,661
1246,571,694
1247,610,727
1248,650,759
1249,687,788
1250,715,807
1251,732,834
1252,747,860
1253,761,887
1254,778,909
1255,790,925
1256,800,939
1257,811,955
1258,824,973
1259,833,988
1260,836,999
1261,837,1008
1262,837,1015
1263,841,1027
1264,855,1035
1265,869,1042
1266,884,1048
1267,893,1054
1268,903,1060
1269,914,1068
1270,925,1076
1271,937,1081
1272,949,1089
1273,960,1091
1274,976,1092
1275,991,1098
1276,1005,1102
1277,1015,1105
1278,1027,1103
1279,1036,1105
1280,1042,1104
1281,1048,1108
1282,1053,1113
1283,1059,1114
1284,1061,1117
1285,1063,1116
1286,1064,1115
1287,1070,1119
1288,1075,1122
1289,1081,1125
1290,1081,1127
1291,1084,1127
1292,1086,1130
1293,1092,1132
1294,1100,1139
1295,1106,1145
1296,1111,1151
1297,1116,1155
1298,1121,1161
1299,1127,1165
1300,1132,1174
1301,1140,1176
1302,1149,1179
1303,1155,1181
1304,1166,1183
1305,1177,1189
1306,1189,1195
1307,1203,1201
1308,1210,1202
1309,1220,1199
1310,1225,1193
1311,1232,1191
1312,1240,1188
1313,1245,1188
1314,1253,1188
1315,1258,1187
1316,1263,1180
1317,1263,1181
1318,1263,1183
1319,1263,1185
1320,1263,1182
1321,1264,1182
1322,1264,1180
1323,1266,1185
1324,1264,1186
1325,1268,1190
1326,1269,1190
1327,1266,1186
1328,1261,1185
1329,1259,1184
1330,1259,1187
1331,1256,1182
1332,1249,1180
1333,1240,1179
1334,1233,1173
1335,1225,1175
1336,1219,1174
1337,1213,1171
1338,1203,1168
1339,1194,1159
1340,1183,1155
1341,1173,1148
1342,1164,1144
1343,1157,1138
1344,1151,1131
1345,1138,1124
1346,1130,1115
1347,1119,1111
1348,1110,1106
1349,1100,1102
1350,1089,1095
1351,1079,1092
1352,1069,1085
1353,1060,1079
1354,1052,1078
1355,1045,1074
1356,1033,1069
1357,1023,1062
1358,1010,1059
1359,1002,1057
1360,996,1056
1361,992,1056
1362,985,1052
1363,975,1049
1364,968,1047
1365,960,1044
1366,955,1045
1367,950,1044
1368,944,1045
1369,937,1041
1370,933,1039
1371,929,1042
1372,928,1041
1373,926,1043
1374,923,1040
1375,917,1040
1376,915,1037
1377,911,1038
1378,910,1041
1379,910,1041
1380,908,1040
1381,905,1038
1382,900,1038
1383,896,1037
1384,898,1041
1385,897,1043
1386,898,1043
1387,896,1041
1388,891,1040
1389,893,1040
1390,892,1042
1391,894,1042
1392,892,1043
1393,891,1044
1394,888,1043
1395,886,1045
1396,889,1047
1397,889,1047
1398,889,1046
1399,886,1048
1400,886,1044
1401,886,1045
1402,889,1048
1403,888,1051
1404,886,1050
1405,886,1047
1406,883,1046
1407,886,1050
1408,889,1053
1409,891,1054
1410,891,1053
1411,892,1052
1412,889,1051
1413,889,1052
1414,890,1055
1415,892,1058
1416,895,1058
1417,892,1055
1418,890,1055
1419,890,1057
1420,893,1058
1421,895,1056
1422,896,1054
1423,896,1053
1424,895,1054
1425,895,1054
1426,896,1053
1427,900,1054
1428,900,1054
1429,899,1053
1430,902,1051
1431,899,1052
1432,903,1055
1433,903,1055
1434,902,1051
1435,902,1050
1436,901,1048
1437,901,1049
1438,903,1049
1439,905,1053
1440,904,1051
1441,905,1048
1442,904,1046
1443,903,1045
1444,907,1048
1445,910,1049
1446,910,1047
1447,907,1045
1448,904,1045
1449,902,1045
1450,903,1047
1451,905,1047
1452,905,1047
1453,903,1044
1454,904,1043
1455,902,1046
1456,906,1046
1457,907,1048
1458,908,1043
1459,907,1042
1460,905,1043
1461,904,1043
1462,905,1043
1463,907,1046
1464,907,1045
1465,906,1043
1466,906,1042
1467,908,1042
1468,909,1045
1469,911,1044
1470,911,1044
1471,908,1040
1472,908,1042
1473,908,1041
1474,910,1043
1475,911,1044
1476,912,1042
1477,909,1040
1478,907,1040
1479,906,1042
1480,913,1044
1481,913,1043
1482,911,1042
1483,912,1039
1484,913,1038
1485,914,1041
1486,917,1043
1487,918,1043
1488,916,1042
1489,914,1040
1490,915,1037
1491,911,1039
1492,913,1041
1493,916,1039
1494,916,1039
1495,916,1037
1496,918,1036
1497,917,1036
1498,917,1038
1499,920,1039
1500,922,1036
1501,922,1032
1502,921,1029
1503,920,1030
1504,927,1028
1505,930,1025
1506,931,1019
1507,935,1003
1508,935,961
1509,940,882
1510,954,817
1511,986,834
1512,1055,893
1513,1167,937
1514,1284,946
1515,1343,952
1516,1334,955
1517,1298,962
1518,1276,962
1519,1261,959
1520,1249,956
1521,1229,955
1522,1209,954
1523,1186,948
1524,1165,944
1525,1143,937
1526,1119,933
1527,1094,932
1528,1073,930
1529,1045,926
1530,1010,919
1531,972,910
1532,934,900
1533,896,890
1534,857,879
1535,818,868
1536,768,858
1537,722,848
1538,681,838
1539,645,827
1540,611,810
1541,585,783
1542,565,755
1543,545,731
1544,532,713
1545,527,704
1546,522,688
1547,516,672
1548,501,651
1549,486,631
1550,472,609
1551,460,587
1552,449,565
1553,442,557
1554,435,570
1555,436,595
1556,455,628
1557,491,666
1558,536,714
1559,584,753
1560,629,791
1561,670,822
1562,699,848
1563,717,875
1564,739,905
1565,758,933
1566,780,957
1567,803,975
1568,821,993
1569,839,1009
1570,855,1020
1571,868,1026
1572,878,1028
1573,889,1026
1574,898,1029
1575,914,1033
1576,935,1037
1577,953,1042
1578,961,1043
1579,965,1045
1580,972,1050
1581,980,1054
1582,994,1062
1583,1008,1064
1584,1023,1069
1585,1038,1071
1586,1045,1073
1587,1056,1074
1588,1068,1078
1589,1078,1083
1590,1082,1082
1591,1086,1080
1592,1082,1082
1593,1079,1087
1594,1080,1092
1595,1078,1098
1596,1077,1099
1597,1075,1101
1598,1072,1100
1599,1073,1101
1600,1075,1103
1601,1078,1104
1602,1078,1105
1603,1079,1105
1604,1075,1102
1605,1078,1107
1606,1085,1108
1607,1088,1114
1608,1089,1114
1609,1088,1116
1610,1092,1118
1611,1095,1123
1612,1102,1128
1613,1107,1131
1614,1114,1132
1615,1120,1135
1616,1124,1136
1617,1127,1142
1618,1134,1148
1619,1142,1149
1620,1147,1151
1621,1152,1153
1622,1157,1153
1623,1161,1158
1624,1167,1163
1625,1173,1166
1626,1176,1168
1627,1178,1168
1628,1179,1169
1629,1181,1172
1630,1185,1174
1631,1189,1176
1632,1190,1175
1633,1187,1175
1634,1186,1176
1635,1186,1172
1636,1188,1174
1637,1189,1173
1638,1184,1169
1639,1179,1166
1640,1175,1162
1641,1171,1160
1642,1164,1157
1643,1159,1152
1644,1155,1148
1645,1147,1143
1646,1143,1135
1647,1132,1131
1648,1129,1128
1649,1119,1122
1650,1110,1117
1651,1099,1111
1652,1091,1102
1653,1080,1098
1654,1072,1095
1655,1064,1091
1656,1055,1084
1657,1044,1076
1658,1033,1072
1659,1024,1068
1660,1017,1066
1661,1011,1061
1662,999,1057
1663,989,1053
1664,977,1050
1665,969,1050
1666,963,1050
1667,957,1048
1668,949,1044
1669,941,1041
1670,931,1039
1671,926,1040
1672,926,1040
1673,924,1042
1674,916,1041
1675,910,1036
1676,905,1036
1677,901,1038
1678,900,1039
1679,900,1038
1680,898,1037
1681,896,1036
1682,893,1033
1683,891,1035
1684,891,1040
1685,891,1039
1686,888,1038
1687,886,1037
1688,883,1038
1689,882,1039
1690,886,1040
1691,886,1041
1692,885,1042
1693,885,1039
1694,882,1040
1695,883,1038
1696,883,1042
1697,888,1046
1698,882,1043
1699,879,1041
1700,880,1039
1701,878,1040
1702,882,1041
1703,882,1043
1704,883,1041
1705,883,1041
1706,885,1040
1707,883,1043
1708,887,1044
1709,889,1046
1710,888,1043
1711,886,1042
1712,884,1042
1713,885,1042
1714,888,1043
1715,890,1044
1716,888,1044
1717,889,1041
1718,890,1040
1719,889,1042
1720,892,1044
1721,895,1044
1722,894,1043
1723,893,1041
1724,891,1038
1725,893,1041
1726,896,1042
1727,901,1041
1728,898,1042
1729,896,1042
1730,893,1038
1731,894,1041
1732,895,1039
1733,900,1039
1734,900,1037
1735,902,1038
1736,898,1034
1737,895,1034
1738,897,1037
1739,898,1038
1740,899,1035
1741,898,1034
1742,896,1034
1743,896,1032
1744,899,1035
1745,899,1036
1746,897,1036
1747,897,1033
1748,896,1030
1749,895,1033
1750,897,1034
1751,899,1036
1752,897,1035
1753,898,1032
1754,898,1027
1755,897,1030
1756,899,1029
1757,897,1032
1758,897,1033
1759,895,1030
1760,894,1027
1761,896,1029
1762,899,1033
1763,902,1033
1764,902,1031
1765,901,1030
1766,899,1028
1767,898,1026
1768,898,1031
1769,899,1032
1770,903,1030
1771,902,1027
1772,901,1027
1773,898,1029
1774,903,1030
1775,904,1032
1776,904,1031
1777,902,1028
1778,900,1027
1779,898,1030
1780,901,1031
1781,908,1030
1782,906,1031
1783,904,1028
1784,902,1025
1785,902,1026
1786,904,1027
1787,903,1028
1788,905,1030
1789,903,1024
1790,904,1022
1791,903,1025
1792,909,1028
1793,909,1028
1794,907,1025
1795,907,1024
1796,907,1022
1797,908,1025
1798,911,1026
1799,913,1024
1800,912,1024
1801,910,1018
1802,909,1018
1803,909,1016
1804,912,1018
1805,916,1015
1806,919,1011
1807,923,1001
1808,927,979
1809,930,924
1810,939,849
1811,961,835
1812,1009,891
1813,1106,948
1814,1229,973
1815,1313,985
1816,1316,990
1817,1280,992
1818,1247,998
1819,1239,997
1820,1231,995
1821,1224,996
1822,1210,992
1823,1193,988
1824,1173,974
1825,1152,958
1826,1132,945
1827,1113,937
1828,1099,931
1829,1081,927
1830,1051,919
1831,1016,906
1832,978,895
1833,934,885
1834,893,872
1835,852,856
1836,803,844
1837,750,832
1838,703,827
1839,662,813
1840,628,792
1841,598,767
1842,573,738
1843,560,711
1844,546,693
1845,536,679
1846,534,665
1847,524,651
1848,502,633
1849,482,617
1850,466,598
1851,451,576
1852,442,556
1853,435,549
1854,432,563
1855,434,589
1856,450,621
1857,485,652
1858,526,690
1859,563,722
1860,597,754
1861,628,778
1862,654,799
1863,677,829
1864,699,857
1865,721,884
1866,739,902
1867,753,920
1868,766,933
1869,780,950
1870,788,969
1871,795,975
1872,797,983
1873,801,990
1874,807,1000
1875,814,1010
1876,833,1014
1877,846,1023
1878,862,1030
1879,873,1034
1880,884,1037
1881,896,1045
1882,916,1054
1883,934,1058
1884,948,1061
1885,957,1060
1886,968,1064
1887,978,1067
1888,990,1070
1889,1006,1072
1890,1015,1074
1891,1020,1074
1892,1022,1074
1893,1026,1079
1894,1030,1082
1895,1037,1085
1896,1039,1088
1897,1043,1087
1898,1046,1087
1899,1049,1092
1900,1056,1097
1901,1059,1100
1902,1063,1100
1903,1065,1101
1904,1069,1101
1905,1072,1106
1906,1077,1112
1907,1082,1114
1908,1089,1114
1909,1095,1116
1910,1102,1118
1911,1107,1122
1912,1117,1127
1913,1119,1131
1914,1126,1132
1915,1131,1133
1916,1138,1134
1917,1144,1139
1918,1153,1144
1919,1163,1146
1920,1168,1149
1921,1174,1150
1922,1178,1150
1923,1184,1154
1924,1197,1156
1925,1203,1160
1926,1207,1162
1927,1212,1160
1928,1212,1160
1929,1217,1163
1930,1222,1167
1931,1226,1166
1932,1228,1165
1933,1228,1163
1934,1226,1160
1935,1227,1160
1936,1229,1162
1937,1231,1159
1938,1228,1157
1939,1224,1152
1940,1219,1147
1941,1213,1147
1942,1207,1144
1943,1202,1140
1944,1195,1135
1945,1190,1127
1946,1181,1120
1947,1174,1117
1948,1169,1112
1949,1160,1109
1950,1151,1101
1951,1142,1091
1952,1133,1087
1953,1121,1083
1954,1115,1081
1955,1108,1075
1956,1099,1068
1957,1088,1060
1958,1078,1055
1959,1066,1052
1960,1058,1048
1961,1053,1045
1962,1042,1042
1963,1033,1035
1964,1023,1033
1965,1014,1033
1966,1008,1030
1967,1001,1030
1968,991,1027
1969,980,1020
1970,969,1020
1971,964,1022
1972,960,1018
1973,956,1017
1974,954,1018
1975,950,1018
1976,947,1016
1977,940,1017
1978,936,1019
1979,939,1017
1980,940,1018
1981,943,1014
1982,941,1012
1983,935,1016
1984,931,1017
1985,933,1018
1986,931,1016
1987,927,1013
1988,925,1013
1989,923,1015
1990,925,1018
1991,926,1020
1992,919,1019
1993,918,1016
1994,915,1014
1995,915,1016
1996,921,1017
1997,927,1019
1998,926,1019
1999,924,1018
2000,923,1018
2001,922,1021
2002,924,1018
2003,923,1021
2004,916,1018
2005,914,1020
2006,920,1019
2007,925,1020
2008,925,1021
2009,922,1022
2010,923,1024
2011,927,1020
2012,926,1019
2013,925,1019
2014,926,1022
2015,928,1024
2016,928,1022
2017,925,1018
2018,923,1016
2019,923,1017
2020,926,1024
2021,928,1021
2022,927,1018
2023,928,1016
2024,926,1016
2025,929,1016
2026,931,1018
2027,933,1017
2028,933,1015
2029,931,1013
2030,926,1012
2031,926,1013
2032,925,1012
2033,934,1013
2034,935,1013
2035,936,1012
2036,933,1006
2037,930,1011
2038,930,1009
2039,927,1012
2040,928,1009
2041,926,1009
2042,925,1007
2043,927,1009
2044,929,1008
2045,930,1009
2046,927,1006
2047,925,1006
2048,924,1002
2049,923,1004
2050,926,1006
2051,927,1006
2052,926,1004
2053,925,1003
2054,925,1002
2055,925,1003
2056,926,1006
2057,927,1004
2058,925,1004
2059,923,1003
2060,920,1005
2061,922,1008
2062,924,1016
2063,929,1022
2064,927,1025
2065,933,1028
2066,932,1030
2067,937,1033
2068,942,1036
2069,945,1040
2070,950,1041
2071,961,1044
2072,970,1045
2073,975,1044
2074,983,1042
2075,987,1033
2076,986,1023
2077,985,1015
2078,987,1010
2079,990,1008
2080,998,1007
2081,1008,1005
2082,1006,999
2083,1002,996
2084,997,993
2085,992,993
2086,991,991
2087,990,988
2088,989,989
2089,988,992
2090,985,991
2091,986,989
2092,985,992
2093,981,990
2094,978,989
2095,978,986
2096,973,984
2097,968,985
2098,965,989
2099,962,988
2100,958,990
2101,951,991
2102,945,988
2103,941,989
2104,939,984
2105,939,981
2106,937,972
2107,938,953
2108,938,897
2109,944,821
2110,969,793
2111,1028,839
2112,1132,896
2113,1259,918
2114,1333,918
2115,1316,919
2116,1266,926
2117,1233,928
2118,1220,926
2119,1205,920
2120,1184,915
2121,1163,915
2122,1142,911
2123,1121,907
2124,1094,903
2125,1071,897
2126,1049,889
2127,1027,889
2128,999,891
2129,968,884
2130,933,876
2131,905,861
2132,877,846
2133,848,833
2134,821,822
2135,792,813
2136,753,801
2137,708,784
2138,665,768
2139,629,748
2140,597,718
2141,573,690
2142,564,666
2143,556,645
2144,549,630
2145,545,617
2146,540,598
2147,530,581
2148,511,563
2149,494,546
2150,479,531
2151,470,519
2152,461,511
2153,453,518
2154,449,545
2155,457,576
2156,477,610
2157,516,644
2158,560,680
2159,601,717
2160,640,748
2161,673,777
2162,696,809
2163,711,837
2164,729,862
2165,744,886
2166,753,903
2167,762,921
2168,771,933
2169,776,948
2170,783,963
2171,793,976
2172,804,987
2173,813,993
2174,824,1003
2175,842,1014
2176,862,1022
2177,873,1027
2178,878,1030
2179,884,1035
2180,905,1042
2181,934,1046
2182,964,1055
2183,979,1056
2184,983,1060
2185,989,1059
2186,999,1060
2187,1013,1063
2188,1024,1064
2189,1028,1067
2190,1034,1070
2191,1037,1069
2192,1040,1073
2193,1043,1073
2194,1048,1079
2195,1057,1078
2196,1064,1080
2197,1070,1080
2198,1075,1081
2199,1083,1084
2200,1089,1090
2201,1096,1092
2202,1098,1095
2203,1103,1096
2204,1106,1097
2205,1111,1100
2206,1118,1103
2207,1127,1106
2208,1133,1109
2209,1134,1109
2210,1142,1111
2211,1147,1117
2212,1153,1120
2213,1164,1122
2214,1172,1125
2215,1179,1125
2216,1186,1127
2217,1189,1132
2218,1196,1137
2219,1204,1139
2220,1208,1142
2221,1212,1141
2222,1215,1143
2223,1218,1145
2224,1224,1150
2225,1229,1150
2226,1227,1151
2227,1230,1150
2228,1228,1150
2229,1227,1152
2230,1228,1153
2231,1230,1151
2232,1227,1150
2233,1225,1146
2234,1223,1144
2235,1219,1142
2236,1214,1141
2237,1213,1142
2238,1206,1136
2239,1199,1129
2240,1191,1124
2241,1184,1122
2242,1180,1121
2243,1174,1116
2244,1164,1107
2245,1156,1100
2246,1144,1092
2247,1136,1089
2248,1130,1084
2249,1123,1079
2250,1113,1073
2251,1103,1064
2252,1095,1057
2253,1083,1054
2254,1076,1051
2255,1069,1048
2256,1059,1040
2257,1048,1034
2258,1036,1030
2259,1026,1028
2260,1020,1028
2261,1013,1025
2262,1005,1022
2263,996,1017
2264,987,1014
2265,979,1013
2266,973,1013
2267,970,1014
2268,965,1012
2269,959,1007
2270,953,1006
2271,949,1006
2272,947,1011
2273,943,1010
2274,941,1010
2275,936,1007
2276,932,1007
2277,928,1008
2278,933,1010
2279,932,1010
2280,930,1011
2281,928,1007
2282,926,1005
2283,924,1007
2284,925,1011
2285,925,1011
2286,926,1012
2287,922,1010
2288,920,1009
2289,919,1010
2290,919,1012
2291,921,1013
2292,921,1013
2293,918,1010
2294,919,1010
2295,916,1011
2296,918,1014
2297,919,1016
2298,918,1015
2299,919,1012
2300,917,1013
2301,915,1013
2302,916,1018
2303,919,1015
2304,919,1018
2305,916,1015
2306,917,1016
2307,917,1021
2308,922,1028
2309,924,1032
2310,925,1036
2311,922,1041
2312,923,1044
2313,926,1048
2314,932,1050
2315,937,1050
2316,945,1056
2317,951,1055
2318,959,1059
2319,971,1064
2320,976,1065
2321,984,1059
2322,988,1052
2323,989,1040
2324,988,1034
2325,990,1031
2326,998,1028
2327,1004,1024
2328,1005,1020
2329,1002,1016
2330,995,1012
2331,988,1014
2332,987,1011
2333,986,1008
2334,986,1005
2335,983,1004
2336,979,1004
2337,980,1006
2338,979,1007
2339,978,1007
2340,974,1004
2341,971,1002
2342,968,1000
2343,961,1001
2344,955,1005
2345,954,1005
2346,946,1008
2347,940,1006
2348,932,1009
2349,927,1009
2350,923,1009
2351,921,1006
2352,917,1004
2353,914,1002
2354,908,1001
2355,904,1000
2356,902,1000
2357,903,1000
2358,901,996
2359,894,995
2360,889,995
2361,888,997
2362,888,998
2363,893,999
2364,892,996
2365,891,995
2366,893,994
2367,894,996
2368,895,999
2369,896,997
2370,894,998
2371,890,997
2372,890,994
2373,884,995
2374,886,997
2375,889,999
2376,890,996
2377,889,994
2378,887,993
2379,886,997
2380,887,998
2381,886,999
2382,886,998
2383,884,994
2384,884,995
2385,886,995
2386,888,999
2387,891,998
2388,889,996
2389,886,995
2390,887,994
2391,887,994
2392,888,995
2393,892,996
2394,891,995
2395,890,994
2396,888,992
2397,886,994
2398,890,995
2399,896,995
2400,895,991
2401,897,986
2402,898,980
2403,902,963
2404,908,909
2405,918,825
2406,938,797
2407,979,843
2408,1070,899
2409,1197,924
2410,1306,928
2411,1319,931
2412,1277,934
2413,1240,938
2414,1220,937
2415,1208,935
2416,1200,935
2417,1182,931
2418,1160,929
2419,1142,925
2420,1123,923
2421,1108,920
2422,1093,918
2423,1074,915
2424,1053,910
2425,1028,903
2426,1006,899
2427,978,893
2428,955,887
2429,932,875
2430,904,858
2431,869,842
2432,836,830
2433,801,822
2434,769,815
2435,734,805
2436,702,778
2437,660,749
2438,623,718
2439,596,694
2440,581,680
2441,575,666
2442,570,653
2443,564,638
2444,554,622
2445,544,606
2446,530,599
2447,514,581
2448,499,569
2449,486,552
2450,474,541
2451,465,557
2452,464,584
2453,477,616
2454,499,650
2455,528,683
2456,562,717
2457,598,753
2458,639,785
2459,679,814
2460,702,842
2461,720,864
2462,728,889
2463,744,911
2464,761,929
2465,775,941
2466,787,959
2467,797,967
2468,802,981
2469,809,989
2470,812,1002
2471,817,1006
2472,824,1010
2473,835,1015
2474,846,1019
2475,859,1029
2476,874,1037
2477,887,1043
2478,902,1050
2479,912,1054
2480,925,1057
2481,942,1064
2482,960,1068
2483,972,1073
2484,985,1075
2485,996,1075
2486,1002,1076
2487,1016,1079
2488,1025,1081
2489,1032,1082
2490,1036,1086
2491,1038,1087
2492,1040,1088
2493,1044,1091
2494,1052,1093
2495,1057,1096
2496,1063,1098
2497,1062,1095
2498,1064,1098
2499,1067,1101
2500,1073,1104
2501,1080,1106
2502,1085,1108
2503,1086,1111
2504,1089,1112
2505,1095,1115
2506,1102,1120
2507,1112,1122
2508,1115,1124
2509,1119,1126
2510,1122,1125
2511,1127,1131
2512,1135,1136
2513,1143,1136
2514,1147,1138
2515,1151,1141
2516,1157,1141
2517,1161,1147
2518,1167,1149
2519,1175,1152
2520,1179,1154
2521,1183,1154
2522,1186,1158
2523,1188,1160
2524,1195,1166
2525,1199,1166
2526,1201,1166
2527,1200,1166
2528,1203,1165
2529,1205,1167
2530,1207,1167
2531,1208,1168
2532,1209,1168
2533,1206,1163
2534,1204,1161
2535,1200,1163
2536,1200,1164
2537,1198,1159
2538,1192,1153
2539,1187,1151
2540,1182,1147
2541,1178,1143
2542,1173,1139
2543,1170,1136
2544,1164,1131
2545,1156,1126
2546,1145,1116
2547,1137,1113
2548,1133,1108
2549,1126,1103
2550,1118,1097
2551,1108,1091
2552,1097,1086
2553,1089,1076
2554,1081,1074
2555,1073,1068
2556,1066,1063
2557,1055,1056
2558,1043,1052
2559,1035,1050
2560,1029,1052
2561,1024,1047
2562,1015,1050
2563,1006,1048
2564,1002,1052
2565,998,1056
2566,994,1057
2567,994,1061
2568,988,1056
2569,986,1055
2570,983,1054
2571,986,1056
2572,992,1060
2573,999,1064
2574,1005,1059
2575,1008,1055
2576,1010,1050
2577,1007,1044
2578,1009,1039
2579,1013,1033
2580,1014,1032
2581,1010,1023
2582,1009,1023
2583,1003,1019
2584,994,1017
2585,993,1016
2586,983,1012
2587,979,1010
2588,974,1008
2589,976,1010
2590,975,1015
2591,980,1017
2592,977,1017
2593,970,1016
2594,966,1017
2595,961,1018
2596,961,1019
2597,959,1018
2598,952,1017
2599,945,1016
2600,939,1018
2601,932,1023
2602,928,1027
2603,923,1029
2604,917,1026
2605,912,1022
2606,905,1019
2607,903,1022
2608,901,1023
2609,902,1026
2610,899,1020
2611,892,1019
2612,890,1017
2613,886,1016
2614,887,1021
2615,887,1022
2616,885,1019
2617,883,1017
2618,881,1016
2619,882,1020
2620,882,1023
2621,885,1021
2622,885,1021
2623,883,1020
2624,880,1019
2625,880,1017
2626,885,1022
2627,883,1022
2628,881,1019
2629,881,1019
2630,880,1016
2631,879,1018
2632,880,1020
2633,880,1020
2634,879,1017
2635,876,1013
2636,873,1013
2637,873,1014
2638,876,1017
2639,876,1018
2640,876,1017
2641,875,1015
2642,873,1012
2643,873,1013
2644,874,1016
2645,875,1016
2646,873,1016
2647,872,1013
2648,869,1012
2649,870,1016
2650,871,1018
2651,874,1017
2652,875,1016
2653,872,1016
2654,868,1011
2655,871,1016
2656,870,1017
2657,874,1018
2658,873,1017
2659,871,1015
2660,871,1014
2661,871,1018
2662,873,1021
2663,872,1019
2664,871,1020
2665,869,1016
2666,870,1017
2667,870,1018
2668,872,1020
2669,873,1018
2670,875,1022
2671,875,1019
2672,873,1019
2673,875,1021
2674,877,1025
2675,879,1022
2676,879,1023
2677,877,1020
2678,874,1022
2679,876,1022
2680,878,1025
2681,880,1023
2682,881,1025
2683,880,1023
2684,880,1020
2685,880,1021
2686,883,1023
2687,885,1023
2688,885,1020
2689,882,1019
2690,881,1018
2691,881,1019
2692,882,1023
2693,885,1022
2694,887,1021
2695,887,1018
2696,886,1018
2697,888,1018
2698,890,1020
2699,892,1017
2700,892,1018
2701,890,1015
2702,891,1013
2703,895,1013
2704,898,1014
2705,900,1012
2706,899,1010
2707,899,1005
2708,898,1000
2709,903,987
2710,911,944
2711,921,870
2712,940,828
2713,970,850
2714,1042,901
2715,1158,933
2716,1268,939
2717,1322,940
2718,1304,942
2719,1269,947
2720,1245,945
2721,1232,946
2722,1226,946
2723,1210,944
2724,1191,940
2725,1170,935
2726,1147,931
2727,1126,927
2728,1111,924
2729,1093,920
2730,1070,918
2731,1045,913
2732,1019,908
2733,993,907
2734,963,900
2735,937,892
2736,905,881
2737,870,865
2738,832,850
2739,796,843
2740,763,836
2741,728,830
2742,694,821
2743,655,799
2744,622,777
2745,591,754
2746,566,730
2747,555,711
2748,546,698
2749,537,685
2750,527,671
2751,520,660
2752,513,645
2753,505,632
2754,490,617
2755,479,601
2756,468,580
2757,457,561
2758,451,559
2759,448,575
2760,447,603
2761,456,628
2762,476,655
2763,504,691
2764,540,721
2765,574,749
2766,609,773
2767,645,797
2768,675,827
2769,696,852
2770,713,879
2771,729,900
2772,746,920
2773,760,938
2774,775,954
2775,790,970
2776,803,985
2777,808,992
2778,812,1000
2779,814,1007
2780,818,1014
2781,828,1021
2782,844,1031
2783,858,1035
2784,865,1042
2785,872,1048
2786,880,1052
2787,894,1060
2788,907,1067
2789,922,1072
2790,937,1075
2791,951,1078
2792,963,1079
2793,976,1082
2794,987,1084
2795,1001,1088
2796,1014,1089
2797,1021,1089
2798,1030,1091
2799,1033,1092
2800,1038,1097
2801,1042,1100
2802,1045,1101
2803,1047,1100
2804,1047,1101
2805,1050,1104
2806,1054,1109
2807,1061,1108
2808,1063,1110
2809,1064,1107
2810,1068,1110
2811,1072,1113
2812,1078,1117
2813,1084,1117
2814,1088,1121
2815,1092,1121
2816,1095,1124
2817,1100,1126
2818,1103,1130
2819,1112,1137
2820,1119,1134
2821,1122,1138
2822,1128,1139
2823,1132,1144
2824,1138,1150
2825,1145,1157
2826,1154,1164
2827,1160,1169
2828,1165,1175
2829,1174,1184
2830,1182,1189
2831,1190,1192
2832,1203,1197
2833,1213,1196
2834,1221,1198
2835,1232,1202
2836,1242,1205
2837,1253,1208
2838,1258,1204
2839,1259,1200
2840,1262,1195
2841,1262,1189
2842,1264,1187
2843,1270,1184
2844,1275,1179
2845,1275,1173
2846,1270,1165
2847,1262,1161
2848,1258,1163
2849,1252,1157
2850,1247,1151
2851,1238,1146
2852,1231,1143
2853,1227,1141
2854,1222,1139
2855,1216,1135
2856,1209,1128
2857,1199,1120
2858,1186,1115
2859,1176,1109
2860,1167,1107
2861,1157,1100
2862,1146,1095
2863,1133,1088
2864,1118,1084
2865,1107,1083
2866,1096,1080
2867,1084,1073
2868,1069,1065
2869,1054,1060
2870,1041,1051
2871,1028,1049
2872,1017,1046
2873,1009,1042
2874,998,1037
2875,985,1032
2876,972,1029
2877,962,1029
2878,956,1029
2879,948,1028
2880,941,1025
2881,932,1023
2882,927,1022
2883,922,1021
2884,918,1022
2885,917,1021
2886,912,1019
2887,911,1019
2888,905,1019
2889,901,1020
2890,898,1021
2891,895,1022
2892,889,1019
2893,888,1018
2894,882,1016
2895,884,1018
2896,886,1021
2897,885,1022
2898,881,1020
2899,881,1018
2900,879,1018
2901,878,1018
2902,876,1023
2903,877,1022
2904,876,1023
2905,876,1019
2906,873,1018
2907,874,1023
2908,873,1026
2909,876,1022
2910,872,1025
2911,867,1023
2912,864,1024
2913,865,1024
2914,868,1028
2915,869,1028
2916,871,1027
2917,870,1026
2918,868,1026
2919,872,1030
2920,873,1031
2921,872,1030
2922,871,1031
2923,868,1030
2924,865,1029
2925,866,1032
2926,867,1035
2927,869,1035
2928,872,1033
2929,868,1029
2930,868,1030
2931,870,1034
2932,869,1035
2933,874,1034
2934,875,1034
2935,875,1031
2936,873,1033
2937,873,1032
2938,875,1033
2939,876,1035
2940,876,1035
2941,876,1034
2942,876,1032
2943,877,1033
2944,877,1030
2945,876,1032
2946,874,1032
2947,871,1031
2948,870,1030
2949,872,1032
2950,876,1035
2951,876,1034
2952,879,1032
2953,875,1030
2954,875,1031
2955,875,1033
2956,878,1035
2957,880,1033
2958,883,1031
2959,878,1029
2960,877,1027
2961,876,1030
2962,879,1032
2963,879,1033
2964,883,1034
2965,884,1028
2966,882,1027
2967,881,1028
2968,885,1030
2969,885,1030
2970,886,1028
2971,882,1029
2972,881,1027
2973,882,1027
2974,884,1030
2975,885,1030
2976,886,1025
2977,887,1024
2978,887,1024
2979,887,1025
2980,888,1027
2981,890,1025
2982,888,1025
2983,887,1021
2984,888,1021
2985,887,1024
2986,886,1025
2987,886,1026
2988,889,1024
2989,890,1022
2990,891,1024
2991,889,1025
2992,890,1025
2993,897,1025
2994,896,1023
2995,893,1020
2996,891,1020
2997,895,1024
2998,898,1026
2999,898,1021
3000,900,1021
3001,898,1018
3002,896,1019
3003,893,1021
3004,894,1023
3005,896,1022
3006,898,1018
3007,898,1016
3008,895,1016
3009,896,1016
3010,898,1018
3011,901,1015
3012,902,1015
3013,902,1011
3014,897,1012
3015,900,1012
3016,904,1011
3017,906,1011
3018,907,1007
3019,908,1002
3020,908,995
3021,913,976
3022,919,924
3023,929,846
3024,942,816
3025,970,849
3026,1032,899
3027,1142,931
3028,1253,936
3029,1307,938
3030,1296,940
3031,1260,943
3032,1233,945
3033,1223,945
3034,1212,946
3035,1196,943
3036,1178,936
3037,1157,932
3038,1135,926
3039,1114,925
3040,1092,920
3041,1071,919
3042,1048,914
3043,1027,908
3044,999,903
3045,968,902
3046,939,901
3047,906,895
3048,867,886
3049,826,872
3050,783,861
3051,740,852
3052,700,847
3053,659,837
3054,614,826
3055,579,815
3056,547,798
3057,523,780
3058,504,755
3059,490,733
3060,480,715
3061,473,703
3062,465,689
3063,463,676
3064,458,662
3065,447,644
3066,436,628
3067,423,607
3068,412,588
3069,409,573
3070,405,572
3071,403,589
3072,407,611
3073,421,641
3074,449,672
3075,491,708
3076,536,740
3077,579,764
3078,621,791
3079,654,812
3080,679,840
3081,698,862
3082,714,888
3083,731,907
3084,748,923
3085,759,932
3086,772,947
3087,790,964
3088,803,979
3089,813,991
3090,819,1006
3091,828,1014
3092,836,1024
3093,849,1033
3094,867,1042
3095,887,1052
3096,903,1057
3097,917,1061
3098,930,1068
3099,948,1079
3100,968,1088
3101,984,1094
3102,1005,1098
3103,1021,1097
3104,1037,1094
3105,1055,1092
3106,1069,1087
3107,1084,1083
3108,1101,1079
3109,1116,1075
3110,1130,1073
3111,1137,1073
3112,1137,1072
3113,1139,1070
3114,1133,1069
3115,1133,1067
3116,1130,1066
3117,1135,1070
3118,1142,1073
3119,1148,1074
3120,1154,1076
3121,1155,1078
3122,1152,1074
3123,1154,1081
3124,1157,1084
3125,1163,1085
3126,1160,1087
3127,1158,1088
3128,1159,1090
3129,1160,1095
3130,1165,1101
3131,1168,1105
3132,1170,1107
3133,1169,1106
3134,1169,1107
3135,1175,1109
3136,1180,1112
3137,1183,1113
3138,1186,1113
3139,1187,1113
3140,1187,1115
3141,1186,1119
3142,1195,1122
3143,1199,1126
3144,1207,1124
3145,1211,1125
3146,1212,1126
3147,1216,1129
3148,1221,1134
3149,1226,1133
3150,1230,1135
3151,1230,1133
3152,1229,1132
3153,1233,1139
3154,1235,1140
3155,1236,1140
3156,1236,1139
3157,1231,1136
3158,1227,1136
3159,1227,1136
3160,1225,1138
3161,1222,1135
3162,1215,1131
3163,1208,1128
3164,1201,1126
3165,1198,1124
3166,1197,1123
3167,1193,1118
3168,1187,1112
3169,1178,1106
3170,1167,1101
3171,1158,1098
3172,1153,1097
3173,1144,1091
3174,1135,1086
3175,1123,1077
3176,1113,1071
3177,1107,1068
3178,1098,1066
3179,1090,1060
3180,1081,1054
3181,1069,1048
3182,1056,1043
3183,1049,1041
3184,1042,1036
3185,1032,1031
3186,1022,1028
3187,1012,1024
3188,1001,1019
3189,993,1018
3190,985,1019
3191,981,1017
3192,968,1016
3193,963,1013
3194,953,1011
3195,952,1012
3196,943,1012
3197,936,1011
3198,926,1011
3199,919,1009
3200,912,1005
3201,910,1010
3202,913,1010
3203,913,1011
3204,909,1011
3205,901,1009
3206,899,1009
3207,898,1010
3208,898,1014
3209,897,1014
3210,894,1014
3211,892,1013
3212,891,1014
3213,890,1017
3214,891,1018
3215,892,1016
3216,888,1018
3217,884,1015
3218,882,1019
3219,882,1020
3220,886,1021
3221,887,1023
3222,888,1022
3223,886,1021
3224,886,1023
3225,888,1023
3226,891,1025
3227,892,1023
3228,890,1024
3229,888,1022
3230,882,1023
3231,880,1025
3232,883,1028
3233,884,1028
3234,882,1029
3235,882,1026
3236,882,1025
3237,887,1028
3238,890,1028
3239,891,1029
3240,892,1027
3241,889,1026
3242,886,1027
3243,889,1026
3244,893,1028
3245,895,1028
3246,897,1028
3247,894,1025
3248,893,1025
3249,894,1025
3250,896,1028
3251,901,1027
3252,901,1024
3253,902,1023
3254,898,1020
3255,896,1023
3256,896,1024
3257,897,1022
3258,899,1024
3259,899,1020
3260,899,1019
3261,898,1022
3262,899,1021
3263,901,1020
3264,897,1020
3265,896,1018
3266,892,1017
3267,894,1019
3268,899,1022
3269,899,1018
3270,899,1018
3271,896,1017
3272,894,1017
3273,894,1017
3274,897,1018
3275,900,1019
3276,899,1017
3277,896,1015
3278,894,1014
3279,896,1017
3280,898,1018
3281,898,1018
3282,896,1017
3283,895,1016
3284,896,1014
3285,896,1015
3286,900,1019
3287,904,1018
3288,903,1014
3289,902,1016
3290,900,1016
3291,899,1016
3292,900,1019
3293,900,1018
3294,900,1019
3295,901,1015
3296,898,1014
3297,897,1014
3298,902,1017
3299,905,1017
3300,907,1017
3301,906,1014
3302,905,1014
3303,904,1017
3304,902,1019
3305,901,1018
3306,902,1018
3307,903,1016
3308,904,1013
3309,906,1014
3310,905,1014
3311,905,1015
3312,903,1017
3313,900,1014
3314,902,1013
3315,905,1015
3316,908,1018
3317,909,1014
3318,910,1014
3319,908,1010
3320,906,1010
3321,907,1013
3322,909,1016
3323,912,1013
3324,910,1015
3325,908,1010
3326,907,1009
3327,908,1009
3328,909,1011
3329,911,1011
3330,912,1010
3331,911,1006
3332,911,1003
3333,918,1002
3334,921,996
3335,926,982
3336,931,933
3337,935,859
3338,950,823
3339,984,858
3340,1052,911
3341,1162,940
3342,1271,945
3343,1322,946
3344,1302,946
3345,1265,952
3346,1238,955
3347,1230,953
3348,1219,950
3349,1203,944
3350,1182,943
3351,1161,942
3352,1142,939
3353,1125,937
3354,1108,935
3355,1087,935
3356,1062,937
3357,1036,941
3358,1005,943
3359,978,942
3360,947,936
3361,916,924
3362,882,912
3363,844,906
3364,809,903
3365,775,900
3366,741,890
3367,707,872
3368,674,847
3369,638,813
3370,613,781
3371,593,757
3372,586,739
3373,580,723
3374,575,707
3375,567,690
3376,559,677
3377,540,657
3378,519,635
3379,501,612
3380,485,591
3381,473,573
3382,461,573
3383,451,591
3384,456,615
3385,470,638
3386,501,670
3387,543,705
3388,591,734
3389,633,760
3390,668,786
3391,699,808
3392,714,831
3393,729,856
3394,740,883
3395,753,902
3396,767,914
3397,774,927
3398,777,941
3399,785,955
3400,791,970
3401,793,979
3402,796,985
3403,797,989
3404,802,993
3405,811,1003
3406,822,1011
3407,830,1018
3408,838,1021
3409,847,1026
3410,863,1035
3411,884,1041
3412,900,1049
3413,916,1051
3414,928,1055
3415,939,1055
3416,946,1062
3417,956,1065
3418,965,1070
3419,978,1071
3420,989,1070
3421,999,1071
3422,1003,1071
3423,1007,1077
3424,1010,1081
3425,1015,1083
3426,1018,1082
3427,1022,1082
3428,1024,1083
3429,1028,1088
3430,1033,1091
3431,1041,1093
3432,1045,1096
3433,1044,1098
3434,1046,1095
3435,1046,1101
3436,1050,1104
3437,1055,1107
3438,1059,1108
3439,1062,1111
3440,1066,1112
3441,1072,1119
3442,1078,1121
3443,1084,1124
3444,1086,1126
3445,1090,1126
3446,1093,1127
3447,1100,1133
3448,1108,1139
3449,1114,1142
3450,1119,1143
3451,1122,1145
3452,1128,1148
3453,1135,1153
3454,1144,1156
3455,1153,1159
3456,1158,1163
3457,1160,1162
3458,1164,1163
3459,1169,1167
3460,1172,1171
3461,1180,1172
3462,1180,1173
3463,1183,1172
3464,1182,1173
3465,1184,1173
3466,1189,1176
3467,1191,1175
3468,1192,1175
3469,1192,1172
3470,1190,1170
3471,1194,1170
3472,1192,1168
3473,1190,1167
3474,1188,1162
3475,1183,1157
3476,1178,1153
3477,1173,1152
3478,1174,1151
3479,1170,1145
3480,1166,1138
3481,1159,1133
3482,1153,1128
3483,1145,1122
3484,1140,1118
3485,1131,1113
3486,1119,1106
3487,1115,1099
3488,1105,1093
3489,1095,1089
3490,1087,1087
3491,1083,1081
3492,1075,1074
3493,1067,1068
3494,1055,1062
3495,1048,1059
3496,1039,1057
3497,1033,1053
3498,1023,1049
3499,1017,1044
3500,1002,1039
3501,995,1040
3502,992,1037
3503,986,1037
3504,979,1032
3505,969,1031
3506,963,1029
3507,959,1027
3508,957,1031
3509,951,1029
3510,950,1029
3511,944,1027
3512,938,1028
3513,934,1030
3514,935,1027
3515,933,1027
3516,930,1027
3517,926,1025
3518,922,1024
3519,921,1026
3520,920,1030
3521,920,1028
3522,920,1028
3523,921,1026
3524,918,1026
3525,915,1029
3526,918,1031
3527,917,1028
3528,917,1028
3529,916,1027
3530,911,1028
3531,911,1029
3532,912,1030
3533,910,1030
3534,910,1031
3535,907,1028
3536,905,1030
3537,907,1029
3538,911,1035
3539,913,1036
3540,913,1035
3541,907,1033
3542,907,1030
3543,907,1035
3544,908,1034
3545,908,1034
3546,909,1036
3547,907,1036
3548,907,1033
3549,910,1035
3550,914,1036
3551,917,1036
3552,918,1034
3553,916,1033
3554,912,1034
3555,912,1035
3556,916,1038
3557,920,1038
3558,919,1035
3559,918,1034
3560,914,1036
3561,915,1034
3562,917,1037
3563,918,1035
3564,918,1037
3565,918,1032
3566,918,1030
3567,920,1036
3568,919,1036
3569,920,1036
3570,919,1032
3571,918,1032
3572,918,1030
3573,918,1032
3574,921,1034
3575,924,1034
3576,922,1033
3577,919,1029
3578,913,1027
3579,914,1030
3580,916,1034
3581,918,1031
3582,917,1031
3583,913,1028
3584,913,1027
3585,912,1029
3586,912,1031
3587,918,1030
3588,918,1029
3589,915,1027
3590,910,1029
3591,913,1029
3592,915,1031
3593,914,1029
3594,916,1027
3595,912,1026
3596,908,1027
3597,908,1026
3598,911,1028
3599,913,1028
3600,914,1027
3601,912,1025
3602,909,1024
3603,909,1027
3604,910,1029
3605,911,1028
3606,915,1027
3607,910,1027
3608,909,1027
3609,908,1028
3610,912,1028
3611,914,1027
3612,914,1027
3613,913,1026
3614,910,1025
3615,910,1027
3616,913,1030
3617,916,1029
3618,915,1030
3619,913,1031
3620,915,1034
3621,917,1042
3622,920,1051
3623,921,1053
3624,917,1057
3625,920,1057
3626,922,1061
3627,928,1065
3628,936,1069
3629,941,1072
3630,947,1075
3631,957,1078
3632,962,1076
3633,969,1072
3634,978,1065
3635,983,1054
3636,982,1045
3637,979,1036
3638,980,1031
3639,990,1030
3640,999,1030
3641,1001,1022
3642,996,1019
3643,990,1017
3644,982,1014
3645,980,1010
3646,979,1008
3647,979,1006
3648,982,1000
3649,984,971
3650,987,911
3651,994,849
3652,1004,852
3653,1038,900
3654,1111,940
3655,1215,951
3656,1302,949
3657,1326,956
3658,1304,959
3659,1273,965
3660,1252,967
3661,1238,963
3662,1221,959
3663,1204,956
3664,1185,951
3665,1164,945
3666,1139,942
3667,1116,934
3668,1092,931
3669,1071,928
3670,1051,924
3671,1030,920
3672,1004,915
3673,970,909
3674,934,902
3675,901,896
3676,863,889
3677,829,874
3678,792,862
3679,752,851
3680,709,844
3681,676,839
3682,644,828
3683,614,811
3684,583,791
3685,564,761
3686,547,736
3687,535,715
3688,527,700
3689,523,688
3690,520,673
3691,515,655
3692,505,640
3693,494,628
3694,482,619
3695,474,602
3696,463,587
3697,447,574
3698,434,566
3699,424,574
3700,421,598
3701,430,627
3702,451,653
3703,486,681
3704,525,710
3705,571,743
3706,612,769
3707,639,793
3708,666,816
3709,692,835
3710,708,858
3711,723,882
3712,737,899
3713,743,911
3714,751,927
3715,758,941
3716,762,953
3717,769,965
3718,774,975
3719,776,987
3720,781,996
3721,786,1006
3722,798,1012
3723,812,1022
3724,829,1032
3725,843,1037
3726,854,1046
3727,861,1053
3728,873,1056
3729,885,1065
3730,901,1073
3731,918,1077
3732,934,1082
3733,947,1084
3734,958,1089
3735,972,1089
3736,985,1091
3737,999,1094
3738,1008,1092
3739,1015,1097
3740,1017,1098
3741,1020,1100
3742,1027,1106
3743,1031,1105
3744,1037,1105
3745,1040,1107
3746,1040,1109
3747,1046,1113
3748,1053,1116
3749,1059,1119
3750,1065,1119
3751,1069,1121
3752,1070,1124
3753,1077,1127
3754,1084,1132
3755,1094,1133
3756,1099,1135
3757,1105,1134
3758,1106,1136
3759,1111,1139
3760,1118,1142
3761,1126,1145
3762,1131,1147
3763,1136,1148
3764,1139,1149
3765,1146,1153
3766,1151,1157
3767,1163,1160
3768,1171,1161
3769,1177,1162
3770,1180,1164
3771,1182,1168
3772,1192,1172
3773,1197,1173
3774,1204,1176
3775,1211,1174
3776,1213,1177
3777,1214,1178
3778,1219,1182
3779,1223,1180
3780,1226,1180
3781,1226,1178
3782,1229,1179
3783,1231,1183
3784,1232,1183
3785,1230,1181
3786,1230,1182
3787,1226,1176
3788,1222,1174
3789,1221,1176
3790,1221,1173
3791,1218,1170
3792,1213,1166
3793,1204,1160
3794,1198,1156
3795,1192,1154
3796,1186,1147
3797,1177,1146
3798,1172,1137
3799,1161,1131
3800,1154,1124
3801,1150,1120
3802,1146,1116
3803,1137,1108
3804,1125,1102
3805,1110,1096
3806,1098,1088
3807,1090,1085
3808,1087,1082
3809,1083,1078
3810,1072,1073
3811,1058,1068
3812,1049,1064
3813,1038,1058
3814,1032,1055
3815,1026,1051
3816,1018,1048
3817,1009,1045
3818,1000,1044
3819,992,1042
3820,986,1042
3821,981,1042
3822,977,1042
3823,969,1040
3824,961,1038
3825,959,1038
3826,954,1039
3827,950,1034
3828,946,1034
3829,941,1031
3830,937,1031
3831,934,1034
3832,931,1036
3833,926,1035
3834,924,1036
3835,921,1031
3836,921,1031
3837,924,1033
3838,924,1035
3839,922,1035
3840,921,1037
3841,914,1033
3842,915,1033
3843,913,1035
3844,916,1038
3845,920,1037
3846,923,1037
3847,919,1035
3848,917,1034
3849,913,1034
3850,912,1038
3851,913,1040
3852,915,1037
3853,912,1035
3854,908,1035
3855,910,1038
3856,911,1037
3857,913,1039
3858,909,1038
3859,908,1036
3860,906,1038
3861,910,1040
3862,911,1041
3863,910,1041
3864,908,1043
3865,906,1042
3866,903,1041
3867,900,1041
3868,903,1043
3869,907,1045
3870,909,1043
3871,906,1042
3872,906,1041
3873,903,1043
3874,906,1044
3875,912,1044
3876,912,1042
3877,909,1041
3878,908,1043
3879,911,1043
3880,910,1045
3881,914,1045
3882,913,1045
3883,913,1043
3884,912,1047
3885,912,1055
3886,917,1062
3887,915,1066
3888,920,1069
3889,918,1070
3890,916,1074
3891,919,1074
3892,924,1080
3893,934,1082
3894,935,1084
3895,945,1087
3896,953,1088
3897,963,1091
3898,968,1086
3899,976,1075
3900,976,1070
3901,974,1059
3902,972,1052
3903,976,1051
3904,982,1049
3905,982,1043
3906,980,1039
3907,972,1035
3908,964,1034
3909,961,1035
3910,959,1033
3911,957,1032
3912,956,1031
3913,953,1030
3914,951,1032
3915,950,1034
3916,949,1035
3917,947,1034
3918,946,1033
3919,947,1029
3920,942,1029
3921,935,1034
3922,928,1036
3923,921,1034
3924,913,1038
3925,907,1036
3926,904,1036
3927,904,1035
3928,899,1037
3929,900,1033
3930,893,1031
3931,890,1030
3932,881,1027
3933,879,1030
3934,879,1028
3935,878,1029
3936,877,1029
3937,874,1026
3938,869,1027
3939,865,1026
3940,866,1031
3941,866,1031
3942,865,1030
3943,861,1028
3944,861,1029
3945,861,1030
3946,862,1029
3947,862,1030
3948,862,1028
3949,858,1026
3950,859,1024
3951,860,1025
3952,863,1027
3953,866,1028
3954,862,1026
3955,863,1024
3956,863,1024
3957,866,1023
3958,871,1021
3959,878,1019
3960,882,1000
3961,886,948
3962,896,874
3963,922,857
3964,978,906
3965,1083,952
3966,1208,970
3967,1293,970
3968,1295,970
3969,1254,974
3970,1214,979
3971,1198,976
3972,1186,974
3973,1170,968
3974,1149,961
3975,1123,962
3976,1107,960
3977,1093,957
3978,1077,951
3979,1053,946
3980,1027,942
3981,1003,941
3982,975,937
3983,953,928
3984,924,921
3985,896,910
3986,862,894
3987,831,884
3988,800,876
3989,771,868
3990,736,858
3991,705,844
3992,672,823
3993,642,793
3994,610,768
3995,585,741
3996,566,721
3997,556,709
3998,548,695
3999,543,680
4000,539,666
4001,527,653
4002,506,635
4003,486,616
4004,468,598
4005,458,593
4006,448,603
4007,444,625
4008,440,654
4009,453,684
4010,475,715
4011,506,751
4012,538,785
4013,577,813
4014,613,844
4015,644,870
4016,661,897
4017,674,925
4018,690,946
4019,706,964
4020,720,980
4021,729,992
4022,734,1006
4023,743,1020
4024,749,1029
4025,753,1041
4026,760,1048
4027,769,1056
4028,782,1063
4029,795,1071
4030,812,1078
4031,827,1087
4032,839,1095
4033,851,1099
4034,861,1105
4035,875,1113
4036,891,1117
4037,910,1120
4038,925,1120
4039,934,1121
4040,943,1125
4041,956,1129
4042,969,1135
4043,977,1135
4044,983,1135
4045,983,1136
4046,985,1137
4047,992,1141
4048,998,1147
4049,1002,1148
4050,1003,1149
4051,1006,1149
4052,1007,1152
4053,1014,1156
4054,1020,1159
4055,1028,1160
4056,1034,1163
4057,1041,1161
4058,1040,1166
4059,1047,1171
4060,1050,1176
4061,1058,1179
4062,1066,1179
4063,1072,1182
4064,1074,1184
4065,1078,1189
4066,1083,1193
4067,1090,1194
4068,1097,1197
4069,1102,1197
4070,1110,1201
4071,1117,1207
4072,1125,1212
4073,1130,1212
4074,1138,1215
4075,1143,1216
4076,1149,1216
4077,1156,1222
4078,1161,1223
4079,1159,1226
4080,1163,1226
4081,1163,1223
4082,1167,1225
4083,1173,1226
4084,1177,1228
4085,1175,1225
4086,1171,1223
4087,1167,1221
4088,1159,1221
4089,1154,1219
4090,1154,1220
4091,1149,1216
4092,1143,1212
4093,1140,1205
4094,1132,1201
4095,1126,1199
4096,1123,1197
4097,1118,1187
4098,1110,1181
4099,1099,1173
4100,1090,1168
4101,1084,1162
4102,1076,1159
4103,1073,1150
4104,1058,1146
4105,1046,1137
4106,1033,1132
4107,1024,1129
4108,1014,1126
4109,1008,1120
4110,999,1116
4111,992,1110
4112,981,1105
4113,972,1103
4114,964,1104
4115,954,1102
4116,949,1098
4117,939,1093
4118,928,1091
4119,922,1094
4120,920,1095
4121,919,1093
4122,913,1091
4123,910,1088
4124,903,1088
4125,901,1087
4126,897,1089
4127,893,1088
4128,893,1087
4129,890,1084
4130,887,1082
4131,888,1085
4132,885,1094
4133,879,1096
4134,880,1097
4135,881,1100
4136,882,1107
4137,884,1113
4138,888,1118
4139,894,1121
4140,897,1121
4141,898,1120
4142,902,1121
4143,911,1124
4144,920,1128
4145,928,1126
4146,936,1123
4147,938,1118
4148,940,1110
4149,943,1109
4150,946,1107
4151,950,1100
4152,953,1098
4153,953,1092
4154,950,1089
4155,946,1087
4156,941,1090
4157,935,1088
4158,930,1083
4159,928,1079
4160,924,1080
4161,926,1084
4162,929,1087
4163,930,1087
4164,927,1086
4165,926,1084
4166,921,1084
4167,920,1084
4168,918,1087
4169,916,1085
4170,912,1086
4171,906,1085
4172,902,1083
4173,897,1089
4174,894,1093
4175,889,1089
4176,884,1087
4177,879,1081
4178,874,1081
4179,870,1082
4180,868,1082
4181,867,1079
4182,863,1076
4183,861,1073
4184,858,1073
4185,858,1073
4186,858,1076
4187,856,1074
4188,851,1073
4189,849,1071
4190,848,1069
4191,846,1072
4192,849,1073
4193,855,1072
4194,852,1069
4195,850,1071
4196,849,1068
4197,846,1068
4198,850,1067
4199,849,1069
4200,848,1068
4201,846,1066
4202,845,1063
4203,846,1066
4204,846,1065
4205,846,1066
4206,844,1067
4207,842,1067
4208,841,1063
4209,842,1068
4210,845,1068
4211,849,1068
4212,847,1063
4213,844,1062
4214,844,1063
4215,844,1065
4216,842,1069
4217,842,1065
4218,842,1065
4219,842,1063
4220,841,1064
4221,843,1065
4222,846,1066
4223,845,1064
4224,846,1064
4225,844,1065
4226,842,1065
4227,844,1069
4228,848,1069
4229,847,1070
4230,850,1071
4231,848,1070
4232,848,1066
4233,851,1069
4234,853,1070
4235,855,1069
4236,850,1069
4237,847,1067
4238,846,1068
4239,850,1070
4240,850,1073
4241,853,1069
4242,852,1066
4243,852,1066
4244,852,1065
4245,855,1067
4246,857,1070
4247,859,1067
4248,864,1068
4249,865,1067
4250,861,1063
4251,864,1062
4252,867,1063
4253,870,1060
4254,870,1056
4255,873,1047
4256,877,1020
4257,883,964
4258,898,892
4259,920,881
4260,971,936
4261,1076,983
4262,1203,1003
4263,1316,1006
4264,1330,1006
4265,1287,1011
4266,1243,1008
4267,1225,1008
4268,1214,1000
4269,1195,998
4270,1178,996
4271,1155,991
4272,1135,986
4273,1111,978
4274,1090,970
4275,1067,965
4276,1043,964
4277,1019,961
4278,988,954
4279,955,944
4280,919,931
4281,884,919
4282,848,907
4283,808,890
4284,766,877
4285,723,872
4286,687,857
4287,656,842
4288,623,817
4289,593,783
4290,570,758
4291,554,738
4292,543,723
4293,539,707
4294,536,694
4295,529,674
4296,518,659
4297,502,643
4298,485,622
4299,473,604
4300,467,599
4301,464,608
4302,460,633
4303,467,664
4304,479,698
4305,509,736
4306,540,771
4307,577,804
4308,621,837
4309,665,863
4310,689,890
4311,707,917
4312,718,941
4313,734,961
4314,746,976
4315,757,991
4316,766,1006
4317,779,1022
4318,788,1033
4319,792,1040
4320,799,1047
4321,808,1052
4322,817,1060
4323,834,1068
4324,849,1076
4325,862,1084
4326,873,1087
4327,885,1092
4328,899,1098
4329,912,1106
4330,928,1111
4331,947,1113
4332,964,1115
4333,980,1115
4334,990,1116
4335,1004,1121
4336,1013,1128
4337,1018,1126
4338,1023,1129
4339,1025,1126
4340,1028,1129
4341,1035,1134
4342,1039,1135
4343,1044,1138
4344,1047,1136
4345,1050,1139
4346,1056,1139
4347,1059,1143
4348,1067,1147
4349,1074,1149
4350,1081,1149
4351,1084,1150
4352,1090,1152
4353,1097,1156
4354,1103,1161
4355,1109,1162
4356,1115,1161
4357,1121,1162
4358,1125,1166
4359,1133,1169
4360,1139,1175
4361,1147,1176
4362,1155,1175
4363,1162,1181
4364,1168,1183
4365,1172,1189
4366,1180,1192
4367,1186,1189
4368,1192,1190
4369,1198,1191
4370,1200,1194
4371,1204,1196
4372,1209,1200
4373,1215,1199
4374,1216,1198
4375,1217,1200
4376,1217,1198
4377,1221,1201
4378,1225,1203
4379,1226,1205
4380,1224,1205
4381,1222,1206
4382,1220,1207
4383,1220,1215
4384,1221,1216
4385,1219,1211
4386,1215,1203
4387,1212,1197
4388,1212,1197
4389,1215,1192
4390,1218,1191
4391,1220,1183
4392,1217,1175
4393,1212,1159
4394,1203,1147
4395,1200,1136
4396,1196,1126
4397,1195,1117
4398,1182,1109
4399,1171,1099
4400,1154,1089
4401,1138,1082
4402,1126,1080
4403,1117,1073
4404,1104,1066
4405,1091,1059
4406,1079,1056
4407,1073,1056
4408,1067,1058
4409,1057,1054
4410,1045,1048
4411,1033,1045
4412,1022,1046
4413,1013,1046
4414,1004,1047
4415,995,1048
4416,987,1043
4417,977,1040
4418,965,1042
4419,960,1045
4420,953,1044
4421,949,1043
4422,940,1041
4423,932,1040
4424,926,1038
4425,921,1039
4426,917,1040
4427,911,1037
4428,908,1030
4429,899,1028
4430,891,1030
4431,888,1030
4432,887,1035
4433,892,1031
4434,899,1030
4435,900,1031
4436,901,1032
4437,900,1032
4438,898,1034
4439,894,1032
4440,891,1036
4441,888,1034
4442,887,1035
4443,891,1036
4444,893,1039
4445,896,1034
4446,892,1035
4447,890,1033
4448,889,1034
4449,888,1036
4450,888,1038
4451,890,1036
4452,891,1035
4453,889,1034
4454,888,1030
4455,892,1033
4456,895,1036
4457,897,1038
4458,897,1037
4459,895,1033
4460,893,1033
4461,892,1034
4462,894,1035
4463,893,1031
4464,890,1030
4465,888,1031
4466,890,1030
4467,894,1030
4468,896,1033
4469,898,1033
4470,896,1033
4471,895,1032
4472,893,1031
4473,891,1033
4474,891,1031
4475,896,1030
4476,897,1029
4477,895,1031
4478,896,1031
4479,895,1035
4480,895,1036
4481,896,1031
4482,898,1031
4483,898,1032
4484,897,1031
4485,897,1037
4486,899,1037
4487,899,1035
4488,896,1033
4489,895,1037
4490,894,1035
4491,897,1036
4492,900,1036
4493,899,1036
4494,899,1035
4495,898,1036
4496,896,1037
4497,899,1037
4498,900,1040
4499,898,1038
4500,901,1038
4501,903,1036
4502,904,1037
4503,904,1038
4504,910,1042
4505,911,1041
4506,911,1037
4507,908,1038
4508,905,1034
4509,906,1038
4510,908,1042
4511,908,1041
4512,908,1039
4513,903,1039
4514,903,1040
4515,911,1040
4516,914,1041
4517,915,1037
4518,916,1040
4519,913,1037
4520,911,1036
4521,914,1038
4522,918,1044
4523,920,1042
4524,917,1040
4525,915,1035
4526,915,1031
4527,918,1029
4528,916,1033
4529,914,1034
4530,920,1030
4531,925,1028
4532,927,1030
4533,927,1036
4534,926,1039
4535,925,1037
4536,924,1033
4537,925,1033
4538,923,1027
4539,928,1028
4540,928,1030
4541,927,1028
4542,928,1026
4543,930,1024
4544,932,1021
4545,937,1019
4546,940,1014
4547,942,1008
4548,952,993
4549,957,939
4550,966,869
4551,988,863
4552,1044,916
4553,1151,960
4554,1278,971
4555,1378,968
4556,1386,970
4557,1348,974
4558,1322,976
4559,1309,972
4560,1297,966
4561,1281,958
4562,1252,958
4563,1230,952
4564,1212,950
4565,1194,944
4566,1175,939
4567,1152,935
4568,1123,937
4569,1094,938
4570,1062,931
4571,1021,920
4572,975,912
4573,931,902
4574,889,896
4575,849,886
4576,808,883
4577,764,877
4578,720,868
4579,685,856
4580,656,838
4581,634,815
4582,621,790
4583,608,773
4584,596,761
4585,584,752
4586,579,729
4587,579,711
4588,573,694
4589,556,681
4590,536,663
4591,519,640
4592,507,615
4593,497,610
4594,488,624
4595,482,653
4596,486,677
4597,503,706
4598,537,741
4599,588,777
4600,633,806
4601,677,827
4602,708,846
4603,732,869
4604,749,889
4605,764,905
4606,772,910
4607,779,919
4608,790,933
4609,805,950
4610,816,962
4611,821,978
4612,820,989
4613,826,1003
4614,840,1008
4615,854,1008
4616,871,1014
4617,888,1026
4618,900,1030
4619,910,1021
4620,918,1025
4621,928,1031
4622,942,1035
4623,959,1041
4624,984,1046
4625,1006,1050
4626,1019,1052
4627,1025,1053
4628,1030,1056
4629,1038,1065
4630,1052,1072
4631,1061,1081
4632,1071,1086
4633,1076,1086
4634,1081,1080
4635,1091,1081
4636,1100,1091
4637,1105,1096
4638,1107,1105
4639,1115,1107
4640,1127,1103
4641,1146,1106
4642,1155,1106
4643,1159,1100
4644,1163,1093
4645,1172,1085
4646,1182,1082
4647,1193,1077
4648,1200,1075
4649,1201,1072
4650,1204,1068
4651,1209,1070
4652,1220,1069
4653,1227,1070
4654,1233,1069
4655,1232,1072
4656,1228,1076
4657,1231,1085
4658,1233,1089
4659,1243,1095
4660,1252,1094
4661,1259,1092
4662,1262,1089
4663,1267,1095
4664,1274,1104
4665,1278,1115
4666,1275,1115
4667,1274,1102
4668,1270,1098
4669,1272,1099
4670,1271,1104
4671,1267,1108
4672,1261,1107
4673,1255,1101
4674,1255,1097
4675,1252,1100
4676,1250,1096
4677,1251,1096
4678,1253,1098
4679,1247,1096
4680,1240,1093
4681,1235,1083
4682,1228,1076
4683,1222,1069
4684,1210,1064
4685,1197,1060
4686,1188,1059
4687,1187,1057
4688,1187,1049
4689,1182,1042
4690,1166,1036
4691,1146,1024
4692,1131,1016
4693,1129,1015
4694,1126,1012
4695,1124,1011
4696,1115,1009
4697,1101,1010
4698,1096,1007
4699,1090,995
4700,1074,984
4701,1050,982
4702,1036,982
4703,1031,977
4704,1037,971
4705,1038,968
4706,1028,968
4707,1018,970
4708,1007,973
4709,1000,972
4710,995,970
4711,982,967
4712,967,963
4713,964,961
4714,972,964
4715,980,967
4716,982,967
4717,970,959
4718,958,956
4719,955,956
4720,951,960
4721,946,961
4722,940,961
4723,942,961
4724,946,961
4725,955,964
4726,949,966
4727,944,963
4728,935,961
4729,930,961
4730,926,967
4731,932,975
4732,932,981
4733,933,975
4734,933,968
4735,933,965
4736,931,967
4737,931,972
4738,930,978
4739,925,979
4740,926,975
4741,936,970
4742,939,970
4743,940,974
4744,930,979
4745,922,981
4746,926,978
4747,933,971
4748,941,972
4749,947,973
4750,946,976
4751,942,980
4752,935,977
4753,933,979
4754,935,980
4755,943,978
4756,944,979
4757,939,977
4758,935,977
4759,931,973
4760,936,972
4761,939,977
4762,944,979
4763,945,979
4764,945,975
4765,945,972
4766,946,976
4767,951,980
4768,955,981
4769,960,977
4770,955,975
4771,949,972
4772,942,971
4773,950,970
4774,956,973
4775,960,974
4776,955,973
4777,952,970
4778,953,968
4779,951,971
4780,951,971
4781,946,970
4782,942,969
4783,943,964
4784,940,963
4785,942,966
4786,945,966
4787,948,964
4788,947,962
4789,950,958
4790,956,962
4791,961,964
4792,961,966
4793,953,965
4794,950,964
4795,952,962
4796,955,964
4797,955,967
4798,953,965
4799,953,962
4800,951,958
4801,950,957
4802,949,959
4803,950,962
4804,953,963
4805,958,961
4806,960,959
4807,955,958
4808,952,959
4809,952,958
4810,953,959
4811,954,956
4812,956,957
4813,955,957
4814,953,958
4815,958,958
4816,962,959
4817,965,957
4818,962,958
4819,958,961
4820,951,959
4821,955,961
4822,957,959
4823,960,958
4824,961,958
4825,961,957
4826,962,958
4827,962,958
4828,964,956
4829,964,957
4830,960,955
4831,961,955
4832,958,956
4833,960,958
4834,964,961
4835,963,959
4836,961,957
4837,960,955
4838,962,956
4839,963,955
4840,965,954
4841,966,956
4842,969,956
4843,970,950
4844,970,949
4845,976,951
4846,983,951
4847,985,946
4848,985,917
4849,987,845
4850,996,782
4851,1027,791
4852,1096,841
4853,1210,875
4854,1333,882
4855,1411,883
4856,1419,885
4857,1401,889
4858,1377,895
4859,1366,894
4860,1355,891
4861,1338,886
4862,1315,884
4863,1293,883
4864,1273,881
4865,1255,880
4866,1233,876
4867,1210,870
4868,1181,867
4869,1150,866
4870,1119,868
4871,1083,865
4872,1045,856
4873,999,849
4874,953,836
4875,907,830
4876,862,822
4877,812,815
4878,762,807
4879,716,798
4880,676,781
4881,644,764
4882,618,741
4883,599,717
4884,578,700
4885,567,686
4886,564,678
4887,567,674
4888,568,665
4889,558,656
4890,540,644
4891,522,632
4892,508,619
4893,499,605
4894,492,602
4895,484,614
4896,483,641
4897,497,670
4898,530,705
4899,582,746
4900,637,779
4901,691,801
4902,738,816
4903,779,828
4904,812,842
4905,835,855
4906,853,876
4907,871,888
4908,888,899
4909,904,909
4910,917,917
4911,925,928
4912,928,937
4913,931,941
4914,930,943
4915,932,946
4916,934,954
4917,945,963
4918,965,968
4919,981,975
4920,993,977
4921,998,980
4922,1006,984
4923,1018,991
4924,1025,998
4925,1037,1006
4926,1047,1008
4927,1052,1008
4928,1056,1012
4929,1067,1019
4930,1075,1023
4931,1086,1022
4932,1088,1021
4933,1086,1021
4934,1085,1021
4935,1089,1026
4936,1087,1027
4937,1088,1028
4938,1089,1025
4939,1090,1025
4940,1092,1025
4941,1092,1033
4942,1095,1037
4943,1098,1039
4944,1101,1039
4945,1103,1041
4946,1105,1043
4947,1111,1045
4948,1118,1049
4949,1128,1053
4950,1129,1055
4951,1133,1054
4952,1135,1058
4953,1141,1063
4954,1147,1070
4955,1154,1071
4956,1158,1070
4957,1164,1071
4958,1167,1073
4959,1175,1078
4960,1181,1083
4961,1185,1085
4962,1189,1088
4963,1192,1088
4964,1192,1090
4965,1200,1096
4966,1212,1098
4967,1220,1098
4968,1223,1099
4969,1221,1098
4970,1222,1101
4971,1228,1103
4972,1230,1109
4973,1236,1108
4974,1233,1106
4975,1234,1107
4976,1232,1105
4977,1232,1106
4978,1232,1107
4979,1232,1108
4980,1228,1103
4981,1223,1099
4982,1218,1096
4983,1216,1095
4984,1215,1094
4985,1210,1089
4986,1199,1082
4987,1190,1075
4988,1181,1073
4989,1179,1070
4990,1176,1067
4991,1166,1063
4992,1159,1055
4993,1147,1047
4994,1139,1042
4995,1131,1037
4996,1125,1034
4997,1114,1029
4998,1107,1025
4999,1097,1017
5000,1087,1013
5001,1079,1010
5002,1069,1009
5003,1059,1004
5004,1050,1000
5005,1045,996
5006,1035,996
5007,1031,995
5008,1021,996
5009,1014,993
5010,1004,990
5011,998,986
5012,988,985
5013,983,986
5014,978,987
5015,976,983
5016,973,983
5017,967,980
5018,959,980
5019,954,984
5020,952,983
5021,955,984
5022,951,982
5023,946,979
5024,943,980
5025,941,984
5026,940,983
5027,940,985
5028,938,984
5029,939,981
5030,936,985
5031,933,985
5032,937,988
5033,937,985
5034,934,984
5035,931,983
5036,928,985
5037,929,987
5038,933,989
5039,934,987
5040,933,988
5041,930,984
5042,926,990
5043,927,991
5044,927,994
5045,928,991
5046,927,988
5047,925,988
5048,924,987
5049,924,989
5050,924,993
5051,926,992
5052,927,992
5053,927,989
5054,922,990
5055,924,993
5056,926,994
5057,929,992
5058,931,992
5059,930,991
5060,930,991
5061,929,993
5062,930,992
5063,930,992
5064,930,991
5065,930,986
5066,930,987
5067,931,990
5068,930,994
5069,933,990
5070,932,990
5071,933,988
5072,930,988
5073,933,989
5074,938,991
5075,944,989
5076,939,988
5077,936,986
5078,934,987
5079,934,990
5080,933,989
5081,934,986
5082,936,983
5083,933,984
5084,931,984
5085,932,987
5086,932,989
5087,933,987
5088,932,984
5089,929,983
5090,926,982
5091,926,984
5092,927,984
5093,928,984
5094,929,983
5095,933,982
5096,931,983
5097,930,983
5098,929,987
5099,926,984
5100,929,983
5101,927,981
5102,924,983
5103,925,985
5104,926,986
5105,926,984
5106,926,984
5107,926,979
5108,926,982
5109,924,983
5110,927,984
5111,928,985
5112,926,980
5113,925,982
5114,923,982
5115,924,983
5116,926,985
5117,929,981
5118,930,983
5119,929,982
5120,926,983
5121,927,985
5122,927,984
5123,928,984
5124,927,984
5125,928,980
5126,925,982
5127,927,984
5128,928,984
5129,927,986
5130,925,983
5131,923,979
5132,919,982
5133,922,983
5134,927,983
5135,928,983
5136,929,984
5137,929,981
5138,926,983
5139,926,984
5140,927,983
5141,927,983
5142,928,982
5143,930,979
5144,930,982
5145,932,985
5146,933,986
5147,932,983
5148,931,982
5149,934,979
5150,931,979
5151,933,981
5152,933,983
5153,935,981
5154,935,979
5155,935,978
5156,937,980
5157,939,982
5158,949,959
5159,955,899
5160,968,849
5161,994,862
5162,1051,907
5163,1153,941
5164,1267,957
5165,1350,962
5166,1371,966
5167,1351,972
5168,1328,977
5169,1320,975
5170,1316,967
5171,1304,955
5172,1289,942
5173,1266,930
5174,1251,926
5175,1240,924
5176,1231,921
5177,1216,913
5178,1193,907
5179,1166,900
5180,1136,898
5181,1105,894
5182,1074,889
5183,1042,885
5184,1008,874
5185,972,867
5186,930,858
5187,886,846
5188,843,840
5189,799,833
5190,754,823
5191,710,814
5192,672,797
5193,638,778
5194,608,756
5195,586,734
5196,570,713
5197,552,704
5198,540,700
5199,534,693
5200,528,681
5201,517,667
5202,501,654
5203,486,640
5204,473,627
5205,464,614
5206,459,601
5207,451,587
5208,440,586
5209,432,599
5210,433,620
5211,449,648
5212,475,673
5213,508,702
5214,544,726
5215,581,749
5216,611,771
5217,642,795
5218,671,818
5219,694,838
5220,712,855
5221,727,875
5222,736,887
5223,750,903
5224,766,919
5225,781,929
5226,790,940
5227,795,943
5228,793,952
5229,797,965
5230,805,974
5231,818,978
5232,829,983
5233,839,989
5234,854,996
5235,871,1003
5236,881,1013
5237,892,1018
5238,904,1024
5239,916,1027
5240,929,1032
5241,949,1037
5242,962,1041
5243,978,1042
5244,988,1042
5245,995,1043
5246,1004,1045
5247,1015,1050
5248,1026,1055
5249,1033,1057
5250,1032,1057
5251,1035,1054
5252,1038,1059
5253,1043,1064
5254,1045,1067
5255,1049,1070
5256,1053,1069
5257,1055,1070
5258,1056,1070
5259,1059,1075
5260,1065,1078
5261,1072,1082
5262,1078,1084
5263,1082,1084
5264,1085,1091
5265,1088,1093
5266,1093,1096
5267,1099,1098
5268,1107,1102
5269,1107,1102
5270,1113,1105
5271,1121,1112
5272,1129,1115
5273,1136,1115
5274,1141,1117
5275,1146,1119
5276,1151,1123
5277,1156,1128
5278,1165,1132
5279,1176,1136
5280,1187,1138
5281,1195,1137
5282,1197,1140
5283,1204,1145
5284,1208,1150
5285,1211,1155
5286,1219,1155
5287,1221,1152
5288,1225,1154
5289,1232,1156
5290,1235,1157
5291,1236,1156
5292,1235,1155
5293,1233,1153
5294,1231,1153
5295,1233,1155
5296,1238,1155
5297,1238,1153
5298,1236,1149
5299,1230,1147
5300,1227,1145
5301,1224,1146
5302,1221,1142
5303,1220,1138
5304,1215,1130
5305,1204,1126
5306,1201,1122
5307,1196,1120
5308,1191,1115
5309,1183,1109
5310,1174,1101
5311,1166,1095
5312,1155,1089
5313,1149,1085
5314,1143,1079
5315,1137,1074
5316,1129,1065
5317,1120,1060
5318,1105,1057
5319,1095,1054
5320,1088,1052
5321,1077,1048
5322,1072,1043
5323,1061,1038
5324,1053,1033
5325,1046,1033
5326,1037,1032
5327,1030,1028
5328,1020,1023
5329,1007,1019
5330,1001,1017
5331,994,1019
5332,989,1021
5333,986,1017
5334,979,1017
5335,976,1011
5336,973,1016
5337,972,1015
5338,970,1018
5339,962,1016
5340,957,1011
5341,952,1010
5342,948,1009
5343,943,1012
5344,943,1015
5345,946,1014
5346,948,1011
5347,942,1013
5348,940,1013
5349,943,1015
5350,943,1016
5351,944,1017
5352,941,1013
5353,937,1013
5354,934,1013
5355,934,1014
5356,937,1019
5357,938,1020
5358,936,1019
5359,935,1015
5360,931,1018
5361,932,1020
5362,936,1022
5363,935,1025
5364,937,1021
5365,934,1019
5366,933,1019
5367,935,1025
5368,938,1024
5369,938,1024
5370,935,1023
5371,934,1021
5372,934,1022
5373,935,1027
5374,938,1026
5375,940,1028
5376,939,1026
5377,940,1024
5378,939,1026
5379,941,1028
5380,939,1029
5381,938,1030
5382,938,1027
5383,942,1026
5384,942,1026
5385,944,1029
5386,948,1029
5387,948,1029
5388,948,1026
5389,946,1025
5390,944,1027
5391,946,1029
5392,945,1029
5393,948,1029
5394,950,1024
5395,947,1024
5396,947,1026
5397,946,1025
5398,947,1028
5399,947,1027
5400,946,1026
5401,946,1023
5402,944,1024
5403,943,1027
5404,946,1026
5405,945,1026
5406,943,1023
5407,940,1022
5408,940,1022
5409,941,1024
5410,944,1025
5411,944,1025
5412,943,1023
5413,940,1023
5414,938,1023
5415,942,1022
5416,943,1023
5417,941,1023
5418,941,1021
5419,939,1018
5420,941,1019
5421,941,1021
5422,941,1023
5423,941,1020
5424,943,1022
5425,942,1017
5426,941,1020
5427,942,1023
5428,944,1030
5429,944,1033
5430,945,1037
5431,945,1040
5432,945,1046
5433,949,1052
5434,954,1056
5435,957,1058
5436,959,1056
5437,963,1060
5438,968,1063
5439,977,1069
5440,988,1074
5441,997,1073
5442,1002,1067
5443,1002,1059
5444,1003,1053
5445,1006,1046
5446,1010,1040
5447,1015,1037
5448,1018,1030
5449,1023,1026
5450,1024,1024
5451,1025,1022
5452,1024,1020
5453,1022,1018
5454,1014,1014
5455,1011,1010
5456,1007,1008
5457,1009,1010
5458,1011,1013
5459,1011,1013
5460,1009,1012
5461,1006,1011
5462,1003,1011
5463,1003,1011
5464,1004,1009
5465,1003,1009
5466,996,1008
5467,990,1005
5468,983,1008
5469,979,1011
5470,979,1013
5471,974,1016
5472,970,1016
5473,963,1014
5474,961,1011
5475,959,1012
5476,959,1012
5477,958,1008
5478,955,1006
5479,957,987
5480,962,929
5481,973,871
5482,995,866
5483,1048,906
5484,1141,942
5485,1255,947
5486,1339,950
5487,1363,955
5488,1338,961
5489,1307,961
5490,1288,960
5491,1276,954
5492,1264,953
5493,1251,949
5494,1236,949
5495,1218,946
5496,1201,942
5497,1183,940
5498,1167,938
5499,1155,934
5500,1139,931
5501,1123,925
5502,1100,921
5503,1076,915
5504,1053,908
5505,1029,905
5506,1008,900
5507,983,890
5508,955,875
5509,924,862
5510,899,850
5511,871,845
5512,842,838
5513,804,833
5514,769,817
5515,736,798
5516,701,777
5517,671,753
5518,651,733
5519,636,713
5520,621,700
5521,611,686
5522,601,672
5523,599,661
5524,596,649
5525,583,638
5526,559,623
5527,541,611
5528,526,601
5529,517,592
5530,504,587
5531,495,596
5532,489,610
5533,490,630
5534,507,656
5535,535,684
5536,564,711
5537,591,734
5538,620,759
5539,651,782
5540,680,809
5541,707,828
5542,723,851
5543,731,872
5544,739,887
5545,747,901
5546,754,913
5547,766,929
5548,775,945
5549,787,958
5550,791,967
5551,794,979
5552,795,989
5553,803,1002
5554,812,1010
5555,825,1017
5556,837,1026
5557,850,1031
5558,866,1039
5559,880,1049
5560,892,1055
5561,903,1063
5562,914,1066
5563,929,1072
5564,946,1075
5565,965,1080
5566,981,1084
5567,994,1084
5568,1005,1087
5569,1018,1088
5570,1028,1090
5571,1037,1092
5572,1046,1092
5573,1052,1095
5574,1052,1096
5575,1055,1095
5576,1058,1100
5577,1064,1103
5578,1073,1105
5579,1075,1108
5580,1080,1105
5581,1084,1109
5582,1086,1111
5583,1094,1116
5584,1098,1118
5585,1104,1119
5586,1105,1120
5587,1109,1119
5588,1114,1126
5589,1122,1129
5590,1127,1132
5591,1132,1134
5592,1136,1133
5593,1137,1135
5594,1141,1138
5595,1149,1145
5596,1157,1148
5597,1162,1152
5598,1170,1151
5599,1174,1156
5600,1176,1158
5601,1185,1164
5602,1193,1166
5603,1199,1169
5604,1201,1170
5605,1207,1170
5606,1212,1176
5607,1218,1177
5608,1223,1183
5609,1230,1184
5610,1232,1183
5611,1236,1185
5612,1238,1190
5613,1240,1192
5614,1246,1194
5615,1244,1194
5616,1246,1193
5617,1243,1193
5618,1243,1191
5619,1246,1192
5620,1247,1191
5621,1245,1190
5622,1240,1186
5623,1238,1184
5624,1233,1182
5625,1232,1181
5626,1229,1175
5627,1228,1173
5628,1220,1166
5629,1212,1158
5630,1205,1155
5631,1200,1152
5632,1197,1148
5633,1189,1143
5634,1181,1131
5635,1173,1124
5636,1165,1120
5637,1159,1113
5638,1151,1111
5639,1143,1103
5640,1135,1094
5641,1123,1084
5642,1113,1081
5643,1106,1078
5644,1099,1075
5645,1091,1069
5646,1078,1061
5647,1071,1057
5648,1063,1053
5649,1054,1052
5650,1046,1048
5651,1038,1045
5652,1030,1041
5653,1018,1037
5654,1014,1035
5655,1009,1040
5656,1004,1037
5657,1000,1038
5658,991,1033
5659,984,1028
5660,979,1031
5661,978,1032
5662,975,1032
5663,973,1033
5664,970,1032
5665,964,1028
5666,959,1028
5667,959,1032
5668,961,1030
5669,960,1033
5670,957,1031
5671,955,1029
5672,952,1029
5673,954,1031
5674,951,1034
5675,951,1034
5676,950,1031
5677,949,1030
5678,946,1030
5679,947,1033
5680,948,1032
5681,950,1034
5682,948,1030
5683,945,1032
5684,943,1032
5685,945,1034
5686,948,1034
5687,948,1033
5688,947,1033
5689,947,1035
5690,946,1033
5691,948,1036
5692,949,1039
5693,949,1038
5694,947,1038
5695,947,1036
5696,946,1036
5697,949,1039
5698,949,1042
5699,950,1045
5700,948,1048
5701,949,1052
5702,950,1059
5703,955,1066
5704,961,1073
5705,964,1075
5706,966,1074
5707,968,1074
5708,974,1077
5709,983,1087
5710,993,1094
5711,1001,1097
5712,1004,1096
5713,1008,1084
5714,1013,1080
5715,1017,1069
5716,1021,1063
5717,1025,1055
5718,1031,1050
5719,1032,1044
5720,1031,1042
5721,1030,1041
5722,1028,1037
5723,1022,1034
5724,1019,1029
5725,1015,1026
5726,1011,1025
5727,1013,1026
5728,1017,1029
5729,1013,1027
5730,1011,1024
5731,1008,1022
5732,1004,1024
5733,1003,1022
5734,1001,1023
5735,996,1021
5736,989,1020
5737,983,1021
5738,977,1024
5739,974,1029
5740,971,1031
5741,966,1033
5742,960,1028
5743,954,1023
5744,948,1024
5745,948,1026
5746,944,1026
5747,942,1022
5748,937,1022
5749,932,1020
5750,926,1021
5751,926,1023
5752,924,1023
5753,922,1023
5754,919,1019
5755,919,1018
5756,917,1019
5757,919,1024
5758,918,1023
5759,918,1023
5760,918,1021
5761,916,1021
5762,914,1023
5763,915,1026
5764,919,1025
5765,918,1028
5766,917,1026
5767,916,1024
5768,914,1023
5769,917,1025
5770,918,1026
5771,919,1028
5772,918,1028
5773,915,1029
5774,916,1029
5775,917,1034
5776,919,1034
5777,920,1030
5778,921,1028
5779,917,1026
5780,917,1034
5781,920,1037
5782,921,1038
5783,924,1035
5784,922,1033
5785,919,1030
5786,919,1033
5787,920,1036
5788,925,1037
5789,926,1037
5790,930,1033
5791,932,1029
5792,933,1031
5793,939,1029
5794,945,992
5795,952,924
5796,972,891
5797,1016,925
5798,1110,973
5799,1237,995
5800,1342,995
5801,1363,996
5802,1332,998
5803,1294,1000
5804,1273,1001
5805,1262,1002
5806,1254,998
5807,1237,996
5808,1219,992
5809,1202,984
5810,1189,984
5811,1178,982
5812,1168,979
5813,1157,974
5814,1140,965
5815,1120,957
5816,1103,953
5817,1085,951
5818,1071,943
5819,1051,934
5820,1028,918
5821,1001,903
5822,974,892
5823,949,885
5824,919,877
5825,896,869
5826,868,855
5827,833,836
5828,799,817
5829,771,799
5830,748,780
5831,728,766
5832,716,749
5833,701,738
5834,692,722
5835,682,712
5836,670,700
5837,652,690
5838,626,676
5839,604,660
5840,590,648
5841,580,638
5842,567,638
5843,554,658
5844,549,681
5845,555,705
5846,576,736
5847,599,769
5848,623,797
5849,647,823
5850,676,846
5851,699,860
5852,716,884
5853,733,906
5854,745,926
5855,764,944
5856,775,955
5857,783,968
5858,791,979
5859,802,993
5860,811,1008
5861,818,1015
5862,819,1022
5863,821,1025
5864,826,1034
5865,835,1045
5866,848,1053
5867,862,1058
5868,874,1064
5869,884,1069
5870,894,1078
5871,908,1085
5872,924,1092
5873,940,1098
5874,957,1103
5875,971,1103
5876,983,1109
5877,998,1113
5878,1010,1115
5879,1023,1115
5880,1036,1114
5881,1043,1116
5882,1047,1119
5883,1051,1123
5884,1055,1125
5885,1057,1127
5886,1059,1125
5887,1063,1127
5888,1064,1131
5889,1069,1134
5890,1076,1138
5891,1079,1140
5892,1082,1140
5893,1084,1140
5894,1086,1142
5895,1090,1145
5896,1097,1151
5897,1102,1151
5898,1105,1152
5899,1108,1153
5900,1110,1158
5901,1119,1163
5902,1122,1165
5903,1128,1166
5904,1134,1169
5905,1136,1169
5906,1139,1173
5907,1148,1178
5908,1152,1184
5909,1158,1187
5910,1162,1187
5911,1167,1188
5912,1173,1194
5913,1177,1198
5914,1184,1203
5915,1188,1204
5916,1191,1203
5917,1195,1207
5918,1201,1212
5919,1208,1214
5920,1208,1218
5921,1213,1217
5922,1213,1217
5923,1216,1215
5924,1215,1218
5925,1219,1220
5926,1221,1222
5927,1221,1220
5928,1220,1219
5929,1218,1218
5930,1214,1219
5931,1215,1219
5932,1215,1218
5933,1214,1214
5934,1213,1210
5935,1208,1204
5936,1204,1201
5937,1201,1199
5938,1195,1195
5939,1192,1188
5940,1184,1179
5941,1177,1171
5942,1171,1164
5943,1164,1163
5944,1161,1156
5945,1154,1151
5946,1145,1140
5947,1138,1130
5948,1130,1127
5949,1125,1123
5950,1119,1117
5951,1113,1114
5952,1097,1105
5953,1087,1100
5954,1079,1096
5955,1074,1093
5956,1068,1092
5957,1059,1087
5958,1049,1084
5959,1041,1079
5960,1032,1077
5961,1025,1080
5962,1021,1085
5963,1016,1088
5964,1012,1094
5965,1004,1094
5966,1001,1097
5967,1001,1101
5968,999,1104
5969,1002,1100
5970,1004,1103
5971,1007,1105
5972,1013,1112
5973,1025,1117
5974,1034,1114
5975,1038,1110
5976,1038,1102
5977,1036,1092
5978,1037,1088
5979,1038,1083
5980,1041,1080
5981,1043,1077
5982,1038,1074
5983,1034,1069
5984,1026,1065
5985,1018,1062
5986,1014,1062
5987,1013,1061
5988,1009,1061
5989,1005,1060
5990,1004,1063
5991,1006,1064
5992,1004,1064
5993,1002,1063
5994,994,1063
5995,990,1058
5996,985,1063
5997,983,1065
5998,982,1067
5999,977,1066
6000,972,1069
6001,967,1067
6002,958,1069
6003,954,1070
6004,950,1071
6005,944,1070
6006,940,1068
6007,930,1066
6008,930,1065
6009,931,1064
6010,934,1064
6011,931,1063
6012,929,1059
6013,923,1058
6014,915,1061
6015,916,1062
6016,917,1063
6017,918,1063
6018,915,1064
6019,913,1057
6020,913,1059
6021,914,1061
6022,915,1063
6023,914,1063
6024,914,1057
6025,910,1056
6026,907,1057
6027,910,1058
6028,910,1061
6029,912,1060
6030,908,1059
6031,906,1056
6032,907,1054
6033,908,1058
6034,907,1057
6035,904,1059
6036,906,1058
6037,910,1054
6038,911,1055
6039,907,1059
6040,907,1059
6041,906,1059
6042,907,1061
6043,911,1057
6044,912,1057
6045,912,1060
6046,912,1059
6047,911,1058
6048,907,1059
6049,905,1058
6050,907,1057
6051,907,1059
6052,909,1060
6053,908,1063
6054,906,1063
6055,902,1061
6056,903,1059
6057,908,1061
6058,910,1061
6059,911,1062
6060,905,1059
6061,906,1061
6062,906,1064
6063,907,1066
6064,908,1065
6065,910,1069
6066,910,1064
6067,908,1062
6068,906,1063
6069,910,1067
6070,911,1070
6071,911,1070
6072,912,1068
6073,912,1063
6074,909,1067
6075,915,1068
6076,916,1070
6077,916,1071
6078,915,1070
6079,915,1071
6080,918,1069
6081,919,1072
6082,922,1072
6083,923,1071
6084,923,1070
6085,924,1068
6086,924,1069
6087,926,1069
6088,928,1071
6089,929,1071
6090,930,1067
6091,930,1067
6092,931,1067
6093,932,1068
6094,934,1068
6095,937,1067
6096,940,1065
6097,938,1062
6098,943,1052
6099,950,1003
6100,962,941
6101,982,921
6102,1031,959
6103,1121,996
6104,1247,1015
6105,1342,1017
6106,1368,1017
6107,1337,1019
6108,1301,1021
6109,1279,1017
6110,1266,1018
6111,1252,1014
6112,1236,1013
6113,1217,1007
6114,1199,1002
6115,1179,997
6116,1159,994
6117,1143,989
6118,1122,988
6119,1096,983
6120,1068,978
6121,1038,970
6122,1006,962
6123,978,953
6124,947,941
6125,911,927
6126,875,915
6127,838,908
6128,802,898
6129,767,886
6130,735,871
6131,701,847
6132,667,819
6133,638,794
6134,612,779
6135,601,770
6136,595,755
6137,587,736
6138,574,717
6139,557,700
6140,540,684
6141,530,670
6142,520,650
6143,508,640
6144,496,647
6145,487,665
6146,490,694
6147,509,726
6148,539,759
6149,573,789
6150,607,814
6151,646,842
6152,681,864
6153,711,890
6154,732,914
6155,747,935
6156,761,952
6157,776,964
6158,788,983
6159,802,999
6160,811,1014
6161,817,1023
6162,819,1032
6163,820,1040
6164,823,1053
6165,835,1062
6166,849,1072
6167,863,1082
6168,873,1086
6169,885,1092
6170,894,1099
6171,908,1109
6172,921,1117
6173,935,1122
6174,953,1123
6175,966,1128
6176,981,1133
6177,997,1138
6178,1012,1137
6179,1023,1140
6180,1034,1142
6181,1045,1140
6182,1048,1146
6183,1053,1149
6184,1059,1152
6185,1061,1154
6186,1067,1155
6187,1071,1155
6188,1073,1159
6189,1076,1160
6190,1077,1163
6191,1080,1165
6192,1084,1166
6193,1089,1167
6194,1095,1173
6195,1097,1177
6196,1105,1180
6197,1112,1182
6198,1116,1184
6199,1117,1186
6200,1119,1190
6201,1128,1193
6202,1135,1200
6203,1140,1200
6204,1146,1204
6205,1149,1205
6206,1157,1210
6207,1163,1216
6208,1168,1221
6209,1170,1224
6210,1179,1228
6211,1183,1230
6212,1187,1241
6213,1192,1250
6214,1197,1261
6215,1205,1269
6216,1211,1275
6217,1216,1278
6218,1218,1286
6219,1227,1288
6220,1234,1294
6221,1242,1299
6222,1246,1300
6223,1249,1302
6224,1255,1307
6225,1263,1304
6226,1268,1299
6227,1267,1287
6228,1267,1278
6229,1267,1267
6230,1267,1261
6231,1269,1258
6232,1268,1250
6233,1264,1239
6234,1255,1226
6235,1242,1217
6236,1233,1205
6237,1229,1198
6238,1223,1191
6239,1216,1185
6240,1209,1174
6241,1200,1166
6242,1196,1159
6243,1186,1151
6244,1179,1145
6245,1170,1138
6246,1158,1129
6247,1143,1120
6248,1129,1116
6249,1119,1113
6250,1109,1111
6251,1095,1106
6252,1080,1100
6253,1062,1094
6254,1047,1090
6255,1035,1087
6256,1026,1084
6257,1015,1084
6258,1004,1076
6259,990,1073
6260,982,1071
6261,978,1070
6262,970,1068
6263,960,1069
6264,951,1066
6265,941,1062
6266,937,1062
6267,934,1063
6268,932,1063
6269,930,1064
6270,926,1061
6271,921,1059
6272,917,1062
6273,915,1064
6274,917,1064
6275,917,1065
6276,915,1062
6277,913,1061
6278,908,1063
6279,910,1063
6280,908,1067
6281,909,1068
6282,906,1066
6283,903,1065
6284,901,1066
6285,904,1067
6286,905,1067
6287,904,1069
6288,903,1067
6289,900,1066
6290,899,1068
6291,901,1070
6292,903,1071
6293,902,1069
6294,899,1070
6295,899,1070
6296,900,1070
6297,899,1075
6298,898,1075
6299,899,1074
6300,899,1074
6301,900,1072
6302,901,1072
6303,902,1074
6304,904,1076
6305,904,1074
6306,903,1074
6307,901,1073
6308,902,1076
6309,904,1073
6310,903,1079
6311,904,1077
6312,903,1077
6313,905,1075
6314,902,1077
6315,903,1076
6316,906,1077
6317,907,1076
6318,906,1074
6319,906,1074
6320,904,1076
6321,908,1076
6322,910,1078
6323,908,1077
6324,903,1077
6325,902,1072
6326,903,1075
6327,906,1076
6328,907,1077
6329,908,1078
6330,908,1077
6331,907,1076
6332,907,1074
6333,909,1078
6334,909,1080
6335,909,1078
6336,910,1077
6337,907,1075
6338,907,1078
6339,908,1079
6340,911,1080
6341,911,1080
6342,912,1078
6343,912,1074
6344,910,1077
6345,914,1079
6346,913,1079
6347,915,1077
6348,914,1076
6349,913,1077
6350,913,1078
6351,913,1081
6352,916,1079
6353,917,1079
6354,917,1080
6355,915,1076
6356,916,1077
6357,917,1080
6358,918,1084
6359,921,1081
6360,919,1078
6361,919,1079
6362,919,1081
6363,921,1084
6364,926,1087
6365,925,1087
6366,926,1084
6367,923,1087
6368,921,1088
6369,927,1090
6370,928,1090
6371,928,1091
6372,927,1090
6373,923,1088
6374,923,1089
6375,929,1090
6376,931,1092
6377,931,1090
6378,932,1088
6379,932,1088
6380,932,1089
6381,936,1089
6382,938,1090
6383,939,1090
6384,937,1088
6385,938,1086
6386,937,1089
6387,936,1091
6388,939,1091
6389,941,1089
6390,941,1086
6391,942,1084
6392,941,1083
6393,944,1085
6394,950,1085
6395,953,1085
6396,955,1076
6397,959,1041
6398,965,979
6399,983,946
6400,1019,966
6401,1095,1011
6402,1208,1031
6403,1316,1033
6404,1367,1036
6405,1355,1041
6406,1320,1044
6407,1298,1044
6408,1283,1042
6409,1269,1036
6410,1252,1034
6411,1234,1033
6412,1218,1030
6413,1198,1025
6414,1181,1021
6415,1166,1013
6416,1147,1011
6417,1128,1007
6418,1110,1006
6419,1086,1000
6420,1060,993
6421,1032,984
6422,1004,975
6423,975,967
6424,943,954
6425,903,945
6426,857,934
6427,809,924
6428,767,913
6429,729,899
6430,700,879
6431,675,852
6432,655,826
6433,634,808
6434,622,799
6435,612,789
6436,606,769
6437,597,755
6438,579,732
6439,562,711
6440,551,694
6441,542,675
6442,531,667
6443,519,674
6444,510,696
6445,511,724
6446,528,756
6447,565,790
6448,605,822
6449,645,848
6450,678,864
6451,705,884
6452,732,908
6453,756,929
6454,773,954
6455,790,972
6456,798,986
6457,807,998
6458,814,1014
6459,824,1031
6460,831,1041
6461,834,1051
6462,833,1056
6463,835,1063
6464,841,1073
6465,854,1082
6466,866,1092
6467,880,1101
6468,890,1109
6469,898,1121
6470,910,1135
6471,925,1148
6472,941,1159
6473,960,1170
6474,982,1177
6475,1003,1178
6476,1022,1187
6477,1040,1192
6478,1057,1200
6479,1077,1207
6480,1093,1212
6481,1109,1209
6482,1118,1208
6483,1126,1205
6484,1135,1194
6485,1139,1187
6486,1146,1179
6487,1152,1173
6488,1161,1173
6489,1168,1171
6490,1169,1170
6491,1168,1172
6492,1163,1169
6493,1163,1168
6494,1165,1169
6495,1172,1173
6496,1179,1177
6497,1186,1182
6498,1189,1180
6499,1192,1180
6500,1191,1185
6501,1196,1188
6502,1202,1194
6503,1206,1194
6504,1206,1199
6505,1206,1201
6506,1205,1208
6507,1211,1211
6508,1215,1218
6509,1219,1221
6510,1217,1222
6511,1219,1222
6512,1220,1226
6513,1223,1229
6514,1229,1233
6515,1229,1234
6516,1231,1232
6517,1232,1231
6518,1234,1232
6519,1236,1236
6520,1243,1240
6521,1241,1239
6522,1241,1236
6523,1241,1236
6524,1240,1238
6525,1239,1241
6526,1242,1240
6527,1240,1239
6528,1238,1239
6529,1231,1233
6530,1229,1231
6531,1230,1231
6532,1227,1229
6533,1221,1223
6534,1214,1219
6535,1208,1211
6536,1200,1206
6537,1196,1203
6538,1194,1200
6539,1186,1195
6540,1178,1185
6541,1167,1178
6542,1159,1171
6543,1155,1165
6544,1146,1162
6545,1137,1153
6546,1129,1146
6547,1116,1137
6548,1106,1132
6549,1100,1128
6550,1091,1123
6551,1081,1115
6552,1070,1110
6553,1059,1107
6554,1050,1100
6555,1045,1100
6556,1037,1099
6557,1029,1093
6558,1018,1089
6559,1007,1083
6560,999,1084
6561,991,1084
6562,987,1084
6563,981,1080
6564,975,1077
6565,969,1075
6566,964,1077
6567,960,1079
6568,956,1080
6569,951,1077
6570,946,1077
6571,941,1077
6572,939,1078
6573,939,1080
6574,938,1080
6575,938,1079
6576,936,1080
6577,933,1077
6578,931,1080
6579,932,1085
6580,932,1083
6581,931,1084
6582,927,1081
6583,927,1080
6584,926,1085
6585,925,1088
6586,929,1089
6587,928,1090
6588,926,1088
6589,925,1089
6590,924,1091
6591,925,1093
6592,924,1094
6593,925,1091
6594,927,1090
6595,926,1090
6596,924,1093
6597,926,1097
6598,927,1097
6599,925,1099
6600,926,1095
6601,926,1092
6602,926,1095
6603,928,1097
6604,932,1101
6605,933,1099
6606,933,1098
6607,929,1097
6608,930,1097
6609,934,1096
6610,936,1097
6611,937,1098
6612,935,1095
6613,933,1095
6614,934,1096
6615,936,1097
6616,938,1099
6617,938,1096
6618,938,1097
6619,939,1091
6620,937,1095
6621,939,1095
6622,941,1095
6623,940,1093
6624,941,1093
6625,940,1091
6626,939,1092
6627,943,1094
6628,944,1095
6629,946,1093
6630,944,1092
6631,942,1090
6632,942,1092
6633,942,1091
6634,942,1091
6635,943,1090
6636,944,1091
6637,943,1086
6638,943,1089
6639,943,1090
6640,945,1094
6641,944,1093
6642,942,1088
6643,938,1086
6644,939,1084
6645,940,1087
6646,942,1088
6647,944,1089
6648,944,1087
6649,941,1086
6650,940,1086
6651,940,1087
6652,944,1088
6653,945,1089
6654,945,1085
6655,945,1086
6656,945,1085
6657,945,1086
6658,948,1088
6659,947,1086
6660,944,1081
6661,942,1083
6662,942,1084
6663,947,1084
6664,950,1084
6665,951,1083
6666,949,1082
6667,948,1081
6668,949,1080
6669,950,1083
6670,951,1083
6671,950,1083
6672,952,1080
6673,948,1079
6674,948,1079
6675,948,1082
6676,950,1082
6677,952,1082
6678,950,1080
6679,949,1081
6680,949,1077
6681,952,1080
6682,954,1081
6683,952,1079
6684,949,1079
6685,949,1075
6686,949,1078
6687,950,1079
6688,952,1080
6689,954,1079
6690,955,1078
6691,955,1073
6692,952,1076
6693,955,1077
6694,957,1079
6695,958,1077
6696,959,1077
6697,959,1072
6698,961,1071
6699,963,1070
6700,965,1055
6701,973,1002
6702,980,931
6703,997,916
6704,1040,964
6705,1130,1010
6706,1253,1028
6707,1355,1027
6708,1381,1028
6709,1350,1029
6710,1311,1031
6711,1292,1033
6712,1285,1029
6713,1273,1027
6714,1252,1022
6715,1230,1016
6716,1208,1014
6717,1190,1014
6718,1172,1009
6719,1156,1002
6720,1131,998
6721,1105,993
6722,1077,992
6723,1045,986
6724,1016,978
6725,985,965
6726,951,953
6727,916,943
6728,875,938
6729,833,937
6730,791,934
6731,752,921
6732,717,903
6733,686,877
6734,662,857
6735,650,840
6736,640,829
6737,639,813
6738,637,795
6739,631,768
6740,619,741
6741,603,716
6742,589,688
6743,580,657
6744,570,638
6745,555,637
6746,547,657
6747,550,687
6748,568,716
6749,606,749
6750,648,778
6751,694,804
6752,731,829
6753,763,853
6754,791,877
6755,812,902
6756,827,923
6757,842,941
6758,851,959
6759,860,974
6760,871,990
6761,876,1006
6762,878,1017
6763,874,1029
6764,868,1043
6765,867,1059
6766,869,1072
6767,872,1081
6768,881,1088
6769,889,1091
6770,897,1101
6771,907,1112
6772,916,1117
6773,928,1124
6774,936,1129
6775,946,1131
6776,961,1137
6777,976,1144
6778,993,1148
6779,1003,1147
6780,1013,1149
6781,1023,1151
6782,1032,1151
6783,1041,1155
6784,1048,1160
6785,1050,1163
6786,1053,1163
6787,1054,1166
6788,1060,1168
6789,1066,1171
6790,1073,1176
6791,1075,1176
6792,1079,1177
6793,1080,1175
6794,1082,1182
6795,1090,1187
6796,1097,1189
6797,1101,1194
6798,1105,1196
6799,1107,1196
6800,1110,1198
6801,1114,1203
6802,1120,1206
6803,1126,1211
6804,1133,1210
6805,1137,1210
6806,1142,1215
6807,1148,1220
6808,1157,1225
6809,1163,1230
6810,1171,1235
6811,1174,1235
6812,1179,1239
6813,1186,1245
6814,1190,1248
6815,1193,1251
6816,1195,1251
6817,1197,1254
6818,1200,1253
6819,1207,1258
6820,1214,1262
6821,1216,1264
6822,1219,1264
6823,1218,1265
6824,1218,1265
6825,1221,1268
6826,1223,1269
6827,1222,1267
6828,1221,1265
6829,1219,1261
6830,1218,1264
6831,1214,1263
6832,1216,1261
6833,1212,1258
6834,1210,1251
6835,1202,1247
6836,1196,1239
6837,1193,1238
6838,1191,1232
6839,1181,1226
6840,1176,1221
6841,1168,1209
6842,1161,1204
6843,1151,1196
6844,1142,1190
6845,1134,1180
6846,1123,1173
6847,1118,1164
6848,1110,1158
6849,1102,1155
6850,1092,1149
6851,1085,1142
6852,1073,1135
6853,1065,1128
6854,1053,1123
6855,1047,1121
6856,1041,1115
6857,1034,1112
6858,1025,1108
6859,1014,1104
6860,1007,1101
6861,1003,1097
6862,999,1099
6863,992,1095
6864,985,1094
6865,976,1091
6866,972,1090
6867,968,1091
6868,969,1092
6869,965,1091
6870,959,1087
6871,953,1086
6872,950,1087
6873,952,1088
6874,948,1086
6875,948,1087
6876,945,1086
6877,942,1086
6878,940,1087
6879,941,1089
6880,943,1090
6881,940,1088
6882,938,1086
6883,938,1087
6884,936,1090
6885,939,1090
6886,938,1091
6887,938,1092
6888,935,1090
6889,937,1090
6890,935,1091
6891,936,1093
6892,937,1096
6893,938,1097
6894,939,1092
6895,935,1093
6896,934,1092
6897,936,1094
6898,939,1095
6899,938,1097
6900,938,1096
6901,938,1093
6902,935,1096
6903,937,1097
6904,939,1098
6905,940,1098
6906,939,1096
6907,940,1097
6908,941,1097
6909,944,1099
6910,943,1097
6911,942,1097
6912,942,1096
6913,940,1097
6914,942,1095
6915,945,1094
6916,950,1097
6917,949,1097
6918,949,1095
6919,948,1090
6920,947,1094
6921,947,1098
6922,951,1097
6923,952,1096
6924,947,1094
6925,948,1089
6926,947,1092
6927,948,1094
6928,946,1095
6929,950,1093
6930,948,1092
6931,948,1091
6932,947,1091
6933,950,1093
6934,951,1095
6935,949,1093
6936,947,1092
6937,946,1091
6938,944,1092
6939,944,1094
6940,947,1095
6941,949,1095
6942,947,1093
6943,947,1091
6944,945,1091
6945,949,1093
6946,950,1094
6947,949,1092
6948,947,1091
6949,946,1090
6950,945,1092
6951,946,1093
6952,949,1095
6953,947,1094
6954,944,1093
6955,940,1091
6956,940,1094
6957,946,1094
6958,947,1095
6959,944,1095
6960,943,1094
6961,942,1093
6962,942,1095
6963,943,1096
6964,946,1099
6965,949,1097
6966,947,1097
6967,944,1095
6968,943,1100
6969,943,1098
6970,947,1100
6971,947,1101
6972,946,1101
6973,947,1098
6974,945,1101
6975,948,1101
6976,949,1104
6977,951,1102
6978,949,1101
6979,948,1098
6980,949,1101
6981,951,1101
6982,952,1104
6983,951,1108
6984,950,1110
6985,950,1115
6986,950,1123
6987,955,1130
6988,958,1135
6989,959,1141
6990,961,1143
6991,962,1148
6992,964,1154
6993,969,1159
6994,977,1164
6995,982,1168
6996,987,1172
6997,992,1174
6998,996,1170
6999,1005,1169
7000,1011,1159
7001,1017,1139
7002,1022,1092
7003,1032,1016
7004,1047,976
7005,1075,1000
7006,1126,1045
7007,1211,1071
7008,1310,1072
7009,1381,1070
7010,1391,1071
7011,1366,1074
7012,1346,1074
7013,1331,1074
7014,1322,1066
7015,1305,1060
7016,1289,1056
7017,1273,1053
7018,1258,1046
7019,1242,1041
7020,1225,1033
7021,1207,1029
7022,1185,1026
7023,1166,1025
7024,1146,1024
7025,1121,1020
7026,1093,1010
7027,1065,995
7028,1033,983
7029,998,972
7030,964,960
7031,923,950
7032,879,941
7033,837,928
7034,797,913
7035,764,893
7036,732,870
7037,706,845
7038,683,825
7039,664,806
7040,651,794
7041,644,776
7042,640,759
7043,630,740
7044,611,724
7045,593,705
7046,583,687
7047,575,666
7048,565,651
7049,548,658
7050,534,679
7051,530,706
7052,539,736
7053,567,768
7054,605,802
7055,639,836
7056,673,859
7057,696,876
7058,724,902
7059,747,923
7060,764,946
7061,775,966
7062,783,985
7063,788,995
7064,794,1014
7065,803,1030
7066,812,1046
7067,813,1058
7068,810,1070
7069,808,1081
7070,810,1092
7071,820,1103
7072,832,1113
7073,845,1124
7074,853,1132
7075,864,1138
7076,874,1149
7077,885,1157
7078,898,1165
7079,911,1169
7080,928,1172
7081,940,1176
7082,951,1182
7083,968,1185
7084,976,1188
7085,990,1190
7086,1003,1190
7087,1010,1189
7088,1014,1193
7089,1016,1199
7090,1020,1201
7091,1023,1203
7092,1028,1202
7093,1033,1204
7094,1036,1204
7095,1041,1211
7096,1046,1214
7097,1050,1216
7098,1051,1218
7099,1056,1218
7100,1062,1221
7101,1069,1223
7102,1075,1227
7103,1076,1228
7104,1083,1231
7105,1086,1232
7106,1093,1236
7107,1100,1239
7108,1107,1245
7109,1114,1246
7110,1120,1246
7111,1123,1248
7112,1131,1252
7113,1139,1256
7114,1149,1258
7115,1156,1260
7116,1162,1262
7117,1164,1262
7118,1172,1268
7119,1179,1272
7120,1186,1274
7121,1191,1274
7122,1195,1275
7123,1197,1274
7124,1204,1277
7125,1210,1284
7126,1212,1284
7127,1217,1283
7128,1218,1281
7129,1219,1277
7130,1217,1280
7131,1222,1281
7132,1225,1279
7133,1227,1278
7134,1224,1276
7135,1221,1271
7136,1215,1268
7137,1216,1268
7138,1216,1266
7139,1212,1260
7140,1209,1254
7141,1205,1246
7142,1195,1243
7143,1194,1241
7144,1190,1233
7145,1182,1228
7146,1174,1218
7147,1164,1209
7148,1157,1201
7149,1147,1197
7150,1143,1189
7151,1133,1183
7152,1123,1174
7153,1113,1169
7154,1105,1162
7155,1094,1157
7156,1091,1153
7157,1082,1147
7158,1074,1141
7159,1063,1137
7160,1050,1134
7161,1043,1130
7162,1036,1128
7163,1032,1124
7164,1022,1122
7165,1012,1118
7166,1004,1116
7167,998,1116
7168,994,1117
7169,991,1113
7170,987,1112
7171,981,1109
7172,977,1111
7173,974,1113
7174,974,1112
7175,968,1112
7176,965,1110
7177,963,1108
7178,960,1109
7179,958,1111
7180,959,1112
7181,958,1112
7182,955,1110
7183,957,1108
7184,957,1111
7185,956,1113
7186,954,1115
7187,954,1114
7188,953,1112
7189,952,1110
7190,951,1111
7191,954,1113
7192,957,1116
7193,956,1115
7194,952,1112
7195,951,1111
7196,950,1115
7197,952,1116
7198,952,1116
7199,951,1116
7200,949,1116
7201,951,1114
7202,948,1113
7203,949,1118
7204,952,1119
7205,954,1119
7206,949,1117
7207,950,1114
7208,948,1117
7209,949,1120
7210,955,1119
7211,953,1120
7212,952,1118
7213,950,1113
7214,954,1116
7215,958,1119
7216,960,1120
7217,960,1121
7218,959,1117
7219,958,1118
7220,955,1117
7221,955,1119
7222,959,1119
7223,958,1119
7224,960,1117
7225,961,1113
7226,961,1114
7227,962,1115
7228,961,1117
7229,961,1114
7230,961,1114
7231,961,1110
7232,960,1113
7233,960,1113
7234,961,1114
7235,960,1114
7236,958,1113
7237,955,1111
7238,956,1113
7239,958,1116
7240,960,1121
7241,962,1126
7242,961,1129
7243,962,1133
7244,963,1139
7245,968,1143
7246,973,1148
7247,975,1148
7248,976,1146
7249,978,1148
7250,983,1155
7251,992,1162
7252,1000,1162
7253,1004,1164
7254,1008,1156
7255,1011,1146
7256,1015,1138
7257,1019,1129
7258,1026,1123
7259,1031,1120
7260,1033,1113
7261,1035,1107
7262,1035,1105
7263,1031,1101
7264,1025,1104
7265,1018,1097
7266,1014,1095
7267,1008,1092
7268,1010,1092
7269,1012,1094
7270,1012,1093
7271,1014,1093
7272,1012,1089
7273,1007,1088
7274,1004,1088
7275,1003,1086
7276,1004,1087
7277,998,1086
7278,992,1084
7279,984,1083
7280,981,1086
7281,980,1091
7282,977,1092
7283,971,1090
7284,966,1088
7285,961,1084
7286,957,1084
7287,955,1083
7288,953,1084
7289,952,1079
7290,947,1075
7291,944,1074
7292,942,1075
7293,942,1078
7294,942,1078
7295,939,1076
7296,936,1072
7297,935,1070
7298,933,1071
7299,936,1074
7300,937,1076
7301,937,1074
7302,937,1070
7303,937,1068
7304,941,1065
7305,943,1065
7306,950,1061
7307,951,1035
7308,955,973
7309,963,914
7310,986,913
7311,1037,955
7312,1119,995
7313,1232,1011
7314,1328,1010
7315,1366,1011
7316,1346,1013
7317,1312,1019
7318,1290,1020
7319,1278,1018
7320,1267,1013
7321,1249,1007
7322,1228,1008
7323,1211,1002
7324,1196,1003
7325,1180,1001
7326,1164,993
7327,1145,987
7328,1127,986
7329,1109,981
7330,1089,978
7331,1064,973
7332,1036,961
7333,1010,950
7334,983,941
7335,960,930
7336,931,919
7337,900,903
7338,869,894
7339,840,882
7340,812,872
7341,785,857
7342,762,839
7343,737,814
7344,715,791
7345,696,765
7346,683,751
7347,673,740
7348,669,726
7349,665,709
7350,654,688
7351,644,671
7352,623,656
7353,610,643
7354,599,625
7355,586,613
7356,573,607
7357,558,616
7358,547,642
7359,549,669
7360,564,697
7361,585,728
7362,610,755
7363,633,782
7364,665,814
7365,699,838
7366,726,864
7367,742,886
7368,751,908
7369,759,928
7370,767,948
7371,781,966
7372,791,981
7373,801,999
7374,814,1009
7375,817,1022
7376,820,1037
7377,822,1050
7378,826,1062
7379,835,1070
7380,844,1078
7381,855,1088
7382,865,1097
7383,883,1108
7384,895,1118
7385,907,1125
7386,919,1133
7387,931,1135
7388,946,1142
7389,964,1148
7390,981,1151
7391,996,1154
7392,1005,1155
7393,1016,1155
7394,1026,1159
7395,1037,1162
7396,1046,1166
7397,1049,1168
7398,1052,1166
7399,1054,1167
7400,1059,1167
7401,1064,1171
7402,1070,1176
7403,1073,1176
7404,1075,1177
7405,1080,1179
7406,1081,1181
7407,1087,1185
7408,1093,1189
7409,1100,1189
7410,1104,1191
7411,1107,1193
7412,1107,1193
7413,1116,1196
7414,1121,1202
7415,1130,1204
7416,1133,1204
7417,1136,1205
7418,1139,1211
7419,1145,1213
7420,1150,1219
7421,1157,1222
7422,1160,1223
7423,1164,1223
7424,1168,1231
7425,1177,1236
7426,1181,1238
7427,1186,1241
7428,1191,1239
7429,1194,1242
7430,1197,1245
7431,1201,1253
7432,1207,1254
7433,1209,1257
7434,1210,1254
7435,1211,1256
7436,1214,1260
7437,1216,1263
7438,1217,1265
7439,1217,1264
7440,1215,1260
7441,1212,1260
7442,1209,1260
7443,1208,1261
7444,1209,1257
7445,1205,1254
7446,1201,1252
7447,1198,1250
7448,1194,1247
7449,1189,1244
7450,1187,1238
7451,1182,1233
7452,1175,1224
7453,1164,1213
7454,1161,1211
7455,1157,1207
7456,1153,1201
7457,1148,1191
7458,1141,1184
7459,1131,1177
7460,1122,1172
7461,1117,1164
7462,1111,1157
7463,1106,1150
7464,1097,1142
7465,1086,1133
7466,1079,1128
7467,1072,1126
7468,1067,1123
7469,1058,1117
7470,1049,1111
7471,1040,1108
7472,1033,1105
7473,1030,1103
7474,1023,1100
7475,1016,1097
7476,1007,1093
7477,1000,1093
7478,995,1094
7479,993,1092
7480,993,1088
7481,987,1091
7482,983,1088
7483,976,1086
7484,972,1088
7485,969,1088
7486,968,1089
7487,967,1089
7488,961,1086
7489,959,1084
7490,958,1088
7491,958,1088
7492,958,1085
7493,954,1089
7494,953,1085
7495,953,1086
7496,954,1086
7497,954,1086
7498,957,1089
7499,954,1089
7500,953,1088
7501,953,1087
7502,952,1091
7503,954,1101
7504,954,1106
7505,956,1110
7506,952,1112
7507,957,1116
7508,958,1123
7509,964,1127
7510,969,1126
7511,972,1128
7512,977,1131
7513,983,1135
7514,990,1141
7515,1003,1148
7516,1008,1147
7517,1012,1142
7518,1012,1137
7519,1014,1125
7520,1015,1120
7521,1018,1115
7522,1025,1109
7523,1030,1108
7524,1033,1099
7525,1033,1094
7526,1026,1091
7527,1024,1088
7528,1021,1088
7529,1019,1083
7530,1017,1081
7531,1015,1076
7532,1016,1078
7533,1018,1080
7534,1022,1078
7535,1022,1079
7536,1019,1076
7537,1014,1073
7538,1012,1073
7539,1008,1075
7540,1007,1076
7541,1002,1075
7542,996,1074
7543,990,1074
7544,984,1077
7545,982,1079
7546,979,1080
7547,974,1078
7548,967,1074
7549,961,1074
7550,957,1072
7551,954,1071
7552,950,1069
7553,947,1069
7554,942,1065
7555,938,1064
7556,935,1066
7557,935,1066
7558,935,1066
7559,931,1065
7560,928,1060
7561,926,1059
7562,926,1060
7563,927,1064
7564,927,1065
7565,926,1065
7566,924,1060
7567,922,1058
7568,923,1059
7569,925,1061
7570,927,1062
7571,925,1060
7572,919,1060
7573,916,1059
7574,916,1060
7575,920,1061
7576,923,1063
7577,923,1063
7578,923,1059
7579,922,1057
7580,921,1059
7581,922,1061
7582,924,1061
7583,924,1060
7584,920,1057
7585,922,1056
7586,920,1058
7587,921,1060
7588,921,1058
7589,922,1057
7590,921,1056
7591,920,1053
7592,918,1058
7593,920,1061
7594,923,1061
7595,921,1062
7596,922,1060
7597,921,1058
7598,922,1061
7599,922,1062
7600,925,1063
7601,926,1062
7602,927,1059
7603,925,1060
7604,926,1064
7605,929,1063
7606,930,1064
7607,927,1062
7608,924,1060
7609,924,1058
7610,925,1058
7611,927,1060
7612,931,1060
7613,932,1058
7614,931,1057
7615,932,1054
7616,931,1057
7617,935,1059
7618,938,1059
7619,942,1059
7620,943,1056
7621,945,1054
7622,949,1030
7623,958,961
7624,971,906
7625,999,921
7626,1055,969
7627,1158,1003
7628,1280,1013
7629,1357,1018
7630,1364,1020
7631,1326,1024
7632,1294,1026
7633,1277,1021
7634,1266,1019
7635,1256,1017
7636,1239,1013
7637,1218,1010
7638,1200,1005
7639,1185,998
7640,1170,998
7641,1159,993
7642,1149,988
7643,1127,982
7644,1110,973
7645,1088,968
7646,1070,964
7647,1048,957
7648,1027,950
7649,1000,939
7650,966,922
7651,926,909
7652,885,901
7653,848,897
7654,814,886
7655,782,873
7656,748,858
7657,715,837
7658,684,816
7659,661,799
7660,645,784
7661,629,773
7662,620,760
7663,612,747
7664,605,733
7665,598,720
7666,590,711
7667,572,697
7668,555,678
7669,546,657
7670,536,640
7671,527,637
7672,517,654
7673,514,685
7674,520,715
7675,538,744
7676,566,776
7677,597,806
7678,632,835
7679,664,854
7680,694,874
7681,719,892
7682,741,914
7683,758,937
7684,771,957
7685,782,968
7686,794,981
7687,806,999
7688,813,1011
7689,828,1023
7690,837,1035
7691,840,1043
7692,845,1048
7693,848,1054
7694,858,1061
7695,873,1068
7696,889,1077
7697,899,1084
7698,913,1087
7699,921,1095
7700,930,1103
7701,945,1110
7702,959,1115
7703,976,1118
7704,992,1121
7705,1005,1120
7706,1016,1124
7707,1031,1130
7708,1044,1134
7709,1054,1133
7710,1061,1136
7711,1068,1135
7712,1071,1138
7713,1076,1141
7714,1080,1144
7715,1082,1145
7716,1084,1143
7717,1087,1143
7718,1088,1149
7719,1093,1151
7720,1097,1153
7721,1099,1155
7722,1104,1155
7723,1107,1156
7724,1112,1158
7725,1117,1164
7726,1122,1166
7727,1125,1166
7728,1129,1166
7729,1132,1169
7730,1137,1172
7731,1143,1179
7732,1150,1180
7733,1152,1181
7734,1158,1182
7735,1161,1185
7736,1167,1189
7737,1176,1192
7738,1181,1197
7739,1190,1197
7740,1192,1199
7741,1197,1200
7742,1200,1206
7743,1208,1208
7744,1215,1213
7745,1217,1213
7746,1219,1215
7747,1223,1214
7748,1226,1219
7749,1233,1222
7750,1237,1223
7751,1239,1222
7752,1238,1221
7753,1238,1219
7754,1238,1220
7755,1243,1221
7756,1246,1221
7757,1244,1221
7758,1240,1217
7759,1235,1212
7760,1232,1210
7761,1232,1213
7762,1231,1211
7763,1227,1205
7764,1221,1197
7765,1215,1196
7766,1211,1188
7767,1207,1186
7768,1205,1183
7769,1199,1183
7770,1192,1179
7771,1182,1174
7772,1177,1177
7773,1173,1177
7774,1171,1175
7775,1167,1169
7776,1161,1162
7777,1158,1159
7778,1155,1155
7779,1155,1157
7780,1156,1157
7781,1154,1153
7782,1150,1149
7783,1146,1139
7784,1142,1130
7785,1141,1121
7786,1133,1110
7787,1126,1098
7788,1120,1091
7789,1117,1086
7790,1111,1078
7791,1101,1071
7792,1091,1065
7793,1079,1062
7794,1069,1055
7795,1061,1054
7796,1054,1053
7797,1052,1057
7798,1049,1057
7799,1048,1057
7800,1043,1056
7801,1039,1053
7802,1030,1054
7803,1029,1058
7804,1025,1054
7805,1020,1053
7806,1013,1052
7807,1005,1053
7808,996,1056
7809,994,1060
7810,990,1064
7811,985,1062
7812,978,1061
7813,968,1058
7814,964,1057
7815,962,1061
7816,958,1061
7817,952,1060
7818,946,1057
7819,943,1054
7820,942,1054
7821,939,1056
7822,939,1059
7823,935,1058
7824,933,1057
7825,926,1056
7826,923,1061
7827,926,1061
7828,929,1060
7829,927,1059
7830,925,1061
7831,924,1060
7832,922,1064
7833,925,1065
7834,926,1063
7835,926,1062
7836,926,1061
7837,924,1060
7838,924,1059
7839,925,1062
7840,926,1061
7841,924,1061
7842,923,1058
7843,922,1059
7844,925,1060
7845,927,1061
7846,932,1061
7847,930,1060
7848,928,1058
7849,925,1055
7850,925,1056
7851,928,1058
7852,931,1060
7853,929,1058
7854,927,1056
7855,922,1054
7856,927,1058
7857,930,1058
7858,930,1058
7859,928,1057
7860,927,1054
7861,925,1056
7862,924,1055
7863,925,1057
7864,926,1056
7865,925,1056
7866,923,1055
7867,924,1054
7868,920,1057
7869,922,1057
7870,924,1056
7871,924,1057
7872,921,1057
7873,919,1054
7874,919,1058
7875,922,1058
7876,925,1059
7877,926,1059
7878,925,1059
7879,924,1057
7880,924,1059
7881,923,1061
7882,924,1060
7883,922,1060
7884,923,1060
7885,922,1060
7886,927,1061
7887,929,1062
7888,930,1064
7889,931,1063
7890,928,1060
7891,924,1060
7892,924,1059
7893,927,1064
7894,931,1064
7895,930,1063
7896,928,1064
7897,926,1062
7898,925,1061
7899,927,1066
7900,931,1065
7901,930,1062
7902,930,1061
7903,930,1059
7904,930,1061
7905,929,1065
7906,933,1063
7907,935,1063
7908,935,1062
7909,932,1059
7910,931,1062
7911,932,1063
7912,936,1060
7913,935,1061
7914,936,1059
7915,938,1057
7916,936,1060
7917,938,1062
7918,937,1062
7919,936,1059
7920,935,1060
7921,941,1056
7922,938,1058
7923,945,1060
7924,948,1060
7925,949,1059
7926,949,1054
7927,949,1056
7928,945,1054
7929,949,1057
7930,950,1055
7931,952,1052
7932,953,1048
7933,959,1041
7934,957,1027
7935,965,979
7936,974,914
7937,989,891
7938,1021,925
7939,1087,971
7940,1198,993
7941,1309,999
7942,1374,1000
7943,1371,1004
7944,1337,1005
7945,1308,1006
7946,1292,1006
7947,1285,1006
7948,1271,1003
7949,1252,999
7950,1234,993
7951,1215,988
7952,1198,986
7953,1181,984
7954,1167,979
7955,1149,974
7956,1125,971
7957,1101,964
7958,1075,962
7959,1047,957
7960,1018,952
7961,986,943
7962,955,929
7963,918,916
7964,888,905
7965,854,897
7966,817,890
7967,775,878
7968,736,863
7969,702,843
7970,676,819
7971,653,797
7972,639,777
7973,624,762
7974,611,746
7975,599,734
7976,591,721
7977,588,709
7978,582,692
7979,569,674
7980,553,652
7981,540,628
7982,528,608
7983,523,602
7984,514,613
7985,507,632
7986,504,655
7987,516,682
7988,540,715
7989,574,748
7990,611,776
7991,646,801
7992,677,824
7993,703,846
7994,723,868
7995,744,894
7996,760,914
7997,772,932
7998,782,943
7999,793,960
8000,802,975
8001,814,987
8002,823,998
8003,822,1013
8004,826,1020
8005,832,1028
8006,839,1039
8007,854,1049
8008,869,1058
8009,884,1069
8010,894,1073
8011,904,1081
8012,915,1091
8013,928,1103
8014,944,1107
8015,956,1114
8016,972,1115
8017,989,1119
8018,1005,1124
8019,1020,1132
8020,1034,1133
8021,1044,1133
8022,1053,1133
8023,1058,1136
8024,1067,1140
8025,1073,1144
8026,1079,1150
8027,1082,1152
8028,1083,1151
8029,1086,1153
8030,1090,1158
8031,1096,1160
8032,1102,1163
8033,1104,1163
8034,1106,1165
8035,1110,1169
8036,1111,1177
8037,1117,1185
8038,1123,1194
8039,1131,1200
8040,1135,1207
8041,1144,1212
8042,1149,1221
8043,1159,1227
8044,1172,1233
8045,1180,1239
8046,1187,1244
8047,1198,1249
8048,1212,1257
8049,1226,1263
8050,1237,1261
8051,1246,1261
8052,1252,1254
8053,1256,1247
8054,1261,1245
8055,1270,1244
8056,1281,1243
8057,1287,1240
8058,1288,1238
8059,1289,1234
8060,1289,1235
8061,1291,1235
8062,1293,1235
8063,1292,1234
8064,1295,1236
8065,1297,1237
8066,1299,1238
8067,1299,1240
8068,1301,1241
8069,1297,1239
8070,1296,1235
8071,1292,1232
8072,1287,1234
8073,1283,1233
8074,1277,1230
8075,1271,1227
8076,1262,1224
8077,1253,1222
8078,1246,1219
8079,1238,1215
8080,1234,1208
8081,1219,1200
8082,1208,1190
8083,1200,1183
8084,1189,1177
8085,1181,1172
8086,1176,1163
8087,1165,1154
8088,1153,1144
8089,1138,1137
8090,1128,1132
8091,1118,1129
8092,1110,1122
8093,1099,1114
8094,1088,1107
8095,1076,1099
8096,1065,1095
8097,1057,1094
8098,1050,1090
8099,1041,1084
8100,1031,1081
8101,1020,1078
8102,1013,1074
8103,1007,1075
8104,1001,1072
8105,993,1069
8106,986,1066
8107,978,1064
8108,972,1063
8109,969,1064
8110,966,1067
8111,960,1065
8112,953,1059
8113,949,1059
8114,946,1063
8115,945,1063
8116,946,1066
8117,941,1064
8118,937,1063
8119,935,1063
8120,933,1066
8121,932,1070
8122,934,1070
8123,930,1069
8124,928,1069
8125,925,1066
8126,926,1068
8127,926,1071
8128,925,1072
8129,924,1072
8130,923,1069
8131,921,1071
8132,919,1073
8133,921,1077
8134,921,1078
8135,921,1080
8136,920,1078
8137,920,1079
8138,919,1079
8139,919,1083
8140,921,1084
8141,921,1081
8142,921,1082
8143,916,1080
8144,918,1082
8145,919,1086
8146,920,1084
8147,920,1084
8148,921,1082
8149,918,1082
8150,921,1082
8151,924,1085
8152,926,1084
8153,925,1082
8154,925,1080
8155,924,1079
8156,923,1079
8157,925,1081
8158,924,1081
8159,928,1082
8160,928,1081
8161,926,1077
8162,926,1075
8163,926,1078
8164,930,1081
8165,931,1077
8166,931,1074
8167,932,1071
8168,931,1073
8169,934,1074
8170,937,1073
8171,932,1075
8172,934,1072
8173,932,1071
8174,934,1073
8175,935,1075
8176,938,1074
8177,937,1073
8178,937,1071
8179,938,1070
8180,937,1071
8181,936,1072
8182,938,1070
8183,936,1070
8184,937,1067
8185,934,1063
8186,935,1066
8187,937,1067
8188,940,1068
8189,938,1069
8190,938,1065
8191,938,1063
8192,936,1066
8193,939,1067
8194,942,1067
8195,941,1066
8196,942,1065
8197,941,1063
8198,939,1064
8199,940,1068
8200,942,1067
8201,944,1066
8202,944,1065
8203,944,1062
8204,942,1066
8205,945,1067
8206,945,1065
8207,945,1066
8208,944,1064
8209,940,1061
8210,942,1065
8211,944,1066
8212,947,1064
8213,949,1063
8214,947,1062
8215,943,1060
8216,943,1062
8217,948,1064
8218,953,1064
8219,951,1062
8220,950,1060
8221,950,1060
8222,947,1061
8223,950,1064
8224,950,1063
8225,953,1063
8226,955,1063
8227,954,1059
8228,957,1060
8229,957,1060
8230,956,1062
8231,955,1060
8232,955,1058
8233,956,1057
8234,955,1057
8235,960,1058
8236,964,1058
8237,963,1059
8238,965,1053
8239,964,1050
8240,966,1050
8241,970,1049
8242,975,1034
8243,979,996
8244,985,924
8245,995,877
8246,1020,898
8247,1078,952
8248,1174,984
8249,1290,996
8250,1373,999
8251,1393,999
8252,1360,1004
8253,1326,1008
8254,1313,1005
8255,1299,999
8256,1285,995
8257,1267,989
8258,1249,986
8259,1233,983
8260,1220,981
8261,1201,976
8262,1182,968
8263,1162,963
8264,1140,958
8265,1116,958
8266,1091,955
8267,1064,945
8268,1035,935
8269,1001,924
8270,961,913
8271,922,902
8272,883,892
8273,841,885
8274,796,878
8275,749,868
8276,710,855
8277,680,838
8278,654,809
8279,629,782
8280,615,762
8281,607,752
8282,599,743
8283,599,728
8284,597,711
8285,584,692
8286,571,671
8287,554,653
8288,543,637
8289,538,619
8290,532,612
8291,521,626
8292,514,650
8293,519,680
8294,540,718
8295,572,750
8296,609,783
8297,647,817
8298,686,846
8299,716,871
8300,742,899
8301,770,930
8302,789,953
8303,805,977
8304,821,996
8305,834,1013
8306,852,1035
8307,871,1062
8308,886,1077
8309,893,1088
8310,902,1090
8311,912,1091
8312,927,1095
8313,946,1096
8314,969,1101
8315,989,1104
8316,1008,1104
8317,1023,1106
8318,1032,1111
8319,1038,1113
8320,1051,1112
8321,1062,1118
8322,1077,1117
8323,1091,1119
8324,1106,1124
8325,1121,1127
8326,1135,1127
8327,1144,1129
8328,1152,1130
8329,1155,1129
8330,1159,1129
8331,1161,1136
8332,1163,1135
8333,1161,1136
8334,1160,1136
8335,1158,1138
8336,1157,1145
8337,1159,1149
8338,1161,1147
8339,1162,1147
8340,1162,1146
8341,1162,1145
8342,1163,1147
8343,1169,1151
8344,1172,1152
8345,1174,1151
8346,1176,1149
8347,1178,1149
8348,1181,1153
8349,1187,1156
8350,1192,1159
8351,1199,1160
8352,1205,1161
8353,1210,1162
8354,1214,1167
8355,1222,1170
8356,1230,1175
8357,1236,1177
8358,1239,1178
8359,1241,1177
8360,1248,1181
8361,1256,1186
8362,1262,1187
8363,1264,1188
8364,1267,1189
8365,1268,1189
8366,1270,1192
8367,1274,1197
8368,1282,1198
8369,1280,1197
8370,1280,1194
8371,1278,1193
8372,1277,1193
8373,1281,1196
8374,1283,1194
8375,1280,1192
8376,1278,1188
8377,1272,1183
8378,1272,1183
8379,1270,1180
8380,1268,1176
8381,1260,1172
8382,1253,1165
8383,1245,1164
8384,1241,1158
8385,1234,1154
8386,1229,1148
8387,1222,1140
8388,1213,1130
8389,1202,1121
8390,1192,1118
8391,1184,1113
8392,1177,1108
8393,1169,1101
8394,1160,1094
8395,1151,1085
8396,1139,1082
8397,1133,1078
8398,1124,1073
8399,1113,1068
8400,1102,1062
8401,1091,1056
8402,1080,1055
8403,1072,1053
8404,1064,1050
8405,1054,1048
8406,1046,1043
8407,1038,1042
8408,1031,1044
8409,1026,1043
8410,1022,1043
8411,1012,1041
8412,1008,1039
8413,1002,1038
8414,999,1040
8415,997,1041
8416,996,1042
8417,991,1038
8418,987,1038
8419,982,1040
8420,982,1038
8421,981,1042
8422,982,1042
8423,980,1041
8424,979,1040
8425,977,1038
8426,975,1040
8427,975,1041
8428,976,1046
8429,974,1044
8430,971,1041
8431,969,1044
8432,969,1045
8433,971,1046
8434,972,1049
8435,971,1047
8436,971,1046
8437,967,1047
8438,967,1047
8439,972,1049
8440,973,1051
8441,973,1051
8442,971,1050
8443,969,1048
8444,968,1052
8445,967,1055
8446,974,1054
8447,970,1054
8448,969,1052
8449,967,1050
8450,968,1053
8451,969,1055
8452,973,1056
8453,973,1059
8454,971,1055
8455,971,1055
8456,974,1056
8457,975,1057
8458,978,1056
8459,979,1054
8460,978,1054
8461,979,1053
8462,977,1057
8463,979,1057
8464,982,1057
8465,981,1053
8466,981,1054
8467,983,1050
8468,979,1053
8469,982,1054
8470,984,1055
8471,982,1055
8472,981,1051
8473,978,1050
8474,981,1052
8475,980,1052
8476,984,1054
8477,986,1053
8478,985,1049
8479,979,1048
8480,978,1050
8481,980,1055
8482,981,1052
8483,979,1052
8484,979,1051
8485,978,1048
8486,981,1050
8487,981,1051
8488,985,1052
8489,984,1051
8490,981,1047
8491,981,1048
8492,979,1050
8493,984,1052
8494,984,1054
8495,985,1050
8496,982,1046
8497,976,1048
8498,979,1049
8499,981,1051
8500,984,1049
8501,986,1050
8502,984,1049
8503,985,1047
8504,983,1048
8505,986,1050
8506,987,1053
8507,986,1052
8508,984,1049
8509,983,1047
8510,981,1049
8511,983,1050
8512,986,1051
8513,985,1047
8514,985,1046
8515,985,1046
8516,980,1048
8517,984,1051
8518,987,1049
8519,985,1046
8520,984,1047
8521,983,1045
8522,983,1047
8523,987,1051
8524,988,1050
8525,988,1048
8526,987,1046
8527,985,1047
8528,989,1045
8529,990,1049
8530,993,1049
8531,988,1047
8532,989,1046
8533,988,1042
8534,991,1043
8535,994,1044
8536,996,1043
8537,996,1038
8538,998,1036
8539,999,1021
8540,1008,979
8541,1017,915
8542,1034,881
8543,1064,911
8544,1130,960
8545,1239,986
8546,1356,995
8547,1417,1001
8548,1409,1007
8549,1371,1016
8550,1342,1021
8551,1329,1023
8552,1318,1026
8553,1305,1024
8554,1292,1025
8555,1275,1024
8556,1256,1022
8557,1244,1022
8558,1233,1022
8559,1223,1018
8560,1205,1007
8561,1181,994
8562,1150,981
8563,1120,962
8564,1092,950
8565,1065,937
8566,1036,921
8567,999,909
8568,950,896
8569,900,884
8570,853,869
8571,815,852
8572,782,827
8573,751,803
8574,728,778
8575,713,763
8576,694,749
8577,679,736
8578,667,717
8579,651,699
8580,630,679
8581,612,658
