'sample #','MLII','V1'
0,1059,1151
1,1059,1151
2,1059,1151
3,1059,1151
4,1059,1151
5,1059,1151
6,1059,1151
7,1059,1151
8,1059,1151
9,1060,1151
10,1061,1153
11,1066,1148
12,1070,1147
13,1068,1143
14,1063,1140
15,1056,1138
16,1043,1140
17,1036,1143
18,1041,1142
19,1054,1141
20,1063,1140
21,1056,1139
22,1037,1142
23,1035,1142
24,1048,1141
25,1068,1138
26,1072,1133
27,1064,1136
28,1056,1139
29,1052,1142
30,1052,1144
31,1049,1144
32,1046,1139
33,1044,1141
34,1046,1143
35,1051,1148
36,1052,1149
37,1045,1148
38,1035,1144
39,1030,1144
40,1026,1143
41,1027,1146
42,1021,1146
43,1017,1147
44,1012,1146
45,1006,1143
46,999,1148
47,999,1155
48,1002,1156
49,1002,1154
50,1002,1145
51,998,1137
52,998,1133
53,997,1134
54,996,1137
55,994,1140
56,989,1140
57,992,1140
58,991,1140
59,990,1141
60,987,1141
61,985,1140
62,988,1138
63,991,1135
64,989,1136
65,984,1142
66,981,1142
67,981,1139
68,987,1138
69,990,1135
70,986,1134
71,978,1133
72,978,1137
73,982,1137
74,989,1133
75,992,1129
76,990,1129
77,986,1136
78,985,1136
79,986,1134
80,991,1130
81,992,1129
82,988,1132
83,986,1133
84,989,1131
85,988,1128
86,989,1128
87,985,1127
88,984,1131
89,988,1138
90,987,1138
91,985,1139
92,982,1142
93,975,1146
94,976,1149
95,987,1150
96,1008,1145
97,1029,1136
98,1046,1122
99,1058,1104
100,1064,1093
101,1065,1086
102,1071,1069
103,1090,1044
104,1109,1007
105,1131,972
106,1144,950
107,1150,945
108,1146,951
109,1139,951
110,1134,949
111,1131,956
112,1128,967
113,1122,980
114,1113,988
115,1102,998
116,1090,1005
117,1078,1012
118,1068,1022
119,1059,1033
120,1043,1038
121,1020,1043
122,995,1044
123,968,1050
124,943,1058
125,926,1064
126,915,1070
127,910,1075
128,900,1077
129,892,1081
130,884,1086
131,886,1089
132,890,1093
133,892,1095
134,893,1096
135,892,1100
136,896,1106
137,901,1113
138,905,1114
139,906,1118
140,909,1117
141,908,1118
142,908,1121
143,912,1127
144,921,1126
145,927,1130
146,929,1127
147,927,1126
148,927,1128
149,931,1129
150,932,1131
151,932,1128
152,932,1128
153,930,1126
154,929,1131
155,931,1131
156,930,1131
157,927,1131
158,927,1129
159,923,1128
160,923,1131
161,924,1133
162,926,1131
163,926,1130
164,925,1129
165,923,1130
166,918,1131
167,918,1136
168,920,1136
169,924,1135
170,925,1129
171,923,1130
172,920,1129
173,921,1131
174,923,1130
175,923,1129
176,921,1128
177,921,1126
178,920,1130
179,924,1131
180,927,1131
181,925,1130
182,926,1127
183,927,1126
184,928,1123
185,928,1125
186,928,1126
187,933,1125
188,934,1122
189,937,1120
190,935,1121
191,941,1122
192,941,1121
193,943,1119
194,945,1117
195,947,1116
196,947,1117
197,950,1120
198,954,1119
199,954,1118
200,951,1112
201,949,1110
202,954,1108
203,963,1114
204,971,1110
205,973,1108
206,969,1108
207,967,1102
208,968,1100
209,976,1102
210,982,1100
211,981,1098
212,979,1096
213,980,1092
214,976,1095
215,978,1094
216,984,1093
217,986,1088
218,988,1084
219,987,1085
220,985,1083
221,987,1086
222,993,1083
223,992,1081
224,989,1078
225,987,1076
226,987,1074
227,988,1077
228,990,1074
229,990,1074
230,988,1072
231,989,1072
232,991,1072
233,995,1075
234,999,1075
235,999,1070
236,997,1070
237,992,1066
238,987,1069
239,985,1066
240,992,1069
241,995,1067
242,994,1060
243,988,1058
244,982,1059
245,986,1062
246,988,1061
247,987,1060
248,981,1056
249,977,1054
250,976,1055
251,984,1056
252,992,1058
253,995,1057
254,989,1055
255,985,1056
256,984,1056
257,986,1059
258,990,1060
259,987,1058
260,983,1054
261,980,1054
262,981,1056
263,985,1059
264,987,1058
265,985,1057
266,982,1058
267,976,1056
268,971,1061
269,969,1059
270,965,1059
271,960,1061
272,953,1059
273,949,1056
274,943,1057
275,939,1061
276,937,1059
277,934,1060
278,936,1056
279,936,1054
280,936,1055
281,938,1058
282,940,1058
283,938,1056
284,937,1054
285,933,1052
286,930,1055
287,929,1055
288,933,1055
289,932,1051
290,931,1048
291,927,1048
292,927,1048
293,930,1049
294,933,1049
295,934,1050
296,932,1046
297,932,1045
298,934,1048
299,936,1049
300,937,1049
301,933,1048
302,929,1044
303,928,1045
304,929,1046
305,935,1046
306,938,1046
307,930,1044
308,926,1040
309,923,1039
310,927,1045
311,935,1045
312,939,1043
313,938,1040
314,934,1039
315,930,1036
316,931,1038
317,933,1041
318,936,1041
319,932,1039
320,927,1041
321,927,1041
322,925,1044
323,927,1055
324,925,1056
325,925,1058
326,927,1055
327,941,1049
328,961,1042
329,983,1038
330,999,1022
331,1007,1006
332,1014,991
333,1017,977
334,1030,959
335,1052,931
336,1075,902
337,1087,875
338,1098,856
339,1103,849
340,1104,847
341,1102,847
342,1103,850
343,1097,855
344,1093,862
345,1082,873
346,1068,885
347,1062,898
348,1058,909
349,1045,919
350,1028,928
351,1011,936
352,990,948
353,963,955
354,941,962
355,913,967
356,891,968
357,874,975
358,863,982
359,855,987
360,847,992
361,842,994
362,843,994
363,842,1000
364,839,1007
365,843,1015
366,848,1019
367,854,1022
368,856,1023
369,858,1024
370,858,1031
371,862,1035
372,870,1036
373,872,1036
374,875,1038
375,878,1038
376,882,1041
377,882,1042
378,888,1044
379,886,1046
380,886,1042
381,885,1042
382,885,1043
383,884,1044
384,886,1044
385,885,1044
386,882,1043
387,883,1042
388,881,1043
389,881,1048
390,882,1046
391,880,1047
392,879,1044
393,877,1046
394,877,1046
395,881,1048
396,882,1051
397,880,1053
398,877,1048
399,874,1050
400,873,1049
401,876,1050
402,880,1052
403,878,1054
404,877,1048
405,877,1050
406,876,1050
407,878,1053
408,884,1051
409,882,1052
410,882,1050
411,881,1049
412,880,1051
413,885,1055
414,889,1055
415,891,1055
416,893,1051
417,891,1047
418,892,1046
419,893,1047
420,899,1050
421,903,1049
422,903,1049
423,903,1048
424,903,1046
425,906,1047
426,913,1048
427,917,1045
428,918,1043
429,919,1041
430,918,1038
431,923,1043
432,930,1039
433,933,1039
434,932,1033
435,933,1031
436,934,1032
437,940,1031
438,944,1031
439,944,1031
440,946,1027
441,946,1023
442,946,1024
443,948,1023
444,950,1023
445,951,1020
446,950,1012
447,951,1013
448,953,1012
449,955,1013
450,961,1010
451,961,1008
452,960,1004
453,956,1003
454,955,1002
455,956,1003
456,961,1001
457,962,1001
458,965,1001
459,967,998
460,970,997
461,970,997
462,965,996
463,962,997
464,960,996
465,956,997
466,952,996
467,951,996
468,952,997
469,952,997
470,953,994
471,952,995
472,952,995
473,957,998
474,962,999
475,962,996
476,965,991
477,964,991
478,966,986
479,962,989
480,957,987
481,951,988
482,949,988
483,944,992
484,944,994
485,946,999
486,950,1001
487,947,1002
488,949,998
489,947,996
490,946,996
491,947,997
492,949,999
493,942,997
494,933,997
495,926,1002
496,917,1008
497,914,1014
498,910,1012
499,906,1012
500,903,1005
501,900,1000
502,900,998
503,902,998
504,905,993
505,901,993
506,902,991
507,900,988
508,901,991
509,900,989
510,901,987
511,896,989
512,893,989
513,891,987
514,891,991
515,895,994
516,898,991
517,898,987
518,896,986
519,896,986
520,897,990
521,906,995
522,910,997
523,910,992
524,906,988
525,901,983
526,899,986
527,899,992
528,898,993
529,898,993
530,903,993
531,902,993
532,903,1000
533,900,1007
534,902,1012
535,906,1016
536,913,1024
537,916,1025
538,916,1026
539,909,1021
540,906,1013
541,900,1004
542,893,993
543,891,981
544,888,977
545,895,974
546,904,973
547,900,970
548,893,974
549,880,978
550,876,990
551,876,994
552,880,996
553,891,993
554,909,987
555,935,979
556,956,972
557,978,960
558,995,947
559,1005,935
560,1014,924
561,1023,908
562,1039,890
563,1064,864
564,1085,840
565,1106,815
566,1124,793
567,1136,781
568,1142,779
569,1141,779
570,1141,778
571,1135,782
572,1131,788
573,1120,799
574,1101,813
575,1086,828
576,1069,844
577,1056,865
578,1041,875
579,1031,886
580,1014,897
581,987,918
582,951,933
583,909,951
584,872,960
585,843,967
586,819,973
587,802,980
588,794,972
589,786,955
590,783,935
591,784,923
592,783,921
593,788,920
594,791,923
595,794,924
596,799,923
597,796,930
598,793,943
599,791,959
600,793,968
601,798,973
602,805,972
603,812,974
604,822,978
605,828,985
606,831,989
607,829,991
608,828,993
609,825,992
610,826,995
611,827,995
612,829,995
613,828,994
614,832,988
615,839,989
616,841,988
617,842,994
618,837,992
619,827,993
620,823,991
621,818,994
622,813,996
623,812,994
624,810,998
625,809,999
626,808,1003
627,807,1003
628,808,1007
629,813,1009
630,816,1014
631,816,1014
632,819,1009
633,817,1008
634,816,1013
635,818,1020
636,819,1021
637,822,1020
638,822,1008
639,822,997
640,822,995
641,825,1001
642,828,1016
643,825,1033
644,823,1044
645,821,1042
646,824,1036
647,834,1021
648,841,1005
649,849,989
650,847,977
651,837,972
652,832,971
653,833,973
654,839,978
655,849,983
656,857,984
657,857,986
658,853,992
659,851,993
660,848,996
661,848,994
662,850,992
663,857,988
664,861,991
665,864,993
666,868,995
667,872,996
668,876,988
669,880,984
670,880,984
671,882,986
672,886,986
673,887,979
674,889,976
675,887,977
676,897,982
677,904,985
678,911,983
679,910,980
680,905,980
681,903,979
682,906,974
683,913,972
684,915,971
685,913,970
686,912,966
687,911,962
688,908,961
689,910,964
690,914,971
691,921,974
692,931,976
693,932,969
694,931,961
695,925,951
696,915,942
697,908,942
698,910,941
699,911,941
700,914,947
701,922,952
702,924,955
703,921,956
704,908,953
705,901,946
706,903,942
707,912,944
708,916,947
709,914,950
710,904,950
711,896,949
712,892,948
713,896,950
714,903,953
715,905,954
716,909,956
717,908,956
718,901,957
719,898,960
720,899,954
721,902,952
722,904,947
723,902,949
724,898,958
725,900,972
726,902,982
727,901,984
728,897,978
729,891,963
730,883,959
731,877,955
732,871,953
733,862,951
734,861,954
735,861,959
736,863,970
737,865,974
738,861,964
739,852,951
740,847,940
741,847,939
742,853,942
743,858,945
744,860,949
745,855,947
746,850,942
747,855,938
748,860,940
749,863,945
750,860,948
751,856,947
752,851,945
753,853,944
754,852,945
755,854,948
756,864,948
757,869,947
758,870,944
759,865,943
760,855,943
761,850,943
762,850,939
763,849,933
764,846,925
765,841,932
766,841,939
767,846,952
768,854,960
769,856,962
770,853,957
771,848,951
772,845,950
773,844,954
774,851,960
775,854,961
776,853,955
777,852,951
778,845,951
779,842,955
780,847,960
781,854,958
782,858,954
783,856,947
784,854,943
785,852,949
786,850,951
787,844,955
788,838,957
789,831,955
790,838,956
791,858,956
792,893,946
793,928,936
794,952,925
795,965,909
796,978,891
797,984,881
798,988,868
799,995,850
800,1008,831
801,1019,808
802,1036,779
803,1053,756
804,1065,737
805,1066,725
806,1061,719
807,1052,723
808,1044,728
809,1039,736
810,1034,744
811,1021,750
812,1005,759
813,989,769
814,976,782
815,965,792
816,953,801
817,934,804
818,915,816
819,890,829
820,856,844
821,825,855
822,798,863
823,776,870
824,755,873
825,732,877
826,719,889
827,713,898
828,709,903
829,708,904
830,711,904
831,715,909
832,723,915
833,725,923
834,731,926
835,730,927
836,734,927
837,738,931
838,743,939
839,749,944
840,759,948
841,764,950
842,764,951
843,765,951
844,770,954
845,776,957
846,783,963
847,786,962
848,792,962
849,793,961
850,795,963
851,798,968
852,804,968
853,803,967
854,801,965
855,800,965
856,800,965
857,802,969
858,804,971
859,804,969
860,800,966
861,801,965
862,802,971
863,804,975
864,805,977
865,805,976
866,805,972
867,804,972
868,805,976
869,804,977
870,805,975
871,802,977
872,802,976
873,802,975
874,804,975
875,806,979
876,808,979
877,807,977
878,806,976
879,806,977
880,807,979
881,810,979
882,812,981
883,811,984
884,810,982
885,810,980
886,810,983
887,815,983
888,820,982
889,820,981
890,818,983
891,820,981
892,818,982
893,826,983
894,831,982
895,832,984
896,831,982
897,833,977
898,832,981
899,838,982
900,844,982
901,843,981
902,846,980
903,847,976
904,851,977
905,853,983
906,857,980
907,859,980
908,860,978
909,861,976
910,863,975
911,866,976
912,872,975
913,873,975
914,877,972
915,876,968
916,879,969
917,880,970
918,884,971
919,886,968
920,889,966
921,889,964
922,889,962
923,893,963
924,897,958
925,897,961
926,896,958
927,895,958
928,896,957
929,899,958
930,901,959
931,904,955
932,902,953
933,902,952
934,904,955
935,909,954
936,910,953
937,909,952
938,910,950
939,909,947
940,911,949
941,913,949
942,912,948
943,912,946
944,914,943
945,909,938
946,907,938
947,905,940
948,902,936
949,904,937
950,904,933
951,906,932
952,908,937
953,910,937
954,914,937
955,915,935
956,914,932
957,911,929
958,910,934
959,913,936
960,916,937
961,913,935
962,909,937
963,907,935
964,907,936
965,907,936
966,910,935
967,912,934
968,911,930
969,908,933
970,906,933
971,904,934
972,901,935
973,894,929
974,885,924
975,877,917
976,870,914
977,867,915
978,866,923
979,860,932
980,856,942
981,852,942
982,851,946
983,850,950
984,848,954
985,850,956
986,848,956
987,847,956
988,846,956
989,851,958
990,853,954
991,850,950
992,850,950
993,850,945
994,850,946
995,851,947
996,853,949
997,854,950
998,852,946
999,854,946
1000,855,949
1001,858,947
1002,856,948
1003,857,948
1004,857,946
1005,858,951
1006,859,951
1007,861,952
1008,861,950
1009,861,948
1010,858,947
1011,861,951
1012,859,954
1013,864,954
1014,865,952
1015,861,952
1016,860,951
1017,862,956
1018,864,959
1019,866,958
1020,865,958
1021,863,957
1022,864,958
1023,864,964
1024,862,967
1025,861,972
1026,861,977
1027,858,980
1028,855,981
1029,858,984
1030,868,985
1031,889,980
1032,908,970
1033,927,956
1034,944,942
1035,954,928
1036,958,915
1037,965,905
1038,974,884
1039,993,858
1040,1010,825
1041,1022,797
1042,1040,776
1043,1051,764
1044,1053,758
1045,1050,755
1046,1049,758
1047,1047,763
1048,1047,774
1049,1044,786
1050,1033,800
1051,1022,808
1052,1007,816
1053,998,830
1054,992,843
1055,982,847
1056,969,856
1057,947,857
1058,925,857
1059,898,863
1060,874,881
1061,852,904
1062,822,925
1063,801,934
1064,786,941
1065,778,947
1066,778,952
1067,776,956
1068,776,961
1069,775,966
1070,777,970
1071,776,976
1072,776,983
1073,780,986
1074,785,987
1075,790,993
1076,796,1000
1077,799,1009
1078,804,1017
1079,809,1024
1080,815,1029
1081,816,1030
1082,818,1033
1083,824,1039
1084,834,1043
1085,839,1047
1086,840,1050
1087,841,1051
1088,842,1049
1089,843,1046
1090,845,1050
1091,847,1057
1092,850,1060
1093,848,1067
1094,842,1069
1095,842,1071
1096,845,1072
1097,849,1075
1098,846,1072
1099,847,1074
1100,846,1073
1101,846,1075
1102,850,1077
1103,852,1079
1104,846,1079
1105,846,1084
1106,841,1087
1107,846,1092
1108,850,1101
1109,850,1100
1110,852,1102
1111,847,1097
1112,849,1099
1113,847,1104
1114,848,1111
1115,852,1114
1116,853,1115
1117,851,1112
1118,850,1112
1119,849,1120
1120,852,1129
1121,856,1134
1122,856,1136
1123,860,1131
1124,854,1132
1125,856,1134
1126,860,1134
1127,862,1136
1128,860,1137
1129,864,1135
1130,866,1134
1131,871,1137
1132,873,1141
1133,878,1144
1134,878,1145
1135,879,1143
1136,877,1145
1137,881,1147
1138,884,1151
1139,888,1150
1140,889,1149
1141,888,1148
1142,889,1148
1143,890,1148
1144,894,1154
1145,900,1156
1146,904,1157
1147,902,1152
1148,906,1152
1149,907,1155
1150,908,1160
1151,916,1158
1152,918,1157
1153,917,1156
1154,917,1154
1155,919,1156
1156,922,1159
1157,926,1159
1158,930,1155
1159,931,1153
1160,931,1154
1161,930,1153
1162,934,1157
1163,940,1156
1164,940,1156
1165,938,1154
1166,936,1154
1167,936,1157
1168,939,1158
1169,943,1159
1170,942,1158
1171,942,1157
1172,944,1158
1173,946,1161
1174,948,1163
1175,947,1162
1176,949,1164
1177,947,1162
1178,948,1167
1179,954,1166
1180,953,1172
1181,954,1174
1182,949,1170
1183,947,1167
1184,943,1166
1185,942,1167
1186,946,1168
1187,950,1169
1188,950,1171
1189,948,1167
1190,946,1165
1191,949,1166
1192,952,1170
1193,952,1170
1194,952,1171
1195,948,1171
1196,948,1173
1197,949,1176
1198,948,1180
1199,951,1181
1200,945,1186
1201,947,1184
1202,946,1182
1203,941,1186
1204,946,1187
1205,950,1190
1206,952,1190
1207,951,1189
1208,946,1191
1209,940,1193
1210,937,1198
1211,934,1194
1212,927,1193
1213,922,1191
1214,915,1197
1215,908,1202
1216,905,1209
1217,903,1213
1218,901,1213
1219,900,1210
1220,896,1210
1221,896,1213
1222,898,1213
1223,897,1214
1224,894,1215
1225,892,1214
1226,888,1211
1227,889,1216
1228,890,1213
1229,891,1213
1230,893,1213
1231,892,1211
1232,888,1212
1233,885,1213
1234,887,1216
1235,887,1215
1236,886,1216
1237,889,1215
1238,887,1216
1239,887,1216
1240,887,1218
1241,890,1217
1242,891,1215
1243,892,1214
1244,888,1212
1245,887,1215
1246,888,1218
1247,891,1216
1248,892,1213
1249,888,1214
1250,885,1218
1251,887,1222
1252,891,1227
1253,894,1226
1254,894,1222
1255,893,1219
1256,891,1220
1257,891,1218
1258,893,1222
1259,896,1221
1260,896,1221
1261,894,1223
1262,891,1223
1263,894,1229
1264,894,1233
1265,890,1235
1266,887,1241
1267,881,1245
1268,883,1246
1269,889,1249
1270,905,1247
1271,926,1240
1272,947,1228
1273,967,1216
1274,983,1200
1275,989,1182
1276,996,1174
1277,1009,1159
1278,1028,1133
1279,1045,1097
1280,1062,1066
1281,1076,1039
1282,1088,1024
1283,1099,1017
1284,1100,1016
1285,1096,1017
1286,1094,1015
1287,1089,1022
1288,1087,1032
1289,1084,1040
1290,1070,1051
1291,1053,1060
1292,1035,1071
1293,1023,1082
1294,1013,1094
1295,995,1105
1296,974,1116
1297,942,1125
1298,913,1136
1299,884,1144
1300,861,1152
1301,839,1155
1302,822,1162
1303,808,1166
1304,799,1171
1305,793,1176
1306,792,1181
1307,792,1184
1308,793,1190
1309,793,1191
1310,791,1193
1311,797,1202
1312,804,1207
1313,813,1210
1314,817,1215
1315,821,1218
1316,822,1217
1317,827,1223
1318,832,1228
1319,837,1229
1320,844,1229
1321,845,1231
1322,842,1233
1323,848,1237
1324,851,1238
1325,859,1237
1326,861,1236
1327,862,1234
1328,861,1234
1329,860,1233
1330,859,1236
1331,862,1234
1332,860,1232
1333,859,1231
1334,859,1232
1335,861,1233
1336,860,1232
1337,862,1234
1338,862,1232
1339,861,1233
1340,858,1230
1341,860,1234
1342,862,1230
1343,863,1232
1344,863,1232
1345,861,1228
1346,859,1227
1347,857,1230
1348,860,1231
1349,865,1230
1350,865,1230
1351,863,1228
1352,863,1225
1353,861,1225
1354,865,1227
1355,864,1226
1356,867,1225
1357,868,1221
1358,866,1221
1359,868,1221
1360,870,1223
1361,874,1222
1362,874,1221
1363,873,1215
1364,875,1212
1365,880,1214
1366,886,1214
1367,886,1211
1368,888,1210
1369,887,1206
1370,887,1200
1371,891,1204
1372,896,1204
1373,901,1202
1374,903,1199
1375,902,1196
1376,902,1193
1377,905,1191
1378,905,1189
1379,909,1189
1380,915,1187
1381,917,1185
1382,915,1180
1383,921,1181
1384,924,1182
1385,926,1180
1386,929,1175
1387,932,1169
1388,932,1165
1389,934,1165
1390,937,1166
1391,940,1161
1392,940,1158
1393,939,1157
1394,944,1153
1395,943,1151
1396,944,1150
1397,949,1145
1398,950,1142
1399,948,1139
1400,947,1135
1401,952,1135
1402,951,1133
1403,957,1130
1404,956,1127
1405,958,1120
1406,957,1120
1407,957,1121
1408,962,1120
1409,961,1118
1410,963,1117
1411,960,1109
1412,957,1108
1413,958,1111
1414,962,1109
1415,964,1105
1416,961,1100
1417,958,1096
1418,952,1094
1419,949,1092
1420,950,1094
1421,959,1091
1422,961,1090
1423,961,1089
1424,958,1086
1425,957,1086
1426,962,1085
1427,962,1084
1428,961,1083
1429,963,1080
1430,961,1077
1431,959,1078
1432,960,1080
1433,959,1080
1434,955,1077
1435,952,1074
1436,947,1075
1437,950,1079
1438,953,1077
1439,953,1075
1440,951,1079
1441,951,1075
1442,949,1072
1443,943,1072
1444,937,1072
1445,934,1073
1446,926,1075
1447,917,1074
1448,907,1072
1449,907,1073
1450,905,1077
1451,904,1072
1452,902,1069
1453,901,1067
1454,901,1063
1455,901,1064
1456,900,1068
1457,903,1067
1458,903,1063
1459,900,1059
1460,899,1056
1461,899,1057
1462,899,1057
1463,902,1055
1464,905,1055
1465,902,1051
1466,902,1051
1467,902,1050
1468,904,1052
1469,906,1050
1470,905,1050
1471,906,1045
1472,902,1042
1473,900,1044
1474,904,1043
1475,907,1044
1476,905,1039
1477,903,1040
1478,902,1037
1479,901,1038
1480,903,1041
1481,908,1037
1482,905,1036
1483,905,1033
1484,904,1034
1485,904,1034
1486,905,1033
1487,908,1032
1488,909,1033
1489,908,1028
1490,907,1027
1491,909,1027
1492,911,1025
1493,914,1021
1494,913,1022
1495,911,1024
1496,906,1024
1497,908,1031
1498,911,1033
1499,913,1036
1500,910,1038
1501,909,1036
1502,906,1036
1503,910,1036
1504,923,1031
1505,943,1024
1506,968,1011
1507,994,996
1508,1024,977
1509,1047,963
1510,1053,946
1511,1052,933
1512,1054,917
1513,1059,898
1514,1065,867
1515,1074,841
1516,1088,818
1517,1106,796
1518,1116,782
1519,1120,776
1520,1119,775
1521,1118,776
1522,1120,781
1523,1119,789
1524,1112,797
1525,1094,807
1526,1075,818
1527,1058,831
1528,1042,845
1529,1031,853
1530,1013,866
1531,988,871
1532,956,884
1533,927,895
1534,902,905
1535,883,912
1536,861,917
1537,841,923
1538,821,927
1539,812,937
1540,808,943
1541,807,949
1542,807,951
1543,806,949
1544,808,955
1545,809,961
1546,813,968
1547,817,972
1548,819,975
1549,826,977
1550,831,981
1551,839,984
1552,846,993
1553,853,995
1554,857,1000
1555,858,1001
1556,861,1005
1557,868,1007
1558,873,1009
1559,880,1011
1560,884,1010
1561,886,1012
1562,887,1012
1563,889,1011
1564,893,1015
1565,893,1014
1566,895,1013
1567,892,1008
1568,887,1010
1569,888,1012
1570,892,1014
1571,895,1011
1572,894,1012
1573,892,1009
1574,888,1010
1575,885,1010
1576,887,1010
1577,888,1010
1578,889,1008
1579,888,1006
1580,885,1007
1581,881,1011
1582,882,1014
1583,888,1016
1584,888,1016
1585,887,1012
1586,885,1011
1587,883,1013
1588,889,1012
1589,891,1013
1590,888,1013
1591,885,1013
1592,885,1010
1593,887,1010
1594,889,1013
1595,889,1012
1596,891,1014
1597,892,1010
1598,892,1005
1599,893,1008
1600,896,1008
1601,898,1009
1602,900,1010
1603,900,1007
1604,900,1005
1605,902,1009
1606,903,1009
1607,905,1011
1608,906,1008
1609,907,1006
1610,908,1001
1611,910,1002
1612,917,1004
1613,921,1004
1614,922,1002
1615,925,998
1616,923,995
1617,929,996
1618,929,997
1619,934,996
1620,937,994
1621,940,991
1622,937,989
1623,942,989
1624,947,992
1625,948,992
1626,949,989
1627,948,985
1628,950,982
1629,952,978
1630,955,975
1631,958,974
1632,959,974
1633,961,974
1634,958,971
1635,963,970
1636,968,971
1637,971,968
1638,972,967
1639,971,964
1640,972,963
1641,975,963
1642,977,961
1643,981,955
1644,982,952
1645,980,951
1646,978,955
1647,981,957
1648,984,961
1649,986,960
1650,986,958
1651,985,955
1652,982,952
1653,982,950
1654,983,949
1655,985,949
1656,983,948
1657,982,946
1658,980,940
1659,978,937
1660,977,939
1661,976,934
1662,978,933
1663,977,927
1664,975,932
1665,975,937
1666,980,937
1667,984,938
1668,984,933
1669,983,931
1670,980,933
1671,980,936
1672,979,943
1673,983,941
1674,982,939
1675,976,936
1676,972,934
1677,971,933
1678,971,932
1679,971,932
1680,972,932
1681,972,930
1682,973,933
1683,972,936
1684,970,935
1685,965,937
1686,960,938
1687,954,934
1688,948,931
1689,942,932
1690,938,933
1691,933,932
1692,933,936
1693,929,933
1694,925,935
1695,923,936
1696,925,938
1697,926,942
1698,926,938
1699,927,935
1700,926,933
1701,925,931
1702,923,932
1703,924,935
1704,922,934
1705,919,929
1706,920,927
1707,922,931
1708,926,932
1709,926,926
1710,926,925
1711,924,923
1712,922,925
1713,921,927
1714,919,931
1715,923,928
1716,923,926
1717,922,925
1718,921,925
1719,922,922
1720,924,926
1721,926,923
1722,924,924
1723,927,925
1724,924,920
1725,923,922
1726,921,921
1727,922,917
1728,926,919
1729,928,918
1730,929,920
1731,929,920
1732,930,923
1733,929,924
1734,928,924
1735,929,922
1736,926,920
1737,925,922
1738,930,925
1739,931,925
1740,933,928
1741,931,927
1742,928,928
1743,925,932
1744,928,934
1745,929,941
1746,931,939
1747,939,937
1748,952,935
1749,975,932
1750,1003,926
1751,1031,915
1752,1052,901
1753,1071,880
1754,1080,865
1755,1085,853
1756,1090,845
1757,1100,830
1758,1112,811
1759,1127,783
1760,1137,759
1761,1155,734
1762,1167,716
1763,1170,697
1764,1168,690
1765,1161,691
1766,1151,695
1767,1141,704
1768,1130,712
1769,1115,721
1770,1093,736
1771,1072,744
1772,1056,754
1773,1038,766
1774,1018,777
1775,996,787
1776,972,790
1777,946,799
1778,916,811
1779,890,825
1780,868,836
1781,851,844
1782,832,847
1783,811,855
1784,796,865
1785,791,874
1786,790,880
1787,794,880
1788,798,881
1789,798,883
1790,798,887
1791,801,895
1792,806,902
1793,814,908
1794,821,912
1795,821,915
1796,827,919
1797,835,926
1798,842,928
1799,849,930
1800,855,929
1801,859,931
1802,861,936
1803,867,943
1804,873,947
1805,877,949
1806,881,950
1807,885,949
1808,883,946
1809,881,947
1810,883,947
1811,888,947
1812,890,949
1813,886,947
1814,885,950
1815,887,949
1816,889,947
1817,891,942
1818,890,941
1819,887,943
1820,887,947
1821,889,952
1822,889,957
1823,889,959
1824,886,958
1825,888,955
1826,887,951
1827,886,949
1828,887,953
1829,887,955
1830,886,957
1831,886,954
1832,884,949
1833,887,951
1834,888,957
1835,890,959
1836,891,960
1837,890,955
1838,888,955
1839,885,958
1840,886,959
1841,892,960
1842,893,960
1843,893,955
1844,896,952
1845,896,954
1846,900,955
1847,902,959
1848,904,959
1849,906,958
1850,906,955
1851,908,956
1852,911,961
1853,917,961
1854,919,957
1855,918,950
1856,919,949
1857,926,951
1858,932,951
1859,937,951
1860,938,951
1861,940,950
1862,938,946
1863,939,946
1864,945,946
1865,947,945
1866,950,944
1867,952,945
1868,953,943
1869,957,944
1870,960,941
1871,964,940
1872,964,939
1873,965,936
1874,966,935
1875,970,934
1876,973,937
1877,974,937
1878,976,937
1879,977,933
1880,976,931
1881,979,930
1882,983,930
1883,984,928
1884,982,928
1885,982,925
1886,981,923
1887,984,921
1888,987,920
1889,991,921
1890,994,922
1891,992,924
1892,990,921
1893,989,921
1894,988,922
1895,991,920
1896,990,912
1897,987,909
1898,980,909
1899,980,910
1900,982,915
1901,983,916
1902,983,917
1903,984,913
1904,983,915
1905,987,914
1906,988,917
1907,989,913
1908,986,911
1909,984,906
1910,981,904
1911,981,904
1912,979,910
1913,980,913
1914,979,915
1915,976,911
1916,971,911
1917,974,911
1918,976,916
1919,980,920
1920,974,920
1921,966,918
1922,959,921
1923,955,924
1924,955,925
1925,950,926
1926,945,923
1927,937,919
1928,932,921
1929,931,925
1930,930,926
1931,930,924
1932,933,923
1933,931,923
1934,929,925
1935,926,927
1936,930,932
1937,926,928
1938,927,923
1939,928,917
1940,922,918
1941,926,920
1942,929,922
1943,931,923
1944,927,923
1945,924,920
1946,925,921
1947,926,923
1948,925,927
1949,925,925
1950,923,924
1951,921,923
1952,916,925
1953,916,928
1954,920,932
1955,921,929
1956,923,923
1957,925,919
1958,924,917
1959,924,916
1960,928,921
1961,926,926
1962,925,929
1963,927,924
1964,925,926
1965,925,927
1966,930,928
1967,933,926
1968,934,922
1969,939,916
1970,945,916
1971,952,917
1972,954,919
1973,951,923
1974,946,932
1975,936,938
1976,926,942
1977,921,948
1978,922,950
1979,935,950
1980,957,944
1981,982,936
1982,1006,926
1983,1030,910
1984,1047,892
1985,1060,874
1986,1062,862
1987,1073,841
1988,1082,818
1989,1090,793
1990,1096,771
1991,1106,746
1992,1109,726
1993,1111,716
1994,1104,717
1995,1097,719
1996,1096,729
1997,1092,737
1998,1084,746
1999,1067,755
2000,1055,766
2001,1042,779
2002,1033,792
2003,1021,803
2004,1006,810
2005,987,818
2006,960,822
2007,935,827
2008,913,838
2009,895,849
2010,874,857
2011,850,863
2012,832,868
2013,827,879
2014,831,887
2015,835,891
2016,835,893
2017,827,897
2018,823,903
2019,825,908
2020,833,917
2021,846,917
2022,856,920
2023,861,923
2024,857,923
2025,854,932
2026,851,942
2027,851,950
2028,857,951
2029,867,951
2030,881,953
2031,893,958
2032,896,959
2033,895,962
2034,890,960
2035,887,960
2036,886,960
2037,891,963
2038,897,964
2039,901,962
2040,901,961
2041,901,958
2042,901,958
2043,900,961
2044,902,965
2045,904,964
2046,905,962
2047,901,962
2048,899,961
2049,897,962
2050,897,968
2051,895,968
2052,901,967
2053,900,966
2054,898,966
2055,897,968
2056,899,967
2057,904,972
2058,905,969
2059,904,967
2060,904,966
2061,904,968
2062,905,970
2063,910,973
2064,910,971
2065,909,970
2066,911,970
2067,915,971
2068,917,974
2069,919,973
2070,918,973
2071,915,969
2072,914,970
2073,916,970
2074,920,971
2075,920,972
2076,923,969
2077,925,969
2078,923,967
2079,926,968
2080,929,970
2081,936,969
2082,937,968
2083,937,966
2084,940,963
2085,944,964
2086,947,965
2087,950,964
2088,953,963
2089,954,959
2090,954,955
2091,957,959
2092,960,959
2093,962,956
2094,968,954
2095,967,952
2096,966,951
2097,969,953
2098,971,955
2099,975,953
2100,976,952
2101,975,947
2102,974,943
2103,974,946
2104,980,946
2105,982,945
2106,982,942
2107,985,939
2108,984,938
2109,987,938
2110,989,941
2111,993,940
2112,991,936
2113,991,933
2114,989,929
2115,993,933
2116,997,930
2117,1000,931
2118,999,931
2119,995,927
2120,993,925
2121,994,927
2122,994,927
2123,997,925
2124,994,922
2125,992,918
2126,988,918
2127,991,920
2128,995,919
2129,994,918
2130,994,919
2131,997,914
2132,995,913
2133,995,913
2134,997,915
2135,995,916
2136,993,916
2137,990,912
2138,984,913
2139,983,915
2140,983,918
2141,985,916
2142,988,915
2143,985,915
2144,987,915
2145,992,918
2146,992,918
2147,990,924
2148,979,922
2149,970,919
2150,966,916
2151,962,920
2152,962,923
2153,957,924
2154,953,925
2155,946,924
2156,942,923
2157,940,924
2158,937,927
2159,940,927
2160,941,926
2161,936,925
2162,935,923
2163,933,925
2164,937,925
2165,938,924
2166,940,924
2167,937,923
2168,934,919
2169,933,922
2170,935,922
2171,935,921
2172,939,920
2173,937,920
2174,937,919
2175,935,919
2176,938,921
2177,940,920
2178,939,919
2179,938,919
2180,936,918
2181,937,922
2182,941,923
2183,943,920
2184,942,918
2185,941,915
2186,937,918
2187,940,919
2188,942,921
2189,940,920
2190,942,919
2191,936,919
2192,934,916
2193,936,919
2194,943,919
2195,942,918
2196,944,918
2197,942,917
2198,943,920
2199,940,926
2200,940,934
2201,938,938
2202,937,941
2203,935,940
2204,941,938
2205,959,931
2206,987,924
2207,1010,909
2208,1024,887
2209,1029,867
2210,1031,851
2211,1043,828
2212,1061,798
2213,1084,758
2214,1101,721
2215,1111,700
2216,1110,695
2217,1111,697
2218,1110,700
2219,1110,706
2220,1105,717
2221,1096,727
2222,1079,738
2223,1066,749
2224,1056,767
2225,1047,777
2226,1033,791
2227,1015,799
2228,990,806
2229,966,817
2230,942,829
2231,917,838
2232,890,843
2233,869,849
2234,853,854
2235,846,863
2236,841,869
2237,840,876
2238,840,878
2239,845,883
2240,843,889
2241,840,895
2242,844,901
2243,854,907
2244,864,914
2245,868,914
2246,871,920
2247,873,924
2248,880,930
2249,889,935
2250,894,935
2251,895,937
2252,898,937
2253,903,943
2254,906,946
2255,907,945
2256,909,948
2257,909,946
2258,908,943
2259,909,944
2260,912,946
2261,913,947
2262,910,947
2263,907,945
2264,904,948
2265,908,950
2266,909,951
2267,910,951
2268,910,950
2269,909,954
2270,905,956
2271,909,956
2272,912,959
2273,912,962
2274,911,959
2275,909,956
2276,907,956
2277,908,959
2278,911,963
2279,912,963
2280,913,961
2281,910,960
2282,908,962
2283,911,961
2284,913,964
2285,917,963
2286,919,964
2287,914,962
2288,917,959
2289,920,962
2290,922,963
2291,924,965
2292,927,962
2293,925,961
2294,926,958
2295,928,962
2296,931,961
2297,935,960
2298,937,959
2299,941,955
2300,941,954
2301,944,954
2302,947,957
2303,945,956
2304,949,956
2305,954,950
2306,956,948
2307,956,952
2308,963,950
2309,965,949
2310,969,950
2311,968,945
2312,969,941
2313,973,944
2314,975,944
2315,978,944
2316,979,941
2317,978,935
2318,979,934
2319,983,934
2320,984,936
2321,989,931
2322,988,932
2323,989,930
2324,993,927
2325,991,931
2326,996,929
2327,997,931
2328,1002,927
2329,999,926
2330,1001,922
2331,1004,926
2332,1008,926
2333,1007,922
2334,1008,921
2335,1008,921
2336,1004,918
2337,1003,917
2338,1002,915
2339,1001,916
2340,1000,916
2341,1002,914
2342,1000,913
2343,1005,912
2344,1007,916
2345,1009,914
2346,1010,913
2347,1007,911
2348,1002,908
2349,1003,911
2350,1006,914
2351,1005,913
2352,1004,914
2353,1001,913
2354,997,912
2355,996,913
2356,995,916
2357,996,915
2358,997,914
2359,996,913
2360,993,916
2361,991,920
2362,986,922
2363,982,923
2364,975,920
2365,971,919
2366,964,919
2367,960,922
2368,954,924
2369,953,923
2370,949,923
2371,943,920
2372,943,921
2373,944,923
2374,945,925
2375,944,923
2376,944,924
2377,942,920
2378,940,919
2379,940,923
2380,943,924
2381,942,923
2382,943,924
2383,942,921
2384,938,920
2385,939,921
2386,943,922
2387,946,920
2388,944,920
2389,943,917
2390,939,917
2391,941,919
2392,946,920
2393,944,920
2394,946,924
2395,945,921
2396,944,919
2397,943,920
2398,943,922
2399,944,921
2400,945,919
2401,942,916
2402,939,915
2403,943,916
2404,946,919
2405,948,921
2406,949,919
2407,944,917
2408,943,916
2409,945,917
2410,950,921
2411,951,920
2412,952,921
2413,948,920
2414,945,926
2415,943,930
2416,943,936
2417,941,940
2418,940,943
2419,939,943
2420,949,935
2421,973,930
2422,997,922
2423,1021,906
2424,1036,884
2425,1040,866
2426,1042,848
2427,1056,830
2428,1078,802
2429,1103,762
2430,1122,728
2431,1135,704
2432,1142,695
2433,1147,694
2434,1147,697
2435,1145,702
2436,1140,712
2437,1129,721
2438,1110,734
2439,1095,749
2440,1083,763
2441,1072,776
2442,1057,790
2443,1036,797
2444,1005,810
2445,973,824
2446,944,835
2447,919,844
2448,894,847
2449,871,852
2450,857,859
2451,850,867
2452,848,877
2453,850,884
2454,848,887
2455,848,890
2456,846,894
2457,848,902
2458,850,908
2459,857,913
2460,865,921
2461,867,922
2462,872,928
2463,878,935
2464,883,942
2465,890,944
2466,894,945
2467,894,948
2468,897,950
2469,903,951
2470,909,955
2471,913,958
2472,914,957
2473,913,958
2474,912,956
2475,916,959
2476,916,962
2477,915,961
2478,915,961
2479,916,960
2480,914,960
2481,912,961
2482,915,967
2483,917,965
2484,918,965
2485,916,964
2486,912,965
2487,914,966
2488,915,970
2489,917,972
2490,918,970
2491,915,969
2492,913,969
2493,913,973
2494,916,975
2495,919,976
2496,921,976
2497,920,973
2498,917,974
2499,919,979
2500,924,978
2501,925,979
2502,926,977
2503,925,976
2504,925,974
2505,925,977
2506,931,978
2507,931,980
2508,934,980
2509,932,977
2510,932,978
2511,937,980
2512,941,983
2513,940,981
2514,943,979
2515,942,978
2516,942,977
2517,948,978
2518,951,983
2519,958,981
2520,959,980
2521,961,976
2522,961,973
2523,961,974
2524,967,976
2525,972,978
2526,976,978
2527,978,977
2528,977,971
2529,977,969
2530,980,969
2531,983,973
2532,987,975
2533,984,973
2534,984,972
2535,988,964
2536,992,959
2537,998,951
2538,1001,952
2539,1001,952
2540,997,953
2541,998,953
2542,999,950
2543,1003,948
2544,1003,949
2545,1005,947
2546,1008,947
2547,1013,946
2548,1022,949
2549,1026,943
2550,1026,941
2551,1020,938
2552,1017,937
2553,1025,936
2554,1034,936
2555,1037,932
2556,1027,932
2557,1011,931
2558,994,937
2559,988,938
2560,991,942
2561,995,942
2562,1001,940
2563,1003,940
2564,1005,934
2565,1009,940
2566,1011,940
2567,1011,938
2568,1008,938
2569,1008,936
2570,1010,936
2571,1010,939
2572,1012,944
2573,1012,941
2574,1012,944
2575,1009,939
2576,1003,937
2577,1001,944
2578,1001,956
2579,1001,972
2580,1002,977
2581,1002,967
2582,997,954
2583,993,938
2584,989,930
2585,984,924
2586,980,921
2587,975,919
2588,972,921
2589,973,926
2590,972,931
2591,968,934
2592,960,939
2593,954,938
2594,951,938
2595,956,940
2596,971,942
2597,983,937
2598,987,932
2599,979,932
2600,964,936
2601,952,939
2602,943,950
2603,937,954
2604,933,960
2605,929,963
2606,929,965
2607,933,978
2608,935,985
2609,939,989
2610,944,995
2611,945,991
2612,944,982
2613,939,966
2614,938,953
2615,941,936
2616,946,928
2617,947,927
2618,942,941
2619,939,958
2620,939,967
2621,944,957
2622,949,937
2623,953,919
2624,953,909
2625,955,910
2626,958,917
2627,965,921
2628,969,925
2629,972,926
2630,967,928
2631,967,932
2632,964,934
2633,958,936
2634,954,938
2635,954,938
2636,959,942
2637,961,947
2638,958,955
2639,953,960
2640,953,965
2641,959,963
2642,977,961
2643,995,955
2644,1010,952
2645,1016,942
2646,1025,929
2647,1037,914
2648,1052,906
2649,1070,905
2650,1090,899
2651,1105,883
2652,1111,860
2653,1116,830
2654,1128,798
2655,1149,773
2656,1163,770
2657,1164,781
2658,1154,799
2659,1143,805
2660,1139,787
2661,1143,769
2662,1144,772
2663,1134,795
2664,1119,837
2665,1105,851
2666,1090,833
2667,1077,794
2668,1063,760
2669,1044,747
2670,1015,758
2671,981,783
2672,943,810
2673,912,836
2674,886,857
2675,874,869
2676,864,879
2677,854,887
2678,840,898
2679,835,905
2680,833,912
2681,835,917
2682,841,923
2683,838,926
2684,840,930
2685,851,939
2686,862,949
2687,870,952
2688,876,954
2689,881,956
2690,888,963
2691,891,972
2692,900,975
2693,904,979
2694,906,981
2695,907,993
2696,912,1003
2697,923,1010
2698,928,1014
2699,929,1013
2700,928,1013
2701,926,1007
2702,933,997
2703,939,987
2704,941,980
2705,946,979
2706,953,986
2707,952,994
2708,939,999
2709,927,1006
2710,919,993
2711,923,965
2712,918,935
2713,912,925
2714,900,944
2715,897,977
2716,898,1002
2717,901,1007
2718,901,1004
2719,903,991
2720,903,984
2721,903,986
2722,902,996
2723,905,998
2724,906,1003
2725,905,1002
2726,906,1003
2727,909,1002
2728,911,1003
2729,911,1006
2730,919,1010
2731,921,1015
2732,923,1023
2733,924,1026
2734,925,1026
2735,929,1016
2736,934,1001
2737,936,991
2738,940,996
2739,944,1017
2740,957,1046
2741,968,1051
2742,974,1027
2743,970,997
2744,958,981
2745,942,982
2746,935,990
2747,940,1001
2748,953,1015
2749,967,1014
2750,977,1001
2751,984,984
2752,983,967
2753,987,960
2754,994,961
2755,995,968
2756,989,976
2757,983,981
2758,987,986
2759,993,986
2760,1001,983
2761,1001,981
2762,999,982
2763,1000,979
2764,994,983
2765,991,982
2766,988,985
2767,985,980
2768,979,981
2769,984,982
2770,993,984
2771,1013,981
2772,1034,978
2773,1039,975
2774,1038,974
2775,1027,975
2776,1014,976
2777,1008,977
2778,1008,973
2779,1012,971
2780,1018,968
2781,1027,964
2782,1035,965
2783,1040,961
2784,1043,961
2785,1046,957
2786,1053,956
2787,1045,958
2788,1019,964
2789,997,970
2790,989,972
2791,995,972
2792,1002,971
2793,1000,971
2794,990,973
2795,985,970
2796,994,969
2797,1003,965
2798,1012,964
2799,1018,967
2800,1013,970
2801,1011,972
2802,1008,973
2803,1003,973
2804,993,974
2805,981,975
2806,968,977
2807,965,979
2808,966,977
2809,967,975
2810,963,973
2811,962,976
2812,960,977
2813,962,977
2814,964,977
2815,968,977
2816,962,973
2817,960,974
2818,964,975
2819,973,975
2820,977,975
2821,967,973
2822,951,973
2823,944,977
2824,943,979
2825,953,980
2826,950,978
2827,943,979
2828,936,979
2829,939,981
2830,944,984
2831,950,984
2832,954,977
2833,954,975
2834,953,976
2835,954,975
2836,956,978
2837,954,976
2838,954,977
2839,950,979
2840,954,979
2841,956,982
2842,957,986
2843,957,983
2844,958,982
2845,960,981
2846,959,978
2847,960,980
2848,961,981
2849,967,983
2850,968,982
2851,966,977
2852,968,976
2853,971,979
2854,976,983
2855,978,982
2856,970,984
2857,964,984
2858,955,986
2859,951,989
2860,952,1000
2861,955,1003
2862,956,1005
2863,957,1006
2864,962,1003
2865,977,1002
2866,1002,995
2867,1023,987
2868,1041,972
2869,1057,956
2870,1065,937
2871,1064,928
2872,1064,916
2873,1074,898
2874,1093,870
2875,1113,839
2876,1132,807
2877,1151,788
2878,1169,776
2879,1183,769
2880,1185,765
2881,1182,761
2882,1175,762
2883,1173,771
2884,1169,782
2885,1160,793
2886,1138,807
2887,1121,816
2888,1109,827
2889,1096,841
2890,1082,853
2891,1064,865
2892,1037,874
2893,1009,884
2894,981,890
2895,959,899
2896,938,909
2897,918,912
2898,901,919
2899,885,926
2900,875,930
2901,869,937
2902,867,944
2903,864,946
2904,864,952
2905,865,952
2906,865,955
2907,864,962
2908,862,966
2909,867,972
2910,871,976
2911,879,980
2912,885,986
2913,893,994
2914,899,998
2915,903,1001
2916,906,1005
2917,906,1007
2918,906,1006
2919,912,1013
2920,917,1019
2921,922,1022
2922,929,1022
2923,929,1019
2924,932,1020
2925,934,1025
2926,937,1027
2927,940,1024
2928,940,1024
2929,936,1023
2930,937,1023
2931,939,1025
2932,940,1028
2933,937,1026
2934,939,1028
2935,937,1029
2936,936,1029
2937,934,1028
2938,937,1031
2939,938,1034
2940,936,1032
2941,935,1033
2942,932,1032
2943,934,1035
2944,936,1038
2945,938,1038
2946,939,1036
2947,936,1038
2948,934,1039
2949,936,1041
2950,939,1044
2951,939,1041
2952,941,1041
2953,939,1042
2954,936,1042
2955,939,1041
2956,940,1044
2957,942,1044
2958,943,1044
2959,941,1042
2960,942,1043
2961,943,1047
2962,947,1050
2963,952,1047
2964,953,1046
2965,951,1045
2966,951,1042
2967,956,1045
2968,960,1044
2969,963,1047
2970,963,1047
2971,965,1042
2972,966,1044
2973,971,1046
2974,977,1047
2975,979,1042
2976,980,1044
2977,979,1042
2978,976,1042
2979,981,1040
2980,986,1041
2981,992,1038
2982,996,1038
2983,997,1035
2984,997,1031
2985,1000,1035
2986,1005,1037
2987,1008,1038
2988,1009,1033
2989,1009,1032
2990,1009,1031
2991,1013,1029
2992,1018,1030
2993,1018,1026
2994,1018,1027
2995,1021,1024
2996,1021,1020
2997,1023,1021
2998,1027,1022
2999,1031,1020
3000,1031,1018
3001,1031,1017
3002,1030,1015
3003,1035,1017
3004,1039,1019
3005,1043,1018
3006,1044,1016
3007,1045,1012
3008,1043,1013
3009,1045,1012
3010,1047,1013
3011,1046,1011
3012,1045,1008
3013,1039,1004
3014,1037,1001
3015,1037,1002
3016,1040,1006
3017,1043,1005
3018,1043,1005
3019,1046,1002
3020,1043,1000
3021,1044,1002
3022,1046,1004
3023,1043,1002
3024,1042,1000
3025,1040,1001
3026,1036,1001
3027,1038,1002
3028,1037,1005
3029,1036,1006
3030,1037,1004
3031,1036,1002
3032,1035,1001
3033,1036,1004
3034,1040,1008
3035,1039,1008
3036,1035,1008
3037,1028,1006
3038,1021,1006
3039,1014,1009
3040,1011,1012
3041,1006,1012
3042,1002,1012
3043,997,1008
3044,989,1011
3045,985,1009
3046,982,1011
3047,982,1013
3048,982,1011
3049,980,1009
3050,975,1010
3051,974,1011
3052,977,1013
3053,980,1011
3054,978,1012
3055,978,1009
3056,976,1010
3057,975,1011
3058,977,1012
3059,978,1011
3060,977,1010
3061,976,1008
3062,973,1007
3063,974,1009
3064,978,1012
3065,977,1010
3066,976,1008
3067,971,1005
3068,973,1008
3069,972,1007
3070,974,1009
3071,978,1008
3072,977,1007
3073,977,1005
3074,976,1006
3075,978,1007
3076,979,1007
3077,977,1008
3078,976,1009
3079,976,1008
3080,976,1005
3081,980,1006
3082,981,1008
3083,983,1007
3084,982,1006
3085,981,1007
3086,980,1006
3087,979,1010
3088,982,1011
3089,982,1010
3090,982,1010
3091,981,1012
3092,977,1012
3093,973,1018
3094,972,1023
3095,971,1028
3096,971,1033
3097,970,1033
3098,974,1030
3099,993,1027
3100,1016,1022
3101,1034,1012
3102,1054,996
3103,1067,980
3104,1079,961
3105,1088,945
3106,1102,933
3107,1122,907
3108,1143,873
3109,1162,839
3110,1180,812
3111,1196,791
3112,1211,782
3113,1218,776
3114,1220,772
3115,1214,770
3116,1212,771
3117,1207,781
3118,1200,793
3119,1184,805
3120,1161,817
3121,1141,827
3122,1123,838
3123,1106,851
3124,1087,867
3125,1064,878
3126,1038,891
3127,1004,900
3128,971,910
3129,949,922
3130,928,931
3131,906,934
3132,888,940
3133,874,945
3134,866,953
3135,859,961
3136,858,966
3137,857,972
3138,857,975
3139,858,977
3140,855,984
3141,855,988
3142,860,995
3143,869,1001
3144,873,1007
3145,878,1008
3146,884,1011
3147,890,1019
3148,894,1025
3149,899,1029
3150,902,1035
3151,903,1035
3152,906,1037
3153,913,1042
3154,921,1048
3155,926,1048
3156,926,1051
3157,928,1049
3158,926,1051
3159,931,1053
3160,933,1057
3161,933,1056
3162,935,1056
3163,934,1054
3164,932,1055
3165,931,1057
3166,932,1058
3167,931,1060
3168,933,1059
3169,929,1061
3170,929,1058
3171,929,1062
3172,932,1064
3173,931,1062
3174,932,1061
3175,929,1060
3176,927,1063
3177,925,1066
3178,927,1068
3179,928,1069
3180,928,1069
3181,924,1069
3182,922,1071
3183,923,1073
3184,926,1076
3185,926,1076
3186,925,1073
3187,925,1072
3188,924,1073
3189,924,1074
3190,927,1076
3191,930,1077
3192,929,1075
3193,930,1074
3194,929,1074
3195,930,1077
3196,934,1078
3197,937,1079
3198,937,1077
3199,937,1078
3200,938,1076
3201,941,1076
3202,942,1079
3203,946,1078
3204,946,1079
3205,947,1075
3206,947,1074
3207,949,1075
3208,951,1077
3209,957,1076
3210,961,1074
3211,962,1073
3212,961,1072
3213,963,1071
3214,967,1073
3215,973,1075
3216,975,1072
3217,977,1073
3218,976,1071
3219,979,1070
3220,981,1073
3221,989,1069
3222,992,1067
3223,995,1063
3224,993,1064
3225,994,1064
3226,997,1066
3227,1000,1065
3228,1000,1063
3229,1002,1056
3230,1002,1057
3231,1004,1058
3232,1008,1058
3233,1012,1059
3234,1014,1056
3235,1015,1053
3236,1013,1051
3237,1016,1052
3238,1016,1051
3239,1022,1051
3240,1027,1049
3241,1028,1046
3242,1027,1048
3243,1024,1048
3244,1026,1051
3245,1029,1048
3246,1029,1047
3247,1028,1044
3248,1027,1043
3249,1027,1041
3250,1029,1042
3251,1027,1040
3252,1023,1037
3253,1019,1037
3254,1017,1034
3255,1019,1035
3256,1024,1040
3257,1029,1038
3258,1030,1035
3259,1027,1035
3260,1023,1037
3261,1021,1039
3262,1023,1046
3263,1023,1053
3264,1023,1062
3265,1018,1063
3266,1017,1061
3267,1017,1057
3268,1017,1049
3269,1018,1045
3270,1017,1040
3271,1012,1046
3272,1011,1051
3273,1014,1054
3274,1016,1051
3275,1015,1044
3276,1012,1036
3277,1005,1027
3278,997,1020
3279,992,1018
3280,988,1019
3281,984,1023
3282,979,1022
3283,971,1024
3284,966,1027
3285,960,1032
3286,959,1036
3287,957,1039
3288,955,1040
3289,952,1038
3290,947,1040
3291,950,1040
3292,952,1042
3293,957,1043
3294,955,1039
3295,955,1038
3296,952,1039
3297,951,1039
3298,954,1041
3299,957,1040
3300,956,1039
3301,953,1036
3302,951,1035
3303,952,1038
3304,955,1040
3305,957,1041
3306,955,1039
3307,952,1037
3308,951,1038
3309,952,1038
3310,954,1043
3311,957,1038
3312,955,1037
3313,954,1037
3314,949,1037
3315,954,1039
3316,956,1039
3317,960,1040
3318,959,1039
3319,957,1039
3320,955,1037
3321,955,1038
3322,956,1040
3323,958,1039
3324,963,1039
3325,961,1039
3326,958,1038
3327,958,1041
3328,962,1044
3329,961,1044
3330,962,1046
3331,959,1049
3332,953,1052
3333,954,1057
3334,963,1061
3335,980,1061
3336,1002,1056
3337,1028,1044
3338,1048,1034
3339,1064,1022
3340,1081,1007
3341,1093,991
3342,1103,980
3343,1110,965
3344,1123,951
3345,1137,930
3346,1155,907
3347,1172,879
3348,1185,853
3349,1188,832
3350,1183,824
3351,1175,828
3352,1170,836
3353,1164,846
3354,1154,854
3355,1136,861
3356,1113,871
3357,1097,883
3358,1083,891
3359,1066,902
3360,1046,915
3361,1025,921
3362,994,931
3363,963,946
3364,934,954
3365,913,961
3366,892,965
3367,870,969
3368,850,974
3369,839,985
3370,834,996
3371,830,1001
3372,832,1001
3373,829,1004
3374,829,1008
3375,834,1014
3376,836,1020
3377,841,1024
3378,845,1029
3379,852,1031
3380,856,1036
3381,860,1042
3382,869,1049
3383,874,1052
3384,880,1054
3385,879,1056
3386,883,1057
3387,887,1061
3388,896,1065
3389,902,1068
3390,902,1068
3391,904,1067
3392,902,1068
3393,909,1072
3394,915,1074
3395,918,1072
3396,918,1072
3397,915,1071
3398,913,1071
3399,912,1070
3400,913,1073
3401,914,1073
3402,915,1073
3403,912,1072
3404,911,1069
3405,911,1075
3406,911,1078
3407,916,1076
3408,912,1076
3409,911,1074
3410,908,1077
3411,911,1079
3412,913,1078
3413,916,1079
3414,914,1077
3415,912,1078
3416,912,1078
3417,915,1079
3418,916,1081
3419,919,1082
3420,917,1079
3421,917,1079
3422,915,1080
3423,917,1082
3424,919,1081
3425,922,1084
3426,923,1083
3427,924,1082
3428,924,1083
3429,929,1085
3430,932,1083
3431,937,1084
3432,937,1082
3433,935,1081
3434,935,1079
3435,940,1080
3436,942,1081
3437,945,1082
3438,947,1081
3439,944,1078
3440,948,1079
3441,950,1080
3442,952,1079
3443,956,1081
3444,960,1077
3445,959,1074
3446,958,1076
3447,961,1075
3448,967,1078
3449,971,1079
3450,973,1075
3451,978,1074
3452,979,1075
3453,982,1078
3454,983,1079
3455,989,1072
3456,989,1068
3457,992,1062
3458,989,1063
3459,990,1064
3460,992,1064
3461,997,1062
3462,996,1064
3463,997,1060
3464,997,1060
3465,1000,1060
3466,1002,1062
3467,1004,1061
3468,1007,1063
3469,1007,1063
3470,1006,1064
3471,1011,1064
3472,1014,1065
3473,1016,1057
3474,1014,1051
3475,1015,1049
3476,1014,1050
3477,1016,1051
3478,1020,1053
3479,1021,1048
3480,1017,1045
3481,1013,1037
3482,1009,1039
3483,1007,1041
3484,1014,1039
3485,1016,1039
3486,1016,1039
3487,1014,1038
3488,1013,1037
3489,1009,1041
3490,1009,1041
3491,1011,1040
3492,1011,1039
3493,1009,1038
3494,1008,1039
3495,1007,1039
3496,1009,1041
3497,1011,1041
3498,1010,1041
3499,1009,1037
3500,1005,1037
3501,1003,1039
3502,1006,1043
3503,1008,1043
3504,1008,1042
3505,1006,1041
3506,1002,1042
3507,998,1045
3508,997,1047
3509,990,1047
3510,987,1045
3511,979,1044
3512,971,1044
3513,966,1047
3514,963,1048
3515,959,1048
3516,956,1048
3517,951,1049
3518,952,1054
3519,953,1057
3520,954,1058
3521,953,1058
3522,952,1053
3523,951,1046
3524,949,1044
3525,951,1046
3526,951,1045
3527,954,1043
3528,952,1043
3529,948,1038
3530,950,1038
3531,950,1040
3532,954,1040
3533,953,1040
3534,949,1042
3535,948,1042
3536,945,1041
3537,948,1041
3538,951,1043
3539,953,1043
3540,957,1043
3541,953,1043
3542,951,1040
3543,951,1040
3544,950,1045
3545,953,1042
3546,952,1040
3547,952,1042
3548,950,1042
3549,952,1043
3550,951,1045
3551,954,1041
3552,954,1043
3553,955,1039
3554,950,1041
3555,951,1043
3556,953,1042
3557,954,1046
3558,955,1042
3559,956,1041
3560,958,1042
3561,959,1047
3562,960,1052
3563,957,1053
3564,952,1058
3565,948,1057
3566,946,1059
3567,951,1064
3568,960,1065
3569,983,1059
3570,1008,1049
3571,1029,1039
3572,1041,1025
3573,1053,1014
3574,1058,1003
3575,1063,989
3576,1072,972
3577,1083,948
3578,1095,919
3579,1110,891
3580,1126,867
3581,1141,844
3582,1143,831
3583,1142,828
3584,1134,828
3585,1133,833
3586,1132,841
3587,1130,844
3588,1125,854
3589,1111,865
3590,1096,876
3591,1084,888
3592,1071,901
3593,1059,912
3594,1046,922
3595,1024,930
3596,999,939
3597,975,949
3598,953,960
3599,931,966
3600,905,970
3601,884,973
3602,866,980
3603,856,992
3604,853,1001
3605,851,1004
3606,850,1008
3607,847,1007
3608,846,1014
3609,846,1021
3610,849,1028
3611,853,1030
3612,856,1037
3613,859,1037
3614,866,1041
3615,873,1047
3616,879,1053
3617,883,1057
3618,886,1059
3619,887,1061
3620,890,1064
3621,897,1068
3622,904,1072
3623,907,1073
3624,909,1073
3625,911,1072
3626,910,1072
3627,912,1076
3628,916,1077
3629,919,1078
3630,918,1077
3631,916,1074
3632,916,1075
3633,915,1077
3634,916,1080
3635,918,1079
3636,916,1079
3637,915,1080
3638,912,1077
3639,910,1081
3640,914,1084
3641,918,1083
3642,919,1081
3643,917,1082
3644,914,1082
3645,912,1085
3646,916,1086
3647,917,1087
3648,917,1087
3649,917,1085
3650,917,1086
3651,916,1088
3652,915,1091
3653,913,1093
3654,914,1094
3655,915,1091
3656,915,1093
3657,917,1092
3658,919,1094
3659,922,1095
3660,923,1094
3661,927,1091
3662,924,1091
3663,927,1094
3664,932,1095
3665,937,1095
3666,936,1091
3667,936,1091
3668,937,1089
3669,941,1093
3670,944,1094
3671,945,1090
3672,948,1091
3673,946,1087
3674,950,1087
3675,954,1090
3676,958,1088
3677,961,1087
3678,962,1087
3679,964,1085
3680,963,1084
3681,966,1083
3682,969,1086
3683,974,1083
3684,978,1080
3685,978,1078
3686,975,1078
3687,978,1078
3688,982,1079
3689,987,1078
3690,991,1074
3691,991,1072
3692,989,1068
3693,991,1070
3694,992,1072
3695,997,1069
3696,996,1067
3697,993,1062
3698,990,1057
3699,993,1061
3700,996,1063
3701,1000,1063
3702,1003,1065
3703,1004,1061
3704,1006,1061
3705,1008,1063
3706,1011,1063
3707,1013,1061
3708,1012,1060
3709,1012,1057
3710,1013,1056
3711,1014,1061
3712,1013,1063
3713,1011,1058
3714,1005,1051
3715,1004,1042
3716,1004,1043
3717,1007,1044
3718,1010,1040
3719,1012,1035
3720,1012,1029
3721,1012,1031
3722,1013,1030
3723,1014,1031
3724,1015,1037
3725,1017,1039
3726,1018,1041
3727,1013,1044
3728,1009,1046
3729,1005,1050
3730,1000,1056
3731,999,1064
3732,998,1069
3733,996,1074
3734,996,1085
3735,997,1099
3736,997,1124
3737,992,1145
3738,988,1138
3739,981,1108
3740,981,1069
3741,981,1042
3742,981,1028
3743,975,1024
3744,962,1027
3745,947,1031
3746,943,1029
3747,948,1027
3748,955,1020
3749,958,1018
3750,956,1019
3751,945,1021
3752,936,1028
3753,937,1032
3754,939,1038
3755,943,1039
3756,945,1039
3757,944,1039
3758,942,1042
3759,945,1040
3760,946,1042
3761,945,1046
3762,946,1044
3763,945,1042
3764,944,1043
3765,947,1043
3766,946,1044
3767,950,1045
3768,948,1042
3769,947,1041
3770,946,1042
3771,947,1041
3772,950,1045
3773,953,1044
3774,951,1042
3775,948,1038
3776,948,1041
3777,947,1038
3778,950,1045
3779,953,1042
3780,950,1041
3781,949,1039
3782,951,1039
3783,953,1040
3784,954,1040
3785,955,1043
3786,956,1043
3787,956,1041
3788,953,1042
3789,950,1047
3790,952,1053
3791,947,1058
3792,946,1061
3793,943,1061
3794,942,1063
3795,950,1067
3796,966,1063
3797,990,1053
3798,1011,1041
3799,1027,1024
3800,1035,1009
3801,1040,997
3802,1047,987
3803,1063,968
3804,1079,939
3805,1097,906
3806,1111,873
3807,1125,851
3808,1138,838
3809,1146,831
3810,1149,827
3811,1146,825
3812,1144,830
3813,1144,838
3814,1137,853
3815,1127,861
3816,1109,874
3817,1092,884
3818,1079,896
3819,1070,910
3820,1058,920
3821,1037,931
3822,1014,938
3823,985,946
3824,958,954
3825,931,965
3826,908,974
3827,891,977
3828,879,981
3829,867,986
3830,859,992
3831,854,999
3832,853,1003
3833,852,1007
3834,856,1010
3835,854,1014
3836,850,1021
3837,850,1026
3838,855,1034
3839,862,1038
3840,869,1040
3841,873,1044
3842,872,1044
3843,881,1054
3844,885,1059
3845,888,1062
3846,894,1065
3847,896,1066
3848,901,1068
3849,905,1072
3850,910,1076
3851,915,1074
3852,916,1077
3853,918,1075
3854,914,1077
3855,916,1076
3856,920,1080
3857,922,1081
3858,924,1080
3859,921,1079
3860,918,1079
3861,920,1080
3862,922,1083
3863,923,1086
3864,919,1085
3865,917,1082
3866,914,1083
3867,914,1085
3868,915,1088
3869,917,1088
3870,919,1089
3871,917,1086
3872,915,1088
3873,915,1090
3874,918,1093
3875,918,1092
3876,916,1094
3877,917,1092
3878,914,1093
3879,915,1096
3880,917,1097
3881,919,1096
3882,919,1095
3883,918,1095
3884,919,1096
3885,920,1096
3886,922,1101
3887,927,1099
3888,927,1099
3889,925,1097
3890,924,1099
3891,929,1099
3892,932,1100
3893,937,1101
3894,937,1101
3895,939,1100
3896,942,1105
3897,946,1114
3898,951,1120
3899,952,1128
3900,954,1123
3901,957,1112
3902,955,1102
3903,955,1095
3904,958,1094
3905,959,1097
3906,960,1103
3907,961,1108
3908,960,1113
3909,963,1122
3910,964,1135
3911,967,1141
3912,976,1122
3913,984,1095
3914,990,1066
3915,991,1055
3916,990,1053
3917,986,1056
3918,981,1058
3919,975,1060
3920,977,1059
3921,981,1062
3922,988,1065
3923,991,1063
3924,995,1065
3925,997,1064
3926,996,1060
3927,1002,1061
3928,1007,1058
3929,1013,1056
3930,1015,1053
3931,1015,1050
3932,1014,1051
3933,1016,1053
3934,1018,1056
3935,1022,1056
3936,1021,1054
3937,1022,1053
3938,1018,1051
3939,1016,1051
3940,1017,1051
3941,1015,1048
3942,1013,1046
3943,1013,1045
3944,1012,1043
3945,1016,1043
3946,1019,1047
3947,1021,1046
3948,1022,1042
3949,1019,1043
3950,1016,1042
3951,1017,1043
3952,1017,1046
3953,1019,1047
3954,1014,1046
3955,1010,1047
3956,1009,1043
3957,1009,1044
3958,1012,1047
3959,1012,1047
3960,1013,1045
3961,1010,1045
3962,1010,1047
3963,1010,1051
3964,1007,1050
3965,1003,1049
3966,993,1048
3967,987,1049
3968,980,1050
3969,975,1050
3970,969,1055
3971,966,1054
3972,962,1051
3973,959,1051
3974,952,1053
3975,954,1053
3976,953,1056
3977,953,1057
3978,952,1053
3979,952,1052
3980,949,1051
3981,945,1053
3982,950,1055
3983,949,1053
3984,950,1050
3985,948,1050
3986,944,1049
3987,946,1051
3988,948,1051
3989,950,1051
3990,949,1053
3991,944,1050
3992,944,1049
3993,947,1050
3994,948,1052
3995,951,1051
3996,951,1048
3997,946,1046
3998,947,1046
3999,949,1048
4000,951,1050
4001,954,1050
4002,952,1048
4003,950,1047
4004,949,1047
4005,951,1050
4006,951,1051
4007,952,1052
4008,954,1049
4009,953,1049
4010,952,1049
4011,953,1049
4012,955,1052
4013,957,1052
4014,957,1052
4015,954,1049
4016,952,1051
4017,950,1056
4018,952,1062
4019,949,1066
4020,943,1072
4021,939,1073
4022,939,1075
4023,948,1074
4024,964,1070
4025,984,1063
4026,1006,1051
4027,1025,1034
4028,1039,1016
4029,1049,1003
4030,1057,990
4031,1073,968
4032,1093,941
4033,1115,908
4034,1131,873
4035,1152,846
4036,1169,832
4037,1181,823
4038,1188,817
4039,1188,814
4040,1183,816
4041,1179,825
4042,1175,838
4043,1164,847
4044,1144,859
4045,1124,871
4046,1106,885
4047,1090,900
4048,1078,914
4049,1058,922
4050,1034,932
4051,1003,941
4052,971,951
4053,947,958
4054,924,970
4055,900,976
4056,875,980
4057,862,986
4058,852,993
4059,845,999
4060,843,1004
4061,844,1009
4062,844,1014
4063,841,1016
4064,838,1021
4065,841,1029
4066,845,1034
4067,853,1039
4068,860,1043
4069,867,1047
4070,869,1052
4071,875,1058
4072,881,1064
4073,882,1069
4074,888,1070
4075,890,1074
4076,890,1074
4077,897,1080
4078,902,1085
4079,908,1085
4080,911,1085
4081,909,1082
4082,910,1085
4083,913,1085
4084,915,1088
4085,915,1088
4086,918,1086
4087,915,1084
4088,912,1087
4089,914,1091
4090,917,1093
4091,917,1091
4092,915,1090
4093,914,1090
4094,913,1091
4095,912,1092
4096,913,1095
4097,913,1095
4098,912,1096
4099,910,1095
4100,908,1099
4101,911,1097
4102,914,1100
4103,914,1099
4104,914,1101
4105,912,1099
4106,909,1099
4107,911,1105
4108,912,1105
4109,913,1104
4110,916,1103
4111,914,1102
4112,914,1102
4113,912,1105
4114,915,1108
4115,918,1106
4116,921,1105
4117,921,1104
4118,919,1104
4119,923,1105
4120,926,1106
4121,927,1106
4122,930,1104
4123,932,1104
4124,931,1102
4125,934,1105
4126,938,1107
4127,942,1105
4128,945,1103
4129,945,1100
4130,946,1100
4131,947,1103
4132,951,1103
4133,960,1101
4134,960,1099
4135,962,1096
4136,960,1095
4137,965,1097
4138,969,1097
4139,971,1095
4140,971,1095
4141,974,1091
4142,975,1087
4143,977,1090
4144,982,1091
4145,985,1090
4146,987,1087
4147,988,1084
4148,987,1083
4149,990,1084
4150,994,1085
4151,995,1083
4152,998,1080
4153,997,1077
4154,997,1077
4155,1000,1078
4156,1004,1079
4157,1009,1076
4158,1011,1075
4159,1013,1072
4160,1013,1071
4161,1015,1073
4162,1021,1073
4163,1023,1070
4164,1022,1067
4165,1023,1063
4166,1019,1062
4167,1020,1065
4168,1016,1063
4169,1018,1060
4170,1018,1059
4171,1016,1055
4172,1014,1054
4173,1016,1054
4174,1017,1058
4175,1020,1053
4176,1022,1054
4177,1020,1053
4178,1018,1052
4179,1017,1053
4180,1018,1053
4181,1019,1054
4182,1018,1055
4183,1017,1053
4184,1013,1054
4185,1011,1053
4186,1010,1056
4187,1013,1056
4188,1010,1053
4189,1010,1054
4190,1008,1053
4191,1008,1057
4192,1009,1060
4193,1005,1060
4194,1000,1061
4195,992,1058
4196,980,1058
4197,976,1058
4198,971,1063
4199,969,1062
4200,964,1059
4201,957,1059
4202,953,1060
4203,954,1063
4204,952,1065
4205,953,1062
4206,952,1062
4207,948,1062
4208,943,1062
4209,944,1062
4210,947,1063
4211,949,1062
4212,950,1061
4213,948,1058
4214,945,1059
4215,946,1061
4216,948,1064
4217,948,1060
4218,947,1060
4219,946,1058
4220,945,1055
4221,946,1060
4222,948,1061
4223,948,1058
4224,946,1055
4225,945,1057
4226,941,1057
4227,945,1059
4228,947,1060
4229,950,1061
4230,950,1058
4231,950,1057
4232,946,1057
4233,945,1059
4234,945,1061
4235,948,1061
4236,949,1058
4237,948,1056
4238,945,1056
4239,947,1058
4240,949,1061
4241,951,1063
4242,950,1062
4243,949,1062
4244,944,1065
4245,943,1072
4246,939,1080
4247,941,1083
4248,944,1082
4249,950,1084
4250,973,1078
4251,1004,1068
4252,1038,1055
4253,1061,1034
4254,1078,1010
4255,1088,989
4256,1099,971
4257,1122,945
4258,1146,912
4259,1167,872
4260,1188,841
4261,1204,823
4262,1208,817
4263,1210,820
4264,1206,824
4265,1201,832
4266,1187,842
4267,1165,855
4268,1138,867
4269,1112,884
4270,1089,898
4271,1072,911
4272,1046,922
4273,1019,933
4274,983,945
4275,949,960
4276,921,971
4277,895,978
4278,867,982
4279,844,988
4280,828,996
4281,822,1006
4282,818,1013
4283,816,1019
4284,820,1021
4285,821,1026
4286,819,1030
4287,822,1037
4288,826,1047
4289,833,1052
4290,843,1055
4291,850,1058
4292,856,1061
4293,858,1068
4294,866,1074
4295,868,1079
4296,874,1080
4297,877,1085
4298,881,1085
4299,887,1090
4300,893,1096
4301,898,1095
4302,900,1095
4303,900,1095
4304,897,1095
4305,899,1096
4306,902,1099
4307,903,1099
4308,902,1096
4309,899,1098
4310,898,1097
4311,897,1100
4312,898,1104
4313,900,1101
4314,899,1102
4315,896,1100
4316,896,1097
4317,896,1103
4318,895,1104
4319,896,1108
4320,895,1105
4321,897,1105
4322,894,1106
4323,894,1110
4324,898,1110
4325,898,1109
4326,899,1108
4327,896,1109
4328,895,1109
4329,897,1113
4330,899,1114
4331,902,1112
4332,902,1114
4333,901,1113
4334,901,1112
4335,905,1114
4336,908,1114
4337,911,1114
4338,910,1113
4339,911,1112
4340,914,1111
4341,918,1112
4342,922,1113
4343,926,1114
4344,925,1108
4345,929,1109
4346,928,1107
4347,932,1111
4348,936,1112
4349,940,1108
4350,943,1109
4351,945,1105
4352,947,1105
4353,949,1107
4354,952,1104
4355,958,1103
4356,963,1100
4357,963,1100
4358,959,1097
4359,964,1100
4360,968,1101
4361,973,1100
4362,976,1096
4363,977,1091
4364,979,1093
4365,981,1091
4366,983,1094
4367,987,1092
4368,990,1090
4369,990,1087
4370,991,1087
4371,995,1087
4372,1001,1087
4373,1004,1085
4374,1004,1084
4375,1003,1079
4376,1005,1082
4377,1005,1080
4378,1008,1080
4379,1009,1079
4380,1008,1076
4381,1007,1072
4382,1002,1069
4383,1001,1068
4384,1002,1068
4385,1002,1067
4386,1005,1067
4387,1005,1065
4388,1007,1063
4389,1010,1063
4390,1008,1065
4391,1010,1065
4392,1006,1062
4393,1005,1061
4394,1004,1062
4395,1005,1063
4396,1004,1064
4397,1002,1064
4398,999,1064
4399,996,1061
4400,994,1058
4401,995,1062
4402,996,1066
4403,1000,1066
4404,998,1066
4405,993,1063
4406,987,1067
4407,980,1068
4408,977,1071
4409,971,1071
4410,962,1067
4411,952,1070
4412,943,1070
4413,942,1070
4414,943,1072
4415,940,1071
4416,940,1070
4417,937,1068
4418,932,1069
4419,933,1072
4420,935,1074
4421,934,1074
4422,935,1070
4423,933,1070
4424,931,1069
4425,932,1071
4426,932,1072
4427,932,1071
4428,932,1070
4429,930,1069
4430,928,1068
4431,929,1069
4432,931,1071
4433,934,1070
4434,934,1070
4435,935,1068
4436,935,1066
4437,936,1068
4438,935,1069
4439,935,1066
4440,933,1064
4441,934,1064
4442,934,1064
4443,935,1066
4444,936,1067
4445,938,1067
4446,939,1066
4447,938,1065
4448,935,1063
4449,936,1067
4450,940,1067
4451,940,1067
4452,942,1064
4453,941,1062
4454,940,1064
4455,942,1067
4456,940,1069
4457,941,1069
4458,942,1071
4459,942,1073
4460,935,1078
4461,935,1083
4462,937,1091
4463,941,1088
4464,950,1092
4465,968,1086
4466,992,1076
4467,1021,1069
4468,1044,1057
4469,1063,1042
4470,1076,1022
4471,1079,1007
4472,1085,990
4473,1101,969
4474,1121,942
4475,1139,911
4476,1152,881
4477,1163,857
4478,1163,846
4479,1159,845
4480,1152,854
4481,1146,858
4482,1138,863
4483,1125,873
4484,1104,886
4485,1086,904
4486,1069,918
4487,1051,926
4488,1035,940
4489,1014,945
4490,986,957
4491,955,968
4492,928,977
4493,903,984
4494,877,991
4495,853,995
4496,835,1003
4497,824,1014
4498,821,1020
4499,818,1024
4500,818,1027
4501,818,1030
4502,818,1035
4503,819,1041
4504,823,1052
4505,830,1054
4506,837,1056
4507,843,1060
4508,847,1065
4509,854,1072
4510,860,1077
4511,862,1080
4512,865,1081
4513,868,1083
4514,873,1084
4515,882,1090
4516,888,1094
4517,892,1094
4518,894,1095
4519,893,1094
4520,894,1094
4521,897,1093
4522,899,1097
4523,899,1097
4524,899,1093
4525,900,1093
4526,896,1094
4527,896,1099
4528,898,1102
4529,902,1100
4530,899,1100
4531,899,1098
4532,894,1099
4533,898,1101
4534,899,1103
4535,900,1105
4536,898,1102
4537,896,1103
4538,895,1102
4539,896,1104
4540,899,1109
4541,903,1107
4542,899,1108
4543,899,1106
4544,898,1108
4545,901,1108
4546,902,1109
4547,905,1109
4548,908,1109
4549,907,1106
4550,907,1107
4551,910,1112
4552,913,1113
4553,915,1110
4554,918,1108
4555,919,1106
4556,921,1105
4557,924,1106
4558,929,1108
4559,933,1107
4560,934,1106
4561,938,1102
4562,937,1102
4563,939,1104
4564,945,1107
4565,949,1104
4566,952,1101
4567,955,1102
4568,955,1100
4569,959,1100
4570,963,1102
4571,967,1098
4572,969,1098
4573,971,1094
4574,971,1092
4575,975,1092
4576,978,1093
4577,981,1093
4578,984,1092
4579,985,1086
4580,985,1085
4581,988,1087
4582,990,1088
4583,994,1084
4584,995,1085
4585,995,1080
4586,998,1081
4587,997,1080
4588,1002,1084
4589,1006,1078
4590,1004,1078
4591,1007,1075
4592,1007,1075
4593,1008,1074
4594,1012,1075
4595,1013,1071
4596,1006,1068
4597,1002,1062
4598,996,1065
4599,998,1063
4600,1001,1064
4601,1004,1066
4602,1007,1063
4603,1007,1063
4604,1004,1061
4605,1007,1062
4606,1006,1060
4607,1006,1062
4608,1006,1063
4609,1002,1061
4610,999,1062
4611,999,1063
4612,1001,1065
4613,1000,1064
4614,1000,1063
4615,997,1065
4616,996,1065
4617,996,1069
4618,993,1071
4619,990,1070
4620,982,1070
4621,975,1070
4622,969,1068
4623,963,1071
4624,960,1073
4625,954,1072
4626,949,1074
4627,946,1073
4628,941,1072
4629,941,1074
4630,942,1076
4631,942,1073
4632,942,1074
4633,941,1071
4634,939,1071
4635,939,1074
4636,939,1073
4637,941,1073
4638,939,1070
4639,939,1070
4640,937,1070
4641,938,1071
4642,941,1073
4643,942,1073
4644,941,1070
4645,939,1067
4646,938,1068
4647,937,1070
4648,938,1070
4649,942,1070
4650,943,1067
4651,937,1069
4652,942,1068
4653,941,1070
4654,941,1069
4655,943,1069
4656,943,1068
4657,940,1067
4658,939,1064
4659,943,1065
4660,944,1067
4661,945,1071
4662,947,1067
4663,947,1066
4664,945,1068
4665,947,1070
4666,949,1071
4667,950,1071
4668,949,1074
4669,946,1077
4670,940,1082
4671,940,1089
4672,941,1092
4673,946,1093
4674,963,1089
4675,987,1078
4676,1011,1067
4677,1032,1056
4678,1046,1039
4679,1052,1025
4680,1055,1009
4681,1067,990
4682,1085,966
4683,1105,935
4684,1123,906
4685,1139,879
4686,1150,858
4687,1155,851
4688,1152,850
4689,1150,853
4690,1149,856
4691,1149,867
4692,1139,873
4693,1124,883
4694,1104,894
4695,1089,908
4696,1080,923
4697,1066,931
4698,1053,939
4699,1032,949
4700,1006,961
4701,979,969
4702,948,981
4703,927,986
4704,899,993
4705,876,996
4706,860,1000
4707,850,1011
4708,847,1019
4709,844,1021
4710,839,1026
4711,838,1028
4712,837,1032
4713,841,1041
4714,841,1047
4715,845,1051
4716,850,1055
4717,854,1061
4718,860,1065
4719,866,1069
4720,875,1077
4721,878,1079
4722,881,1082
4723,880,1083
4724,885,1086
4725,892,1089
4726,898,1094
4727,903,1094
4728,905,1095
4729,906,1093
4730,907,1094
4731,910,1096
4732,910,1098
4733,913,1099
4734,913,1098
4735,912,1096
4736,908,1096
4737,910,1097
4738,910,1102
4739,911,1102
4740,910,1102
4741,911,1099
4742,907,1098
4743,909,1100
4744,909,1103
4745,911,1103
4746,909,1105
4747,907,1103
4748,905,1103
4749,907,1104
4750,907,1110
4751,908,1108
4752,907,1108
4753,906,1107
4754,907,1105
4755,907,1110
4756,911,1112
4757,913,1111
4758,914,1110
4759,912,1109
4760,911,1112
4761,914,1112
4762,917,1116
4763,920,1114
4764,920,1112
4765,920,1109
4766,920,1110
4767,923,1112
4768,927,1113
4769,932,1112
4770,932,1109
4771,934,1110
4772,932,1108
4773,936,1108
4774,942,1110
4775,948,1110
4776,948,1107
4777,952,1106
4778,952,1104
4779,956,1108
4780,960,1106
4781,962,1106
4782,967,1104
4783,966,1101
4784,968,1100
4785,972,1101
4786,977,1103
4787,980,1098
4788,982,1096
4789,983,1092
4790,984,1091
4791,988,1093
4792,990,1093
4793,994,1091
4794,996,1089
4795,995,1085
4796,995,1082
4797,1000,1083
4798,1003,1082
4799,1007,1080
4800,1007,1081
4801,1009,1077
4802,1009,1076
4803,1012,1077
4804,1016,1076
4805,1019,1076
4806,1021,1070
4807,1018,1070
4808,1017,1068
4809,1019,1071
4810,1022,1072
4811,1019,1066
4812,1017,1063
4813,1011,1057
4814,1009,1058
4815,1011,1060
4816,1014,1061
4817,1018,1058
4818,1020,1060
4819,1018,1057
4820,1018,1056
4821,1017,1056
4822,1014,1060
4823,1018,1059
4824,1017,1057
4825,1016,1057
4826,1013,1058
4827,1011,1061
4828,1009,1062
4829,1010,1063
4830,1010,1060
4831,1009,1060
4832,1007,1061
4833,1010,1064
4834,1008,1064
4835,1006,1067
4836,996,1065
4837,989,1064
4838,981,1067
4839,975,1066
4840,972,1071
4841,969,1069
4842,964,1067
4843,956,1065
4844,953,1067
4845,954,1069
4846,956,1075
4847,953,1071
4848,953,1070
4849,948,1066
4850,947,1067
4851,947,1069
4852,949,1071
4853,948,1070
4854,949,1067
4855,950,1066
4856,949,1067
4857,947,1067
4858,950,1067
4859,951,1067
4860,951,1065
4861,949,1064
4862,948,1064
4863,950,1065
4864,952,1066
4865,953,1064
4866,954,1063
4867,950,1062
4868,948,1060
4869,951,1063
4870,950,1066
4871,953,1063
4872,951,1064
4873,953,1060
4874,954,1060
4875,954,1061
4876,956,1063
4877,958,1064
4878,958,1063
4879,957,1059
4880,956,1059
4881,956,1063
4882,959,1063
4883,963,1063
4884,960,1065
4885,957,1064
4886,952,1069
4887,949,1077
4888,948,1084
4889,945,1088
4890,949,1086
4891,955,1084
4892,970,1077
4893,999,1068
4894,1023,1057
4895,1041,1040
4896,1049,1020
4897,1053,1004
4898,1061,988
4899,1083,966
4900,1105,936
4901,1129,901
4902,1147,867
4903,1163,844
4904,1173,834
4905,1181,831
4906,1186,831
4907,1188,829
4908,1187,832
4909,1179,844
4910,1167,854
4911,1149,868
4912,1130,884
4913,1115,896
4914,1102,908
4915,1082,917
4916,1056,929
4917,1035,943
4918,1010,954
4919,980,965
4920,948,973
4921,917,978
4922,893,984
4923,876,991
4924,869,1000
4925,863,1006
4926,855,1010
4927,852,1012
4928,848,1017
4929,849,1024
4930,850,1032
4931,851,1037
4932,851,1041
4933,854,1045
4934,856,1051
4935,866,1056
4936,874,1065
4937,881,1067
4938,883,1070
4939,884,1075
4940,887,1076
4941,893,1082
4942,898,1088
4943,906,1089
4944,908,1090
4945,910,1091
4946,911,1093
4947,916,1095
4948,919,1098
4949,923,1096
4950,923,1096
4951,922,1096
4952,921,1096
4953,921,1096
4954,922,1099
4955,923,1099
4956,922,1099
4957,921,1099
4958,917,1098
4959,918,1100
4960,918,1104
4961,921,1102
4962,920,1103
4963,919,1101
4964,916,1103
4965,917,1106
4966,921,1109
4967,921,1107
4968,920,1109
4969,917,1107
4970,915,1108
4971,920,1110
4972,922,1113
4973,923,1112
4974,920,1111
4975,920,1110
4976,919,1107
4977,923,1112
4978,925,1116
4979,924,1117
4980,925,1116
4981,924,1113
4982,924,1114
4983,928,1113
4984,932,1117
4985,933,1114
4986,934,1114
4987,934,1110
4988,934,1112
4989,937,1113
4990,943,1118
4991,946,1113
4992,949,1112
4993,949,1109
4994,949,1110
4995,953,1109
4996,957,1115
4997,961,1112
4998,964,1110
4999,966,1109
5000,964,1104
5001,967,1106
5002,973,1107
5003,976,1106
5004,978,1102
5005,980,1101
5006,980,1099
5007,984,1100
5008,987,1099
5009,994,1097
5010,992,1093
5011,994,1094
5012,994,1089
5013,1000,1091
5014,1003,1093
5015,1004,1088
5016,1005,1086
5017,1007,1084
5018,1009,1082
5019,1011,1083
5020,1017,1085
5021,1020,1081
5022,1022,1080
5023,1022,1076
5024,1025,1079
5025,1027,1079
5026,1029,1080
5027,1030,1076
5028,1032,1073
5029,1032,1069
5030,1030,1068
5031,1030,1069
5032,1028,1065
5033,1027,1063
5034,1028,1061
5035,1028,1059
5036,1029,1058
5037,1033,1057
5038,1034,1059
5039,1032,1057
5040,1033,1054
5041,1031,1052
5042,1027,1052
5043,1029,1057
5044,1033,1059
5045,1033,1057
5046,1029,1057
5047,1027,1056
5048,1024,1055
5049,1024,1059
5050,1024,1058
5051,1023,1061
5052,1023,1057
5053,1023,1056
5054,1017,1057
5055,1017,1061
5056,1014,1064
5057,1010,1064
5058,1001,1061
5059,994,1060
5060,988,1060
5061,981,1065
5062,976,1065
5063,969,1065
5064,965,1067
5065,962,1063
5066,960,1065
5067,959,1065
5068,960,1067
5069,958,1067
5070,957,1063
5071,956,1063
5072,953,1063
5073,955,1065
5074,955,1067
5075,956,1063
5076,956,1063
5077,954,1061
5078,951,1062
5079,954,1064
5080,955,1064
5081,956,1062
5082,957,1060
5083,956,1060
5084,953,1061
5085,952,1064
5086,955,1064
5087,958,1063
5088,958,1059
5089,956,1057
5090,955,1058
5091,956,1059
5092,957,1061
5093,959,1060
5094,958,1058
5095,956,1058
5096,958,1056
5097,959,1058
5098,963,1062
5099,962,1059
5100,960,1057
5101,958,1055
5102,961,1056
5103,962,1060
5104,964,1066
5105,961,1068
5106,958,1070
5107,951,1072
5108,945,1078
5109,943,1086
5110,947,1086
5111,960,1082
5112,981,1072
5113,1006,1060
5114,1030,1047
5115,1047,1030
5116,1061,1015
5117,1070,999
5118,1083,980
5119,1102,950
5120,1124,916
5121,1148,883
5122,1168,856
5123,1187,833
5124,1202,822
5125,1210,814
5126,1211,814
5127,1213,819
5128,1210,826
5129,1203,838
5130,1186,849
5131,1161,858
5132,1136,872
5133,1119,890
5134,1104,902
5135,1084,915
5136,1057,926
5137,1022,938
5138,989,947
5139,954,960
5140,929,973
5141,901,978
5142,878,985
5143,865,989
5144,854,996
5145,850,1003
5146,845,1010
5147,843,1013
5148,844,1018
5149,844,1022
5150,843,1026
5151,842,1032
5152,850,1040
5153,856,1046
5154,864,1050
5155,867,1055
5156,873,1059
5157,879,1067
5158,885,1074
5159,889,1076
5160,893,1077
5161,894,1081
5162,898,1084
5163,903,1088
5164,910,1092
5165,913,1092
5166,916,1092
5167,915,1092
5168,915,1091
5169,917,1096
5170,921,1096
5171,921,1096
5172,920,1096
5173,916,1093
5174,913,1094
5175,916,1096
5176,915,1098
5177,917,1098
5178,915,1101
5179,912,1098
5180,914,1099
5181,913,1098
5182,915,1104
5183,914,1104
5184,914,1103
5185,911,1102
5186,909,1102
5187,912,1107
5188,914,1108
5189,913,1110
5190,913,1108
5191,912,1106
5192,912,1107
5193,915,1111
5194,917,1112
5195,916,1112
5196,917,1110
5197,916,1110
5198,916,1108
5199,917,1112
5200,921,1116
5201,923,1113
5202,923,1113
5203,922,1111
5204,922,1111
5205,926,1113
5206,930,1113
5207,934,1112
5208,935,1111
5209,936,1109
5210,936,1109
5211,938,1111
5212,943,1112
5213,948,1109
5214,949,1108
5215,948,1104
5216,949,1104
5217,953,1107
5218,959,1107
5219,963,1105
5220,965,1102
5221,966,1103
5222,965,1099
5223,969,1100
5224,973,1104
5225,976,1099
5226,978,1097
5227,981,1096
5228,983,1092
5229,985,1092
5230,988,1093
5231,992,1093
5232,994,1089
5233,995,1087
5234,996,1083
5235,1000,1085
5236,1004,1086
5237,1006,1083
5238,1006,1082
5239,1009,1080
5240,1008,1077
5241,1012,1077
5242,1020,1081
5243,1021,1077
5244,1022,1074
5245,1019,1072
5246,1019,1074
5247,1023,1073
5248,1025,1075
5249,1028,1071
5250,1030,1070
5251,1026,1065
5252,1021,1064
5253,1021,1063
5254,1022,1062
5255,1023,1057
5256,1022,1057
5257,1019,1055
5258,1021,1054
5259,1024,1056
5260,1027,1057
5261,1027,1055
5262,1026,1053
5263,1025,1053
5264,1022,1051
5265,1022,1053
5266,1027,1052
5267,1025,1055
5268,1022,1050
5269,1020,1051
5270,1015,1051
5271,1013,1053
5272,1016,1054
5273,1016,1054
5274,1013,1051
5275,1011,1051
5276,1010,1053
5277,1013,1054
5278,1014,1057
5279,1012,1055
5280,1003,1057
5281,994,1057
5282,988,1059
5283,983,1059
5284,981,1062
5285,974,1063
5286,968,1061
5287,962,1059
5288,957,1060
5289,954,1063
5290,956,1064
5291,955,1062
5292,953,1061
5293,950,1063
5294,948,1061
5295,947,1063
5296,949,1063
5297,950,1062
5298,948,1059
5299,946,1060
5300,945,1058
5301,947,1061
5302,949,1063
5303,948,1060
5304,947,1060
5305,946,1060
5306,944,1055
5307,944,1059
5308,948,1061
5309,949,1059
5310,946,1059
5311,945,1054
5312,943,1054
5313,944,1059
5314,949,1061
5315,951,1059
5316,950,1058
5317,948,1056
5318,947,1054
5319,950,1059
5320,950,1060
5321,951,1058
5322,950,1055
5323,947,1055
5324,948,1053
5325,952,1055
5326,953,1055
5327,954,1056
5328,954,1056
5329,955,1054
5330,954,1054
5331,953,1057
5332,956,1060
5333,958,1058
5334,954,1061
5335,952,1063
5336,948,1066
5337,944,1072
5338,945,1080
5339,945,1081
5340,946,1080
5341,954,1080
5342,969,1077
5343,998,1070
5344,1027,1063
5345,1053,1049
5346,1073,1030
5347,1087,1011
5348,1094,996
5349,1107,982
5350,1129,962
5351,1151,931
5352,1172,899
5353,1189,865
5354,1207,838
5355,1226,823
5356,1235,820
5357,1237,819
5358,1232,818
5359,1227,822
5360,1218,831
5361,1202,843
5362,1181,859
5363,1154,869
5364,1129,883
5365,1108,895
5366,1085,906
5367,1063,919
5368,1042,930
5369,1012,942
5370,975,951
5371,941,960
5372,910,969
5373,885,978
5374,862,985
5375,843,991
5376,829,997
5377,822,1002
5378,814,1009
5379,815,1015
5380,817,1018
5381,820,1024
5382,818,1029
5383,817,1033
5384,818,1041
5385,826,1046
5386,837,1053
5387,845,1056
5388,849,1060
5389,856,1064
5390,858,1069
5391,866,1074
5392,870,1077
5393,875,1081
5394,881,1081
5395,883,1081
5396,887,1084
5397,892,1092
5398,895,1095
5399,899,1094
5400,897,1092
5401,896,1091
5402,897,1092
5403,897,1093
5404,898,1095
5405,901,1095
5406,899,1094
5407,897,1093
5408,897,1094
5409,895,1095
5410,900,1100
5411,901,1099
5412,897,1097
5413,896,1096
5414,893,1096
5415,892,1099
5416,896,1101
5417,895,1102
5418,896,1101
5419,894,1099
5420,891,1100
5421,893,1103
5422,898,1105
5423,897,1107
5424,894,1105
5425,892,1102
5426,889,1105
5427,891,1105
5428,895,1111
5429,896,1109
5430,895,1111
5431,897,1108
5432,897,1107
5433,898,1108
5434,905,1111
5435,906,1110
5436,907,1109
5437,908,1107
5438,909,1108
5439,910,1111
5440,913,1111
5441,916,1110
5442,919,1107
5443,920,1104
5444,921,1106
5445,924,1108
5446,928,1109
5447,932,1108
5448,936,1104
5449,938,1103
5450,938,1103
5451,942,1100
5452,945,1106
5453,952,1103
5454,954,1099
5455,955,1098
5456,959,1097
5457,962,1097
5458,966,1098
5459,969,1097
5460,970,1095
5461,970,1095
5462,969,1089
5463,974,1092
5464,978,1095
5465,982,1091
5466,983,1087
5467,982,1084
5468,985,1083
5469,993,1081
5470,994,1082
5471,995,1081
5472,997,1079
5473,997,1079
5474,999,1078
5475,1006,1078
5476,1008,1078
5477,1012,1079
5478,1013,1075
5479,1009,1070
5480,1011,1069
5481,1013,1072
5482,1016,1071
5483,1016,1066
5484,1016,1065
5485,1011,1059
5486,1007,1057
5487,1009,1056
5488,1008,1057
5489,1008,1056
5490,1009,1056
5491,1010,1052
5492,1010,1051
5493,1014,1057
5494,1016,1056
5495,1016,1055
5496,1014,1050
5497,1011,1053
5498,1009,1051
5499,1011,1052
5500,1011,1059
5501,1009,1054
5502,1008,1053
5503,1005,1054
5504,1001,1053
5505,1002,1054
5506,1003,1055
5507,1004,1058
5508,1006,1054
5509,1002,1055
5510,996,1056
5511,997,1058
5512,992,1060
5513,990,1060
5514,982,1059
5515,975,1058
5516,967,1058
5517,963,1061
5518,958,1064
5519,952,1063
5520,948,1063
5521,944,1062
5522,940,1063
5523,940,1066
5524,942,1067
5525,942,1064
5526,941,1064
5527,938,1061
5528,936,1059
5529,937,1064
5530,939,1061
5531,938,1064
5532,939,1062
5533,937,1061
5534,933,1061
5535,934,1059
5536,935,1061
5537,936,1060
5538,936,1059
5539,933,1060
5540,931,1058
5541,933,1060
5542,935,1061
5543,933,1063
5544,935,1058
5545,934,1056
5546,935,1056
5547,935,1058
5548,939,1063
5549,940,1058
5550,938,1056
5551,938,1056
5552,939,1057
5553,939,1057
5554,942,1059
5555,939,1056
5556,940,1058
5557,938,1056
5558,937,1058
5559,938,1057
5560,941,1061
5561,946,1057
5562,945,1057
5563,943,1057
5564,940,1055
5565,941,1060
5566,944,1064
5567,945,1064
5568,943,1063
5569,938,1069
5570,934,1073
5571,937,1079
5572,943,1084
5573,949,1084
5574,960,1081
5575,978,1076
5576,1006,1067
5577,1030,1060
5578,1051,1050
5579,1070,1032
5580,1077,1018
5581,1081,1003
5582,1089,988
5583,1106,970
5584,1127,951
5585,1144,922
5586,1159,891
5587,1169,867
5588,1178,845
5589,1185,839
5590,1185,838
5591,1180,838
5592,1175,839
5593,1168,843
5594,1161,852
5595,1147,864
5596,1132,875
5597,1113,887
5598,1097,897
5599,1082,907
5600,1065,916
5601,1052,927
5602,1034,939
5603,1015,945
5604,987,955
5605,956,961
5606,929,969
5607,907,977
5608,886,985
5609,868,990
5610,850,995
5611,836,999
5612,827,1006
5613,824,1012
5614,824,1017
5615,822,1021
5616,823,1027
5617,821,1028
5618,821,1033
5619,824,1041
5620,829,1049
5621,834,1052
5622,842,1054
5623,847,1059
5624,852,1063
5625,857,1067
5626,866,1074
5627,870,1076
5628,871,1079
5629,875,1080
5630,878,1083
5631,886,1086
5632,891,1092
5633,894,1093
5634,895,1094
5635,895,1093
5636,898,1094
5637,899,1094
5638,902,1095
5639,906,1092
5640,903,1092
5641,900,1093
5642,898,1092
5643,898,1095
5644,901,1097
5645,901,1097
5646,899,1095
5647,897,1095
5648,893,1096
5649,898,1100
5650,902,1100
5651,899,1101
5652,900,1101
5653,897,1099
5654,895,1098
5655,897,1101
5656,897,1104
5657,901,1104
5658,901,1102
5659,900,1102
5660,898,1102
5661,898,1103
5662,901,1105
5663,903,1107
5664,901,1104
5665,901,1104
5666,902,1106
5667,904,1107
5668,905,1110
5669,910,1107
5670,909,1106
5671,909,1105
5672,908,1105
5673,913,1106
5674,918,1108
5675,920,1107
5676,924,1106
5677,921,1105
5678,922,1106
5679,928,1105
5680,933,1109
5681,936,1107
5682,940,1104
5683,944,1101
5684,945,1101
5685,945,1102
5686,948,1104
5687,955,1101
5688,957,1099
5689,958,1096
5690,961,1096
5691,965,1098
5692,968,1099
5693,970,1095
5694,975,1093
5695,977,1092
5696,977,1090
5697,981,1092
5698,982,1092
5699,987,1088
5700,989,1087
5701,987,1084
5702,989,1080
5703,992,1083
5704,997,1084
5705,1000,1080
5706,1000,1077
5707,1000,1076
5708,1000,1077
5709,1001,1078
5710,1006,1079
5711,1010,1077
5712,1011,1073
5713,1012,1070
5714,1010,1070
5715,1012,1070
5716,1016,1070
5717,1018,1068
5718,1017,1067
5719,1014,1062
5720,1009,1057
5721,1008,1061
5722,1010,1060
5723,1012,1058
5724,1012,1058
5725,1012,1058
5726,1009,1056
5727,1012,1057
5728,1016,1056
5729,1018,1055
5730,1016,1055
5731,1013,1050
5732,1012,1053
5733,1013,1056
5734,1012,1056
5735,1011,1056
5736,1008,1055
5737,1004,1054
5738,1004,1052
5739,1004,1058
5740,1002,1058
5741,1008,1058
5742,1006,1058
5743,1001,1057
5744,994,1060
5745,992,1062
5746,986,1063
5747,983,1063
5748,977,1065
5749,971,1061
5750,961,1063
5751,959,1065
5752,957,1067
5753,954,1065
5754,954,1063
5755,950,1063
5756,950,1062
5757,949,1065
5758,950,1066
5759,949,1066
5760,945,1063
5761,945,1062
5762,942,1060
5763,940,1063
5764,943,1065
5765,941,1062
5766,942,1063
5767,942,1062
5768,941,1061
5769,942,1061
5770,944,1063
5771,945,1063
5772,944,1062
5773,940,1060
5774,939,1058
5775,938,1061
5776,942,1062
5777,945,1063
5778,944,1059
5779,943,1060
5780,940,1058
5781,944,1060
5782,945,1062
5783,946,1061
5784,947,1057
5785,944,1056
5786,945,1057
5787,949,1057
5788,948,1061
5789,950,1060
5790,949,1061
5791,948,1056
5792,948,1057
5793,948,1060
5794,952,1061
5795,953,1061
5796,950,1061
5797,947,1066
5798,942,1070
5799,941,1077
5800,940,1082
5801,943,1083
5802,950,1084
5803,958,1079
5804,980,1074
5805,1008,1065
5806,1032,1055
5807,1051,1038
5808,1058,1021
5809,1063,1004
5810,1073,986
5811,1093,966
5812,1123,937
5813,1146,903
5814,1162,869
5815,1179,846
5816,1187,837
5817,1192,832
5818,1195,836
5819,1194,833
5820,1189,835
5821,1182,843
5822,1172,857
5823,1152,868
5824,1136,882
5825,1121,893
5826,1108,903
5827,1090,910
5828,1071,922
5829,1050,934
5830,1025,947
5831,998,956
5832,969,964
5833,940,971
5834,912,978
5835,886,983
5836,870,993
5837,859,997
5838,851,1002
5839,840,1006
5840,838,1010
5841,837,1018
5842,838,1025
5843,839,1028
5844,839,1030
5845,837,1037
5846,838,1041
5847,845,1047
5848,852,1055
5849,860,1058
5850,866,1061
5851,871,1062
5852,871,1069
5853,876,1075
5854,881,1079
5855,886,1082
5856,892,1084
5857,892,1087
5858,899,1087
5859,902,1090
5860,903,1095
5861,908,1094
5862,911,1094
5863,910,1094
5864,910,1094
5865,911,1096
5866,912,1097
5867,912,1096
5868,911,1095
5869,909,1095
5870,907,1095
5871,908,1099
5872,909,1099
5873,908,1101
5874,907,1099
5875,907,1099
5876,903,1100
5877,904,1102
5878,907,1103
5879,910,1104
5880,905,1104
5881,905,1104
5882,903,1105
5883,902,1106
5884,904,1109
5885,906,1110
5886,907,1107
5887,906,1110
5888,905,1107
5889,906,1109
5890,908,1115
5891,910,1113
5892,912,1110
5893,908,1109
5894,907,1112
5895,912,1112
5896,915,1114
5897,917,1112
5898,917,1111
5899,917,1110
5900,915,1109
5901,922,1112
5902,924,1111
5903,929,1113
5904,930,1110
5905,931,1108
5906,932,1107
5907,935,1108
5908,940,1110
5909,943,1109
5910,946,1106
5911,947,1105
5912,949,1103
5913,953,1105
5914,957,1106
5915,961,1104
5916,965,1101
5917,965,1097
5918,967,1098
5919,970,1098
5920,975,1101
5921,977,1099
5922,983,1096
5923,981,1093
5924,985,1091
5925,987,1092
5926,991,1092
5927,994,1088
5928,994,1086
5929,994,1085
5930,994,1085
5931,999,1084
5932,1001,1084
5933,1007,1081
5934,1008,1077
5935,1008,1076
5936,1007,1076
5937,1012,1076
5938,1017,1076
5939,1020,1073
5940,1022,1073
5941,1020,1073
5942,1021,1070
5943,1024,1070
5944,1026,1071
5945,1028,1070
5946,1027,1066
5947,1023,1061
5948,1018,1058
5949,1017,1059
5950,1019,1060
5951,1020,1057
5952,1017,1056
5953,1020,1053
5954,1019,1054
5955,1022,1055
5956,1025,1054
5957,1024,1057
5958,1024,1054
5959,1020,1056
5960,1019,1051
5961,1018,1058
5962,1020,1059
5963,1020,1056
5964,1019,1053
5965,1011,1055
5966,1010,1055
5967,1010,1056
5968,1012,1057
5969,1010,1057
5970,1014,1058
5971,1011,1055
5972,1010,1056
5973,1007,1060
5974,1004,1063
5975,999,1062
5976,993,1060
5977,985,1056
5978,976,1057
5979,973,1061
5980,969,1063
5981,964,1062
5982,960,1062
5983,957,1059
5984,953,1061
5985,954,1064
5986,955,1068
5987,957,1066
5988,952,1064
5989,950,1062
5990,948,1059
5991,948,1063
5992,951,1063
5993,952,1062
5994,949,1062
5995,947,1060
5996,947,1059
5997,948,1061
5998,949,1063
5999,950,1061
6000,951,1057
6001,948,1058
6002,947,1058
6003,949,1058
6004,950,1060
6005,953,1062
6006,951,1059
6007,950,1057
6008,950,1056
6009,950,1057
6010,951,1059
6011,953,1060
6012,954,1058
6013,952,1056
6014,950,1053
6015,952,1056
6016,956,1059
6017,956,1055
6018,957,1057
6019,954,1054
6020,955,1053
6021,955,1056
6022,958,1058
6023,958,1060
6024,956,1061
6025,950,1064
6026,946,1067
6027,942,1075
6028,943,1079
6029,942,1082
6030,948,1083
6031,963,1076
6032,984,1065
6033,1010,1055
6034,1035,1042
6035,1050,1021
6036,1060,1004
6037,1072,987
6038,1087,964
6039,1116,934
6040,1142,897
6041,1165,861
6042,1182,837
6043,1195,824
6044,1206,819
6045,1213,815
6046,1219,818
6047,1217,820
6048,1211,831
6049,1198,839
6050,1176,854
6051,1153,867
6052,1134,884
6053,1117,893
6054,1097,908
6055,1070,917
6056,1044,928
6057,1013,943
6058,979,953
6059,952,963
6060,921,969
6061,895,974
6062,875,980
6063,864,990
6064,856,998
6065,848,1002
6066,845,1009
6067,843,1010
6068,842,1016
6069,844,1021
6070,845,1029
6071,846,1034
6072,850,1037
6073,854,1043
6074,861,1048
6075,867,1055
6076,876,1063
6077,880,1068
6078,881,1071
6079,885,1072
6080,891,1079
6081,896,1080
6082,899,1086
6083,906,1085
6084,908,1087
6085,908,1086
6086,908,1089
6087,912,1091
6088,914,1093
6089,916,1090
6090,915,1090
6091,911,1090
6092,909,1090
6093,912,1095
6094,912,1097
6095,913,1095
6096,912,1092
6097,907,1093
6098,908,1095
6099,906,1098
6100,907,1103
6101,908,1100
6102,907,1100
6103,907,1099
6104,904,1096
6105,906,1103
6106,905,1106
6107,911,1102
6108,907,1103
6109,906,1102
6110,905,1104
6111,906,1106
6112,909,1107
6113,910,1107
6114,913,1107
6115,913,1104
6116,912,1105
6117,913,1109
6118,917,1111
6119,918,1109
6120,920,1107
6121,922,1105
6122,924,1102
6123,928,1107
6124,932,1109
6125,936,1109
6126,936,1103
6127,937,1103
6128,941,1102
6129,945,1104
6130,949,1104
6131,954,1102
6132,956,1101
6133,954,1098
6134,957,1099
6135,961,1099
6136,967,1099
6137,969,1095
6138,972,1095
6139,974,1093
6140,974,1092
6141,979,1091
6142,981,1093
6143,988,1091
6144,990,1085
6145,990,1083
6146,988,1080
6147,995,1083
6148,998,1084
6149,1003,1081
6150,1003,1078
6151,1006,1073
6152,1006,1075
6153,1011,1072
6154,1014,1075
6155,1019,1074
6156,1019,1070
6157,1020,1070
6158,1019,1069
6159,1022,1070
6160,1025,1070
6161,1028,1067
6162,1028,1062
6163,1026,1060
6164,1021,1056
6165,1020,1056
6166,1021,1053
6167,1021,1052
6168,1020,1051
6169,1021,1049
6170,1022,1049
6171,1024,1051
6172,1024,1054
6173,1026,1049
6174,1025,1049
6175,1021,1047
6176,1021,1047
6177,1021,1050
6178,1020,1051
6179,1019,1052
6180,1019,1048
6181,1014,1047
6182,1011,1049
6183,1011,1051
6184,1013,1053
6185,1013,1051
6186,1014,1052
6187,1011,1053
6188,1004,1052
6189,1001,1053
6190,998,1057
6191,991,1058
6192,983,1054
6193,977,1055
6194,968,1056
6195,963,1059
6196,960,1060
6197,956,1058
6198,953,1060
6199,951,1056
6200,950,1055
6201,949,1058
6202,950,1062
6203,948,1059
6204,947,1058
6205,947,1059
6206,942,1058
6207,944,1058
6208,944,1059
6209,945,1057
6210,946,1057
6211,945,1056
6212,941,1054
6213,944,1056
6214,945,1058
6215,946,1058
6216,945,1056
6217,945,1055
6218,943,1056
6219,946,1054
6220,947,1057
6221,950,1055
6222,948,1056
6223,946,1054
6224,943,1052
6225,945,1054
6226,949,1056
6227,951,1056
6228,949,1054
6229,949,1052
6230,947,1052
6231,949,1054
6232,951,1058
6233,952,1055
6234,947,1057
6235,945,1056
6236,939,1057
6237,937,1060
6238,935,1065
6239,928,1067
6240,925,1070
6241,914,1075
6242,907,1081
6243,903,1088
6244,902,1097
6245,904,1099
6246,917,1099
6247,937,1099
6248,969,1098
6249,1007,1093
6250,1043,1082
6251,1069,1074
6252,1081,1065
6253,1098,1051
6254,1128,1030
6255,1170,1002
6256,1216,972
6257,1259,948
6258,1297,938
6259,1324,937
6260,1335,943
6261,1321,946
6262,1293,955
6263,1252,966
6264,1202,979
6265,1151,992
6266,1090,1001
6267,1030,1015
6268,992,1024
6269,967,1030
6270,945,1031
6271,935,1032
6272,932,1035
6273,932,1039
6274,934,1044
6275,933,1041
6276,931,1042
6277,930,1042
6278,927,1041
6279,930,1041
6280,929,1046
6281,929,1045
6282,928,1044
6283,926,1042
6284,925,1043
6285,926,1044
6286,926,1044
6287,927,1044
6288,926,1044
6289,925,1043
6290,921,1043
6291,923,1044
6292,923,1046
6293,925,1044
6294,922,1042
6295,919,1041
6296,918,1040
6297,916,1043
6298,919,1042
6299,921,1041
6300,917,1040
6301,916,1040
6302,912,1038
6303,914,1039
6304,912,1040
6305,915,1041
6306,913,1038
6307,909,1038
6308,909,1035
6309,909,1036
6310,908,1040
6311,909,1037
6312,909,1037
6313,905,1035
6314,903,1034
6315,903,1036
6316,904,1038
6317,904,1036
6318,905,1034
6319,901,1032
6320,899,1031
6321,899,1036
6322,902,1036
6323,903,1033
6324,900,1029
6325,898,1029
6326,899,1031
6327,900,1029
6328,900,1033
6329,903,1033
6330,903,1031
6331,901,1029
6332,900,1029
6333,905,1030
6334,906,1031
6335,908,1032
6336,909,1028
6337,907,1026
6338,909,1025
6339,912,1029
6340,914,1031
6341,914,1030
6342,918,1028
6343,919,1027
6344,919,1025
6345,921,1028
6346,923,1031
6347,928,1026
6348,926,1028
6349,929,1024
6350,929,1024
6351,932,1028
6352,937,1029
6353,940,1029
6354,941,1031
6355,940,1028
6356,940,1028
6357,943,1032
6358,948,1034
6359,950,1033
6360,952,1031
6361,955,1032
6362,956,1031
6363,959,1036
6364,962,1035
6365,966,1037
6366,964,1034
6367,964,1036
6368,966,1036
6369,970,1041
6370,976,1040
6371,977,1040
6372,980,1039
6373,981,1037
6374,983,1041
6375,988,1044
6376,994,1046
6377,994,1046
6378,995,1044
6379,995,1040
6380,994,1042
6381,996,1043
6382,1000,1044
6383,999,1043
6384,996,1038
6385,996,1034
6386,994,1037
6387,994,1038
6388,998,1041
6389,1003,1041
6390,1004,1040
6391,1005,1039
6392,1002,1037
6393,1005,1039
6394,1007,1040
6395,1008,1040
6396,1006,1042
6397,1002,1041
6398,999,1039
6399,1000,1042
6400,1001,1042
6401,1002,1041
6402,999,1039
6403,999,1042
6404,1000,1041
6405,1000,1044
6406,1000,1048
6407,996,1048
6408,993,1046
6409,982,1044
6410,976,1044
6411,969,1048
6412,967,1051
6413,966,1051
6414,956,1049
6415,952,1050
6416,946,1051
6417,947,1051
6418,947,1053
6419,951,1052
6420,947,1053
6421,947,1049
6422,941,1048
6423,942,1051
6424,945,1052
6425,946,1052
6426,942,1051
6427,943,1048
6428,942,1050
6429,945,1052
6430,946,1051
6431,946,1050
6432,945,1049
6433,944,1045
6434,941,1047
6435,943,1049
6436,945,1052
6437,948,1050
6438,946,1047
6439,945,1047
6440,942,1047
6441,945,1049
6442,947,1049
6443,946,1048
6444,945,1046
6445,944,1045
6446,944,1048
6447,946,1049
6448,947,1051
6449,950,1049
6450,951,1047
6451,948,1045
6452,947,1045
6453,950,1048
6454,952,1049
6455,954,1049
6456,952,1049
6457,953,1049
6458,950,1051
6459,949,1056
6460,948,1065
6461,946,1068
6462,944,1071
6463,942,1074
6464,944,1075
6465,957,1075
6466,981,1074
6467,1010,1061
6468,1036,1048
6469,1061,1029
6470,1080,1009
6471,1095,994
6472,1109,981
6473,1130,957
6474,1158,928
6475,1179,892
6476,1199,858
6477,1218,836
6478,1238,818
6479,1252,807
6480,1258,806
6481,1256,802
6482,1254,806
6483,1243,816
6484,1235,829
6485,1218,839
6486,1188,851
6487,1157,862
6488,1128,876
6489,1111,892
6490,1091,904
6491,1068,913
6492,1038,920
6493,1006,931
6494,973,942
6495,945,951
6496,913,960
6497,887,967
6498,859,973
6499,840,975
6500,824,982
6501,816,993
6502,811,1001
6503,812,1005
6504,808,1007
6505,809,1011
6506,808,1016
6507,811,1023
6508,811,1031
6509,816,1037
6510,822,1040
6511,829,1042
6512,836,1048
6513,845,1053
6514,852,1062
6515,856,1065
6516,860,1066
6517,859,1068
6518,865,1073
6519,873,1078
6520,878,1082
6521,883,1083
6522,886,1084
6523,889,1081
6524,888,1082
6525,892,1085
6526,895,1089
6527,895,1084
6528,893,1087
6529,892,1084
6530,887,1084
6531,889,1085
6532,889,1091
6533,889,1091
6534,888,1093
6535,886,1090
6536,885,1090
6537,885,1092
6538,890,1094
6539,886,1094
6540,886,1091
6541,883,1090
6542,883,1093
6543,885,1094
6544,885,1097
6545,884,1096
6546,883,1097
6547,882,1098
6548,882,1098
6549,882,1101
6550,887,1104
6551,888,1103
6552,890,1102
6553,888,1100
6554,888,1101
6555,890,1104
6556,894,1104
6557,896,1104
6558,896,1104
6559,892,1102
6560,896,1103
6561,901,1102
6562,905,1104
6563,908,1105
6564,908,1104
6565,908,1101
6566,912,1102
6567,916,1101
6568,923,1102
6569,925,1100
6570,926,1100
6571,930,1095
6572,933,1095
6573,935,1097
6574,944,1099
6575,945,1095
6576,950,1091
6577,950,1090
6578,951,1092
6579,958,1091
6580,965,1092
6581,965,1089
6582,968,1083
6583,972,1086
6584,973,1083
6585,977,1083
6586,980,1085
6587,982,1081
6588,982,1080
6589,983,1075
6590,985,1074
6591,988,1075
6592,992,1076
6593,996,1075
6594,999,1072
6595,1001,1070
6596,1001,1069
6597,1003,1069
6598,1007,1068
6599,1010,1068
6600,1010,1065
6601,1008,1062
6602,1007,1062
6603,1010,1059
6604,1007,1059
6605,1007,1054
6606,1005,1052
6607,1003,1049
6608,1001,1049
6609,1003,1052
6610,1008,1051
6611,1011,1049
6612,1009,1048
6613,1006,1045
6614,1002,1048
6615,1003,1049
6616,1006,1051
6617,1006,1048
6618,1002,1047
6619,998,1046
6620,995,1048
6621,997,1049
6622,995,1051
6623,997,1051
6624,994,1050
6625,992,1048
6626,989,1051
6627,984,1053
6628,979,1056
6629,973,1056
6630,966,1057
6631,961,1054
6632,951,1055
6633,948,1058
6634,943,1060
6635,937,1059
6636,934,1060
6637,931,1057
6638,928,1056
6639,928,1060
6640,930,1061
6641,930,1060
6642,928,1058
6643,925,1058
6644,923,1055
6645,924,1058
6646,924,1060
6647,925,1060
6648,923,1056
6649,919,1055
6650,918,1057
6651,921,1058
6652,925,1060
6653,923,1059
6654,924,1059
6655,921,1056
6656,919,1058
6657,922,1059
6658,925,1060
6659,926,1059
6660,924,1056
6661,924,1054
6662,922,1056
6663,923,1056
6664,925,1057
6665,930,1056
6666,928,1055
6667,926,1053
6668,926,1052
6669,929,1056
6670,931,1058
6671,933,1059
6672,931,1057
6673,929,1055
6674,927,1057
6675,928,1059
6676,933,1067
6677,931,1072
6678,929,1075
6679,927,1079
6680,931,1083
6681,947,1081
6682,976,1075
6683,1007,1065
6684,1032,1052
6685,1053,1032
6686,1066,1016
6687,1076,1002
6688,1091,988
6689,1110,964
6690,1134,931
6691,1152,895
6692,1171,862
6693,1190,836
6694,1200,829
6695,1201,826
6696,1196,827
6697,1190,830
6698,1181,839
6699,1168,853
6700,1149,866
6701,1122,880
6702,1101,889
6703,1083,901
6704,1062,912
6705,1039,923
6706,1015,938
6707,985,945
6708,949,953
6709,917,964
6710,888,970
6711,864,979
6712,842,987
6713,828,995
6714,819,1001
6715,813,1001
6716,810,1010
6717,809,1016
6718,816,1021
6719,818,1029
6720,816,1030
6721,818,1033
6722,822,1041
6723,832,1050
6724,839,1055
6725,849,1062
6726,854,1061
6727,856,1067
6728,858,1070
6729,864,1073
6730,870,1079
6731,878,1081
6732,881,1081
6733,881,1082
6734,883,1084
6735,886,1086
6736,889,1088
6737,890,1088
6738,891,1085
6739,891,1084
6740,891,1086
6741,891,1088
6742,893,1089
6743,890,1090
6744,889,1090
6745,889,1086
6746,889,1087
6747,890,1090
6748,891,1093
6749,891,1094
6750,890,1091
6751,888,1090
6752,887,1089
6753,888,1095
6754,890,1096
6755,889,1099
6756,888,1095
6757,888,1096
6758,889,1096
6759,890,1097
6760,891,1102
6761,893,1102
6762,890,1099
6763,890,1100
6764,890,1102
6765,890,1102
6766,895,1104
6767,898,1103
6768,901,1100
6769,899,1100
6770,900,1100
6771,905,1103
6772,907,1103
6773,910,1101
6774,912,1098
6775,913,1097
6776,913,1098
6777,917,1099
6778,922,1102
6779,925,1098
6780,928,1096
6781,927,1092
6782,930,1095
6783,935,1094
6784,938,1096
6785,944,1094
6786,946,1091
6787,946,1089
6788,946,1087
6789,953,1090
6790,955,1089
6791,960,1088
6792,960,1086
6793,962,1083
6794,964,1084
6795,968,1080
6796,971,1083
6797,976,1080
6798,977,1078
6799,976,1076
6800,977,1074
6801,980,1074
6802,982,1076
6803,984,1073
6804,984,1070
6805,986,1068
6806,985,1068
6807,986,1065
6808,989,1066
6809,991,1065
6810,991,1064
6811,994,1062
6812,994,1062
6813,1000,1062
6814,1001,1061
6815,1002,1061
6816,1001,1058
6817,1002,1056
6818,1000,1055
6819,1001,1056
6820,1001,1054
6821,1003,1051
6822,999,1045
6823,996,1044
6824,993,1043
6825,996,1045
6826,999,1047
6827,1000,1047
6828,1001,1046
6829,1001,1043
6830,1001,1041
6831,1001,1045
6832,1002,1045
6833,999,1045
6834,1000,1045
6835,998,1043
6836,994,1046
6837,994,1047
6838,995,1049
6839,995,1048
6840,993,1047
6841,991,1046
6842,992,1048
6843,995,1051
6844,995,1053
6845,991,1055
6846,985,1053
6847,977,1053
6848,969,1052
6849,966,1057
6850,963,1055
6851,960,1056
6852,953,1054
6853,948,1054
6854,940,1055
6855,937,1058
6856,939,1060
6857,941,1060
6858,940,1058
6859,938,1055
6860,932,1054
6861,933,1059
6862,934,1060
6863,933,1059
6864,932,1056
6865,932,1053
6866,931,1052
6867,934,1055
6868,933,1058
6869,935,1057
6870,933,1055
6871,932,1052
6872,930,1052
6873,932,1054
6874,935,1056
6875,937,1054
6876,934,1051
6877,932,1049
6878,932,1051
6879,932,1055
6880,936,1056
6881,938,1053
6882,936,1051
6883,935,1051
6884,933,1051
6885,934,1053
6886,941,1054
6887,940,1051
6888,939,1049
6889,938,1047
6890,937,1049
6891,941,1051
6892,941,1053
6893,944,1053
6894,942,1053
6895,941,1052
6896,938,1058
6897,935,1063
6898,933,1071
6899,934,1076
6900,933,1078
6901,938,1074
6902,956,1068
6903,982,1064
6904,1011,1054
6905,1033,1035
6906,1050,1016
6907,1058,1000
6908,1067,982
6909,1089,962
6910,1115,933
6911,1142,893
6912,1163,857
6913,1181,832
6914,1194,817
6915,1204,814
6916,1208,815
6917,1210,818
6918,1204,820
6919,1196,830
6920,1180,841
6921,1159,856
6922,1137,870
6923,1120,883
6924,1102,893
6925,1083,904
6926,1055,916
6927,1026,928
6928,999,940
6929,967,951
6930,935,956
6931,905,961
6932,877,969
6933,861,978
6934,850,986
6935,841,995
6936,833,999
6937,827,1001
6938,825,1009
6939,828,1016
6940,830,1023
6941,834,1028
6942,836,1032
6943,840,1038
6944,847,1046
6945,856,1053
6946,864,1059
6947,870,1066
6948,872,1066
6949,874,1069
6950,881,1070
6951,887,1079
6952,892,1080
6953,895,1083
6954,899,1081
6955,900,1082
6956,898,1083
6957,900,1087
6958,902,1089
6959,906,1086
6960,902,1085
6961,903,1084
6962,902,1086
6963,903,1090
6964,902,1092
6965,901,1089
6966,901,1090
6967,899,1088
6968,896,1089
6969,898,1092
6970,899,1095
6971,901,1095
6972,900,1094
6973,897,1094
6974,895,1096
6975,899,1097
6976,899,1099
6977,900,1100
6978,900,1099
6979,900,1098
6980,897,1099
6981,901,1100
6982,905,1101
6983,908,1103
6984,906,1103
6985,905,1101
6986,907,1102
6987,910,1102
6988,915,1103
6989,917,1105
6990,918,1102
6991,920,1099
6992,919,1101
6993,926,1103
6994,929,1102
6995,933,1103
6996,936,1096
6997,938,1096
6998,937,1094
6999,942,1096
7000,948,1097
7001,950,1097
7002,954,1092
7003,955,1089
7004,955,1090
7005,963,1090
7006,966,1090
7007,968,1088
7008,970,1086
7009,972,1083
7010,975,1080
7011,983,1082
7012,984,1080
7013,990,1081
7014,987,1077
7015,991,1073
7016,992,1072
7017,997,1072
7018,1000,1069
7019,1000,1069
7020,1002,1062
7021,1003,1059
7022,1004,1058
7023,1006,1061
7024,1010,1063
7025,1012,1062
7026,1016,1059
7027,1016,1060
7028,1018,1058
7029,1017,1058
7030,1019,1060
7031,1023,1057
7032,1025,1053
7033,1021,1050
7034,1018,1049
7035,1020,1050
7036,1019,1047
7037,1016,1045
7038,1019,1044
7039,1018,1043
7040,1020,1042
7041,1023,1043
7042,1025,1044
7043,1025,1044
7044,1022,1045
7045,1018,1040
7046,1016,1042
7047,1013,1046
7048,1014,1047
7049,1014,1048
7050,1010,1049
7051,1007,1044
7052,1007,1047
7053,1007,1048
7054,1008,1049
7055,1007,1050
7056,1008,1048
7057,1004,1048
7058,998,1051
7059,1002,1052
7060,993,1053
7061,988,1052
7062,980,1052
7063,974,1052
7064,966,1051
7065,962,1053
7066,958,1054
7067,954,1054
7068,951,1055
7069,949,1053
7070,945,1055
7071,946,1059
7072,946,1058
7073,945,1057
7074,942,1055
7075,941,1054
7076,939,1058
7077,941,1055
7078,942,1057
7079,942,1057
7080,938,1055
7081,939,1053
7082,939,1052
7083,940,1054
7084,940,1056
7085,941,1056
7086,940,1052
7087,939,1049
7088,938,1051
7089,942,1051
7090,941,1055
7091,942,1053
7092,942,1050
7093,940,1050
7094,938,1049
7095,939,1052
7096,942,1052
7097,944,1052
7098,943,1049
7099,942,1048
7100,943,1049
7101,942,1050
7102,943,1049
7103,946,1050
7104,944,1048
7105,944,1047
7106,943,1045
7107,947,1048
7108,951,1051
7109,951,1052
7110,947,1051
7111,942,1052
7112,941,1060
7113,939,1066
7114,936,1073
7115,937,1075
7116,937,1076
7117,946,1071
7118,961,1066
7119,990,1061
7120,1018,1048
7121,1039,1027
7122,1053,1009
7123,1062,990
7124,1075,974
7125,1100,952
7126,1127,918
7127,1155,877
7128,1176,844
7129,1196,820
7130,1209,809
7131,1222,809
7132,1230,809
7133,1233,810
7134,1229,813
7135,1221,820
7136,1209,834
7137,1186,845
7138,1163,860
7139,1143,872
7140,1124,884
7141,1103,893
7142,1077,908
7143,1050,918
7144,1024,930
7145,992,940
7146,958,949
7147,924,958
7148,894,965
7149,872,972
7150,860,978
7151,849,986
7152,839,990
7153,833,996
7154,827,999
7155,830,1007
7156,833,1015
7157,834,1019
7158,831,1024
7159,832,1026
7160,837,1033
7161,848,1041
7162,858,1052
7163,862,1055
7164,868,1058
7165,871,1061
7166,873,1067
7167,880,1071
7168,886,1075
7169,892,1080
7170,893,1079
7171,898,1076
7172,898,1082
7173,901,1084
7174,903,1086
7175,905,1085
7176,907,1083
7177,904,1083
7178,903,1084
7179,903,1086
7180,905,1090
7181,905,1090
7182,902,1087
7183,903,1087
7184,902,1085
7185,902,1089
7186,901,1092
7187,901,1092
7188,900,1091
7189,897,1088
7190,895,1094
7191,899,1095
7192,899,1098
7193,899,1097
7194,900,1098
7195,896,1096
7196,897,1094
7197,898,1099
7198,902,1100
7199,901,1098
7200,901,1100
7201,900,1097
7202,903,1100
7203,904,1102
7204,906,1103
7205,908,1103
7206,911,1102
7207,909,1100
7208,909,1099
7209,913,1102
7210,917,1101
7211,921,1101
7212,923,1097
7213,923,1095
7214,925,1099
7215,927,1099
7216,933,1099
7217,938,1098
7218,939,1096
7219,943,1092
7220,943,1090
7221,951,1093
7222,953,1093
7223,956,1091
7224,960,1087
7225,960,1086
7226,962,1084
7227,969,1090
7228,975,1083
7229,975,1083
7230,979,1079
7231,982,1077
7232,981,1075
7233,985,1075
7234,989,1075
7235,992,1074
7236,992,1069
7237,992,1067
7238,993,1066
7239,999,1067
7240,998,1066
7241,1004,1066
7242,1002,1064
7243,1005,1061
7244,1004,1060
7245,1008,1058
7246,1013,1060
7247,1017,1058
7248,1017,1056
7249,1016,1054
7250,1016,1055
7251,1019,1057
7252,1021,1055
7253,1022,1054
7254,1021,1052
7255,1015,1046
7256,1015,1044
7257,1013,1043
7258,1013,1042
7259,1018,1044
7260,1015,1043
7261,1016,1040
7262,1018,1040
7263,1019,1041
7264,1022,1043
7265,1019,1043
7266,1016,1038
7267,1014,1037
7268,1012,1040
7269,1011,1045
7270,1011,1047
7271,1010,1047
7272,1007,1044
7273,1003,1044
7274,1003,1043
7275,1005,1044
7276,1006,1046
7277,1005,1045
7278,1005,1046
7279,1000,1043
7280,995,1046
7281,994,1048
7282,987,1050
7283,981,1049
7284,972,1047
7285,965,1043
7286,961,1047
7287,956,1050
7288,953,1051
7289,951,1050
7290,948,1048
7291,942,1048
7292,940,1050
7293,940,1054
7294,944,1053
7295,942,1053
7296,940,1051
7297,938,1048
7298,938,1049
7299,939,1052
7300,940,1049
7301,943,1050
7302,941,1049
7303,939,1046
7304,937,1048
7305,937,1050
7306,940,1047
7307,941,1047
7308,940,1048
7309,938,1046
7310,938,1049
7311,939,1048
7312,940,1048
7313,942,1050
7314,943,1048
7315,940,1043
7316,940,1044
7317,943,1049
7318,944,1049
7319,944,1048
7320,945,1043
7321,942,1043
7322,945,1043
7323,942,1048
7324,946,1048
7325,947,1045
7326,947,1045
7327,946,1041
7328,946,1046
7329,948,1046
7330,950,1045
7331,950,1047
7332,949,1048
7333,946,1048
7334,942,1052
7335,939,1060
7336,937,1064
7337,935,1071
7338,934,1070
7339,937,1071
7340,948,1067
7341,969,1062
7342,996,1056
7343,1020,1040
7344,1043,1023
7345,1058,1003
7346,1068,987
7347,1087,972
7348,1112,949
7349,1140,916
7350,1165,877
7351,1187,843
7352,1206,822
7353,1226,807
7354,1241,802
7355,1245,799
7356,1249,797
7357,1247,799
7358,1240,810
7359,1228,821
7360,1213,835
7361,1185,847
7362,1158,857
7363,1137,868
7364,1117,882
7365,1097,892
7366,1074,904
7367,1044,917
7368,1011,925
7369,977,933
7370,940,944
7371,911,953
7372,890,963
7373,870,967
7374,855,972
7375,842,977
7376,832,983
7377,827,991
7378,825,998
7379,826,1003
7380,826,1003
7381,828,1007
7382,826,1016
7383,827,1021
7384,830,1028
7385,837,1032
7386,844,1035
7387,850,1039
7388,857,1045
7389,862,1054
7390,866,1060
7391,871,1063
7392,873,1064
7393,877,1068
7394,883,1072
7395,888,1077
7396,894,1079
7397,898,1080
7398,895,1080
7399,898,1080
7400,898,1082
7401,902,1085
7402,905,1086
7403,907,1084
7404,903,1087
7405,904,1080
7406,899,1085
7407,901,1087
7408,902,1088
7409,902,1089
7410,901,1088
7411,899,1086
7412,900,1088
7413,900,1091
7414,899,1094
7415,900,1095
7416,900,1093
7417,894,1091
7418,895,1091
7419,897,1095
7420,899,1099
7421,899,1098
7422,898,1096
7423,897,1095
7424,896,1097
7425,898,1099
7426,899,1099
7427,901,1100
7428,899,1100
7429,899,1099
7430,899,1100
7431,902,1103
7432,905,1102
7433,904,1104
7434,906,1102
7435,908,1101
7436,909,1102
7437,912,1103
7438,915,1105
7439,918,1103
7440,919,1101
7441,920,1099
7442,921,1100
7443,925,1099
7444,931,1100
7445,933,1101
7446,934,1099
7447,937,1094
7448,939,1096
7449,945,1096
7450,949,1095
7451,952,1094
7452,958,1090
7453,957,1086
7454,959,1088
7455,965,1090
7456,969,1089
7457,971,1087
7458,973,1085
7459,975,1081
7460,978,1079
7461,983,1079
7462,987,1080
7463,989,1076
7464,993,1074
7465,991,1072
7466,994,1072
7467,999,1069
7468,1005,1071
7469,1005,1065
7470,1004,1063
7471,1004,1059
7472,1003,1062
7473,1009,1059
7474,1012,1059
7475,1012,1057
7476,1016,1055
7477,1017,1053
7478,1017,1052
7479,1021,1056
7480,1023,1055
7481,1022,1054
7482,1022,1053
7483,1020,1047
7484,1019,1044
7485,1020,1047
7486,1020,1047
7487,1016,1044
7488,1017,1039
7489,1016,1039
7490,1020,1037
7491,1023,1040
7492,1024,1041
7493,1024,1041
7494,1022,1039
7495,1020,1036
7496,1016,1039
7497,1014,1041
7498,1012,1041
7499,1011,1042
7500,1008,1043
7501,1006,1039
7502,1002,1040
7503,1005,1042
7504,1005,1042
7505,1003,1043
7506,1004,1043
7507,999,1041
7508,996,1043
7509,993,1045
7510,989,1047
7511,978,1045
7512,972,1044
7513,966,1043
7514,959,1045
7515,956,1048
7516,953,1051
7517,947,1051
7518,946,1050
7519,944,1047
7520,939,1048
7521,941,1049
7522,940,1052
7523,941,1049
7524,936,1046
7525,937,1046
7526,934,1046
7527,937,1048
7528,938,1047
7529,937,1048
7530,936,1046
7531,937,1044
7532,934,1046
7533,936,1047
7534,940,1048
7535,940,1048
7536,939,1047
7537,938,1043
7538,937,1046
7539,940,1046
7540,940,1048
7541,941,1046
7542,941,1045
7543,941,1042
7544,941,1046
7545,939,1044
7546,943,1047
7547,943,1045
7548,942,1044
7549,941,1041
7550,939,1043
7551,941,1046
7552,946,1047
7553,947,1045
7554,945,1045
7555,944,1041
7556,943,1043
7557,946,1046
7558,950,1050
7559,949,1050
7560,947,1051
7561,941,1051
7562,936,1058
7563,938,1067
7564,939,1071
7565,940,1074
7566,947,1071
7567,962,1067
7568,987,1060
7569,1016,1052
7570,1044,1039
7571,1065,1021
7572,1082,1001
7573,1094,983
7574,1107,969
7575,1131,949
7576,1155,923
7577,1179,891
7578,1200,858
7579,1219,829
7580,1239,810
7581,1255,802
7582,1265,802
7583,1267,802
7584,1264,803
7585,1255,808
7586,1241,821
7587,1228,832
7588,1205,845
7589,1174,858
7590,1143,870
7591,1118,882
7592,1094,894
7593,1073,907
7594,1044,919
7595,1012,931
7596,975,936
7597,941,945
7598,909,955
7599,883,964
7600,862,971
7601,844,978
7602,832,983
7603,819,987
7604,814,994
7605,816,998
7606,817,1004
7607,820,1011
7608,821,1015
7609,821,1016
7610,819,1023
7611,825,1029
7612,832,1036
7613,839,1043
7614,848,1043
7615,853,1047
7616,855,1053
7617,859,1059
7618,869,1063
7619,868,1068
7620,871,1070
7621,874,1070
7622,882,1075
7623,885,1078
7624,889,1080
7625,891,1080
7626,896,1080
7627,894,1077
7628,894,1083
7629,897,1083
7630,898,1084
7631,896,1083
7632,896,1083
7633,895,1082
7634,896,1083
7635,898,1084
7636,897,1086
7637,897,1084
7638,897,1086
7639,894,1083
7640,891,1085
7641,889,1091
7642,891,1092
7643,893,1090
7644,890,1089
7645,888,1088
7646,887,1092
7647,887,1094
7648,892,1093
7649,890,1093
7650,888,1091
7651,888,1091
7652,887,1095
7653,890,1096
7654,890,1098
7655,890,1099
7656,892,1097
7657,890,1095
7658,890,1097
7659,894,1100
7660,896,1100
7661,896,1099
7662,899,1098
7663,897,1094
7664,899,1100
7665,901,1099
7666,904,1099
7667,909,1099
7668,909,1097
7669,912,1094
7670,913,1095
7671,918,1095
7672,918,1096
7673,921,1098
7674,925,1094
7675,929,1091
7676,925,1092
7677,931,1093
7678,934,1094
7679,938,1094
7680,941,1090
7681,941,1087
7682,945,1088
7683,950,1088
7684,954,1088
7685,957,1087
7686,956,1085
7687,959,1081
7688,961,1080
7689,967,1080
7690,971,1083
7691,974,1083
7692,975,1078
7693,976,1076
7694,978,1075
7695,982,1075
7696,986,1076
7697,988,1072
7698,988,1069
7699,990,1066
7700,990,1065
7701,993,1066
7702,998,1065
7703,997,1064
7704,997,1060
7705,996,1057
7706,998,1059
7707,999,1058
7708,1003,1057
7709,1004,1057
7710,1004,1055
7711,1005,1052
7712,1008,1052
7713,1008,1054
7714,1011,1057
7715,1014,1054
7716,1013,1051
7717,1008,1050
7718,1009,1051
7719,1010,1049
7720,1012,1051
7721,1012,1050
7722,1005,1046
7723,1004,1044
7724,1001,1042
7725,1002,1043
7726,1005,1043
7727,1008,1044
7728,1010,1040
7729,1010,1039
7730,1008,1040
7731,1010,1043
7732,1011,1044
7733,1011,1044
7734,1007,1042
7735,1002,1041
7736,999,1043
7737,997,1046
7738,1001,1047
7739,999,1046
7740,998,1045
7741,995,1042
7742,993,1043
7743,994,1047
7744,996,1048
7745,995,1047
7746,993,1047
7747,987,1047
7748,983,1046
7749,983,1049
7750,978,1051
7751,971,1048
7752,966,1048
7753,958,1048
7754,953,1047
7755,950,1053
7756,946,1052
7757,945,1054
7758,943,1051
7759,937,1047
7760,937,1050
7761,936,1054
7762,935,1052
7763,936,1054
7764,931,1051
7765,932,1048
7766,930,1049
7767,932,1052
7768,937,1052
7769,936,1051
7770,935,1050
7771,934,1046
7772,933,1048
7773,935,1048
7774,936,1051
7775,937,1047
7776,937,1048
7777,935,1045
7778,936,1046
7779,934,1048
7780,937,1047
7781,939,1047
7782,937,1048
7783,936,1043
7784,936,1045
7785,937,1046
7786,941,1047
7787,939,1047
7788,939,1044
7789,939,1043
7790,941,1045
7791,942,1045
7792,942,1047
7793,943,1046
7794,944,1043
7795,942,1042
7796,943,1042
7797,946,1044
7798,948,1050
7799,947,1053
7800,945,1051
7801,940,1056
7802,937,1057
7803,937,1065
7804,941,1070
7805,944,1072
7806,951,1070
7807,967,1065
7808,992,1060
7809,1023,1051
7810,1049,1041
7811,1072,1023
7812,1087,1005
7813,1095,989
7814,1104,976
7815,1127,958
7816,1150,931
7817,1169,901
7818,1190,870
7819,1209,840
7820,1225,823
7821,1236,815
7822,1240,817
7823,1237,815
7824,1233,816
7825,1224,824
7826,1213,834
7827,1196,846
7828,1175,858
7829,1148,872
7830,1124,880
7831,1103,891
7832,1082,903
7833,1060,918
7834,1034,929
7835,1000,938
7836,965,946
7837,933,952
7838,905,963
7839,880,971
7840,859,977
7841,846,986
7842,835,991
7843,824,991
7844,823,999
7845,820,1005
7846,824,1013
7847,825,1016
7848,828,1018
7849,824,1021
7850,826,1029
7851,833,1036
7852,840,1042
7853,849,1046
7854,856,1050
7855,859,1050
7856,860,1057
7857,868,1062
7858,871,1066
7859,876,1069
7860,879,1070
7861,884,1073
7862,887,1076
7863,892,1077
7864,897,1082
7865,896,1081
7866,899,1080
7867,898,1080
7868,901,1079
7869,901,1081
7870,903,1082
7871,902,1083
7872,901,1080
7873,900,1080
7874,899,1080
7875,898,1083
7876,902,1083
7877,900,1085
7878,900,1083
7879,894,1082
7880,892,1083
7881,896,1086
7882,896,1088
7883,894,1088
7884,895,1088
7885,894,1087
7886,893,1088
7887,893,1091
7888,896,1095
7889,895,1093
7890,896,1090
7891,894,1090
7892,893,1092
7893,897,1094
7894,898,1094
7895,899,1096
7896,895,1094
7897,895,1091
7898,894,1094
7899,898,1097
7900,901,1096
7901,904,1097
7902,904,1094
7903,903,1097
7904,905,1095
7905,908,1098
7906,911,1100
7907,914,1097
7908,915,1095
7909,917,1095
7910,918,1093
7911,921,1098
7912,924,1097
7913,929,1095
7914,932,1091
7915,932,1091
7916,936,1091
7917,940,1091
7918,944,1092
7919,949,1091
7920,950,1088
7921,952,1084
7922,954,1084
7923,957,1085
7924,964,1084
7925,967,1084
7926,969,1083
7927,968,1080
7928,971,1080
7929,977,1080
7930,982,1079
7931,983,1080
7932,983,1076
7933,984,1070
7934,986,1074
7935,991,1073
7936,994,1073
7937,997,1069
7938,997,1066
7939,995,1063
7940,998,1065
7941,999,1063
7942,1002,1062
7943,1001,1061
7944,1002,1057
7945,1001,1055
7946,1001,1055
7947,1003,1057
7948,1007,1057
7949,1007,1055
7950,1006,1052
7951,1007,1049
7952,1008,1051
7953,1010,1050
7954,1012,1050
7955,1013,1051
7956,1014,1050
7957,1010,1049
7958,1008,1049
7959,1012,1049
7960,1013,1050
7961,1014,1047
7962,1010,1046
7963,1006,1042
7964,1004,1040
7965,1005,1042
7966,1007,1042
7967,1009,1040
7968,1008,1039
7969,1008,1039
7970,1009,1039
7971,1011,1043
7972,1014,1044
7973,1011,1043
7974,1012,1040
7975,1008,1038
7976,1007,1041
7977,1006,1043
7978,1005,1044
7979,1003,1044
7980,1003,1044
7981,999,1043
7982,996,1043
7983,999,1045
7984,1001,1046
7985,1003,1046
7986,1000,1045
7987,1000,1043
7988,992,1047
7989,992,1050
7990,991,1048
7991,984,1049
7992,975,1048
7993,969,1046
7994,963,1048
7995,961,1051
7996,957,1048
7997,952,1051
7998,948,1052
7999,943,1050
8000,940,1051
8001,941,1054
8002,942,1052
8003,941,1052
8004,940,1053
8005,937,1050
8006,937,1049
8007,938,1051
8008,938,1052
8009,939,1053
8010,937,1051
8011,935,1048
8012,938,1048
8013,938,1051
8014,939,1052
8015,940,1052
8016,937,1049
8017,933,1047
8018,935,1048
8019,938,1048
8020,939,1049
8021,939,1049
8022,940,1045
8023,940,1047
8024,941,1044
8025,942,1049
8026,944,1050
8027,944,1046
8028,943,1046
8029,940,1043
8030,939,1046
8031,940,1048
8032,944,1048
8033,945,1047
8034,944,1045
8035,944,1044
8036,943,1046
8037,946,1047
8038,949,1046
8039,950,1048
8040,947,1043
8041,946,1045
8042,947,1048
8043,948,1053
8044,946,1055
8045,942,1062
8046,940,1066
8047,936,1068
8048,938,1072
8049,940,1073
8050,955,1072
8051,972,1069
8052,993,1058
8053,1014,1048
8054,1035,1034
8055,1055,1021
8056,1069,1004
8057,1077,989
8058,1095,968
8059,1120,939
8060,1144,904
8061,1172,872
8062,1192,843
8063,1208,823
8064,1221,813
8065,1226,807
8066,1229,808
8067,1226,812
8068,1226,825
8069,1215,835
8070,1194,845
8071,1164,856
8072,1140,872
8073,1122,886
8074,1107,896
8075,1082,908
8076,1052,918
8077,1023,930
8078,989,940
8079,955,952
8080,927,960
8081,899,968
8082,874,973
8083,860,977
8084,849,985
8085,843,994
8086,841,1002
8087,836,1006
8088,839,1007
8089,839,1012
8090,837,1019
8091,839,1026
8092,839,1031
8093,847,1035
8094,851,1038
8095,856,1043
8096,861,1049
8097,869,1055
8098,876,1063
8099,879,1064
8100,883,1068
8101,882,1071
8102,889,1074
8103,894,1079
8104,900,1082
8105,905,1083
8106,904,1083
8107,903,1080
8108,905,1082
8109,907,1084
8110,908,1085
8111,912,1085
8112,908,1086
8113,906,1082
8114,905,1085
8115,906,1088
8116,909,1092
8117,906,1091
8118,904,1088
8119,901,1088
8120,902,1093
8121,902,1092
8122,905,1093
8123,904,1094
8124,901,1091
8125,900,1093
8126,898,1094
8127,900,1096
8128,901,1101
8129,900,1099
8130,900,1098
8131,898,1097
8132,899,1100
8133,902,1102
8134,904,1102
8135,905,1104
8136,905,1102
8137,905,1102
8138,905,1102
8139,909,1105
8140,913,1108
8141,912,1106
8142,917,1104
8143,914,1102
8144,919,1102
8145,921,1104
8146,925,1106
8147,927,1104
8148,928,1102
8149,929,1097
8150,932,1098
8151,937,1100
8152,942,1102
8153,945,1101
8154,947,1097
8155,945,1095
8156,952,1095
8157,956,1099
8158,962,1096
8159,965,1096
8160,968,1090
8161,968,1088
8162,971,1088
8163,977,1089
8164,982,1088
8165,985,1084
8166,985,1084
8167,985,1079
8168,988,1080
8169,994,1080
8170,996,1080
8171,998,1080
8172,998,1074
8173,999,1070
8174,999,1072
8175,1002,1072
8176,1008,1069
8177,1006,1069
8178,1007,1064
8179,1004,1061
8180,1005,1063
8181,1008,1063
8182,1011,1063
8183,1011,1060
8184,1009,1057
8185,1010,1055
8186,1009,1056
8187,1014,1059
8188,1017,1059
8189,1017,1059
8190,1019,1057
8191,1015,1055
8192,1015,1056
8193,1016,1057
8194,1018,1054
8195,1017,1054
8196,1016,1051
8197,1014,1046
8198,1014,1046
8199,1018,1049
8200,1022,1049
8201,1022,1050
8202,1020,1049
8203,1019,1049
8204,1018,1050
8205,1018,1050
8206,1020,1052
8207,1019,1052
8208,1010,1053
8209,1008,1050
8210,1007,1054
8211,1009,1053
8212,1012,1054
8213,1013,1054
8214,1010,1052
8215,1007,1053
8216,1005,1057
8217,1003,1057
8218,999,1058
8219,994,1060
8220,985,1055
8221,980,1055
8222,972,1056
8223,967,1058
8224,964,1059
8225,958,1060
8226,954,1057
8227,950,1056
8228,948,1060
8229,947,1060
8230,950,1062
8231,949,1060
8232,945,1059
8233,944,1055
8234,943,1057
8235,944,1061
8236,946,1060
8237,945,1061
8238,945,1056
8239,943,1055
8240,943,1055
8241,944,1058
8242,946,1057
8243,947,1059
8244,945,1056
8245,944,1054
8246,945,1055
8247,949,1055
8248,949,1058
8249,949,1056
8250,947,1055
8251,948,1054
8252,946,1053
8253,948,1056
8254,952,1054
8255,951,1056
8256,951,1052
8257,949,1051
8258,949,1051
8259,952,1054
8260,952,1054
8261,951,1054
8262,952,1052
8263,953,1049
8264,952,1054
8265,954,1055
8266,957,1057
8267,956,1057
8268,955,1058
8269,954,1058
8270,948,1060
8271,945,1071
8272,944,1076
8273,943,1081
8274,942,1081
8275,950,1079
8276,966,1073
8277,994,1067
8278,1021,1056
8279,1047,1039
8280,1063,1019
8281,1074,1001
8282,1088,983
8283,1114,962
8284,1144,929
8285,1171,890
8286,1192,855
8287,1211,828
8288,1230,819
8289,1244,816
8290,1255,815
8291,1257,814
8292,1255,813
8293,1248,823
8294,1236,834
8295,1220,851
8296,1193,860
8297,1168,873
8298,1146,885
8299,1126,894
8300,1104,907
8301,1080,923
8302,1050,932
8303,1017,941
8304,981,952
8305,946,958
8306,912,971
8307,889,977
8308,872,984
8309,859,990
8310,846,999
8311,839,998
8312,835,1007
8313,836,1013
8314,839,1021
8315,840,1023
8316,840,1029
8317,838,1033
8318,838,1038
8319,848,1046
8320,857,1054
8321,867,1057
8322,870,1061
8323,873,1064
8324,876,1070
8325,883,1078
8326,889,1083
8327,893,1086
8328,896,1085
8329,898,1087
8330,900,1090
8331,903,1093
8332,909,1096
8333,910,1095
8334,909,1094
8335,907,1095
8336,907,1097
8337,908,1098
8338,911,1099
8339,906,1100
8340,907,1099
8341,905,1099
8342,903,1100
8343,908,1100
8344,908,1106
8345,908,1105
8346,905,1104
8347,904,1103
8348,902,1103
8349,904,1109
8350,903,1110
8351,903,1110
8352,902,1108
8353,901,1107
8354,900,1109
8355,903,1112
8356,904,1115
8357,903,1114
8358,903,1115
8359,899,1112
8360,900,1116
8361,901,1117
8362,907,1119
8363,908,1117
8364,907,1118
8365,907,1114
8366,908,1116
8367,913,1118
8368,917,1119
8369,919,1118
8370,918,1117
8371,919,1113
8372,922,1114
8373,928,1119
8374,930,1117
8375,932,1116
8376,936,1112
8377,938,1111
8378,942,1113
8379,946,1111
8380,952,1112
8381,951,1110
8382,957,1107
8383,958,1107
8384,961,1106
8385,968,1106
8386,971,1104
8387,974,1102
8388,975,1101
8389,976,1098
8390,979,1100
8391,985,1100
8392,987,1099
8393,992,1096
8394,994,1092
8395,995,1090
8396,996,1088
8397,1001,1092
8398,1003,1089
8399,1000,1088
8400,1002,1081
8401,1003,1081
8402,1002,1083
8403,1009,1081
8404,1010,1082
8405,1010,1075
8406,1009,1074
8407,1011,1072
8408,1009,1073
8409,1010,1073
8410,1010,1073
8411,1011,1073
8412,1014,1071
8413,1014,1071
8414,1015,1071
8415,1018,1074
8416,1019,1074
8417,1018,1071
8418,1014,1069
8419,1012,1068
8420,1012,1067
8421,1015,1069
8422,1017,1067
8423,1016,1065
8424,1016,1062
8425,1016,1061
8426,1018,1063
8427,1019,1065
8428,1021,1066
8429,1019,1066
8430,1016,1064
8431,1013,1064
8432,1008,1064
8433,1007,1069
8434,1009,1070
8435,1008,1068
8436,1006,1065
8437,1003,1065
8438,1004,1067
8439,1005,1070
8440,1005,1073
8441,1001,1070
8442,996,1069
8443,986,1069
8444,978,1072
8445,974,1076
8446,969,1073
8447,963,1076
8448,958,1072
8449,952,1070
8450,946,1073
8451,945,1076
8452,947,1075
8453,948,1073
8454,945,1072
8455,943,1070
8456,941,1072
8457,943,1072
8458,943,1072
8459,945,1074
8460,945,1070
8461,942,1069
8462,941,1070
8463,943,1072
8464,945,1074
8465,947,1071
8466,945,1071
8467,944,1068
8468,944,1069
8469,943,1070
8470,946,1071
8471,945,1070
8472,946,1067
8473,943,1067
8474,943,1067
8475,948,1071
8476,950,1067
8477,948,1070
8478,947,1069
8479,948,1066
8480,946,1068
8481,951,1066
8482,952,1068
8483,954,1068
8484,951,1068
8485,951,1064
8486,953,1065
8487,955,1067
8488,958,1068
8489,956,1071
8490,955,1070
8491,949,1075
8492,947,1080
8493,945,1089
8494,945,1094
8495,948,1096
8496,955,1093
8497,973,1084
8498,999,1077
8499,1029,1064
8500,1057,1045
8501,1076,1024
8502,1091,1004
8503,1108,982
8504,1136,954
8505,1168,918
8506,1196,879
8507,1221,847
8508,1238,829
8509,1251,821
8510,1259,819
8511,1266,821
8512,1265,828
8513,1258,836
8514,1244,844
8515,1218,857
8516,1185,874
8517,1156,891
8518,1134,907
8519,1112,915
8520,1082,928
8521,1047,939
8522,1008,952
8523,972,965
8524,941,973
8525,908,983
8526,880,985
8527,862,989
8528,849,999
8529,843,1008
8530,836,1013
8531,834,1019
8532,833,1021
8533,833,1026
8534,833,1033
8535,835,1043
8536,837,1049
8537,841,1054
8538,851,1059
8539,857,1061
8540,863,1069
8541,869,1077
8542,878,1084
8543,880,1085
8544,884,1089
8545,890,1093
8546,893,1096
8547,902,1101
8548,906,1105
8549,909,1105
8550,907,1105
8551,908,1103
8552,909,1107
8553,911,1109
8554,914,1107
8555,913,1107
8556,909,1107
8557,907,1104
8558,906,1107
8559,907,1110
8560,911,1111
8561,909,1112
8562,906,1107
8563,905,1110
8564,902,1112
8565,903,1116
8566,904,1116
8567,905,1117
8568,903,1115
8569,900,1114
8570,899,1117
8571,901,1119
8572,904,1121
8573,901,1122
8574,901,1119
8575,898,1121
8576,899,1123
8577,903,1125
8578,907,1125
8579,908,1123
8580,906,1124
8581,902,1124
8582,905,1124
8583,911,1124
8584,914,1127
8585,913,1126
8586,914,1125
8587,916,1124
8588,919,1124
8589,921,1124
8590,926,1128
8591,932,1125
8592,931,1123
8593,936,1120
8594,940,1121
8595,944,1122
8596,950,1120
8597,953,1119
8598,952,1115
8599,956,1113
8600,960,1116
8601,963,1116
8602,968,1115
8603,969,1112
8604,972,1110
8605,976,1107
8606,976,1107
8607,983,1106
8608,986,1107
8609,989,1105
8610,990,1099
8611,989,1099
8612,994,1097
8613,998,1099
8614,1002,1095
8615,1003,1093
8616,1005,1090
8617,1004,1088
8618,1004,1087
8619,1007,1087
8620,1013,1086
8621,1013,1085
8622,1013,1083
8623,1011,1080
8624,1009,1076
8625,1012,1077
8626,1016,1077
8627,1015,1076
8628,1014,1072
8629,1013,1072
8630,1012,1073
8631,1016,1076
8632,1017,1075
8633,1022,1076
8634,1020,1076
8635,1019,1074
8636,1016,1075
8637,1020,1075
8638,1022,1076
8639,1020,1072
8640,1018,1070
8641,1018,1068
8642,1014,1068
8643,1019,1069
8644,1022,1069
8645,1020,1067
8646,1020,1064
8647,1021,1064
8648,1020,1065
8649,1020,1068
8650,1025,1071
8651,1017,1069
8652,1015,1066
8653,1012,1067
8654,1008,1071
8655,1010,1072
8656,1012,1072
8657,1011,1071
8658,1009,1071
8659,1007,1067
8660,1007,1072
8661,1007,1073
8662,1006,1078
8663,1001,1074
8664,993,1073
8665,987,1072
8666,978,1073
8667,975,1072
8668,973,1075
8669,967,1075
8670,961,1074
8671,957,1071
8672,952,1075
8673,954,1076
8674,953,1072
8675,953,1075
8676,949,1073
8677,948,1072
8678,946,1073
8679,948,1076
8680,951,1076
8681,950,1073
8682,949,1071
8683,948,1071
8684,948,1073
8685,951,1075
8686,952,1073
8687,950,1073
8688,952,1072
8689,949,1070
8690,948,1070
8691,951,1072
