'sample #','MLII','V1'
0,1017,1031
1,1017,1031
2,1017,1031
3,1017,1031
4,1017,1031
5,1017,1031
6,1017,1031
7,1017,1031
8,1017,1031
9,1017,1036
10,1020,1041
11,1016,1038
12,1011,1033
13,1008,1026
14,1004,1026
15,1006,1027
16,1008,1025
17,1003,1024
18,1005,1019
19,999,1013
20,997,1015
21,999,1016
22,1001,1019
23,1003,1019
24,1000,1019
25,998,1018
26,999,1022
27,1000,1022
28,1003,1025
29,1004,1024
30,1001,1023
31,999,1019
32,998,1023
33,998,1025
34,1001,1027
35,1001,1028
36,1002,1024
37,999,1025
38,998,1027
39,1000,1031
40,1003,1031
41,1003,1032
42,1006,1027
43,999,1027
44,997,1029
45,1000,1030
46,1004,1034
47,1002,1031
48,1001,1031
49,1000,1029
50,1001,1032
51,1002,1034
52,1006,1035
53,1007,1034
54,1005,1032
55,1000,1033
56,999,1032
57,1000,1032
58,1002,1036
59,1004,1033
60,1001,1030
61,997,1028
62,997,1029
63,996,1034
64,1002,1035
65,998,1034
66,997,1030
67,994,1024
68,996,1026
69,997,1028
70,998,1031
71,996,1029
72,997,1029
73,995,1026
74,995,1027
75,997,1031
76,1000,1031
77,999,1031
78,998,1027
79,995,1027
80,995,1029
81,999,1034
82,999,1036
83,997,1031
84,998,1029
85,995,1028
86,993,1030
87,994,1034
88,997,1033
89,997,1030
90,996,1024
91,992,1023
92,991,1027
93,994,1033
94,995,1038
95,997,1036
96,994,1034
97,995,1035
98,994,1035
99,996,1039
100,999,1041
101,1000,1039
102,1000,1038
103,1000,1037
104,1001,1039
105,1001,1040
106,1006,1040
107,1010,1035
108,1009,1028
109,1006,1024
110,1006,1029
111,1009,1028
112,1011,1033
113,1009,1032
114,1010,1028
115,1002,1023
116,1005,1023
117,1004,1025
118,1007,1023
119,1008,1023
120,1005,1019
121,999,1018
122,996,1013
123,999,1013
124,998,1014
125,999,1015
126,994,1016
127,993,1016
128,991,1018
129,995,1019
130,994,1023
131,995,1024
132,989,1025
133,985,1024
134,983,1027
135,986,1032
136,987,1034
137,987,1031
138,984,1026
139,983,1024
140,980,1026
141,983,1032
142,987,1034
143,985,1033
144,979,1029
145,981,1031
146,978,1030
147,980,1034
148,980,1035
149,980,1035
150,978,1030
151,977,1029
152,975,1031
153,977,1033
154,981,1035
155,979,1034
156,978,1033
157,975,1029
158,974,1028
159,976,1032
160,977,1033
161,981,1034
162,978,1032
163,974,1030
164,976,1031
165,978,1029
166,980,1028
167,981,1029
168,979,1027
169,976,1026
170,975,1027
171,978,1031
172,980,1035
173,983,1030
174,985,1020
175,987,998
176,989,978
177,997,952
178,1006,926
179,1017,896
180,1030,868
181,1046,848
182,1060,838
183,1068,839
184,1068,843
185,1061,839
186,1041,836
187,1017,839
188,1005,844
189,1005,855
190,1019,865
191,1041,870
192,1065,874
193,1092,878
194,1120,885
195,1143,891
196,1158,896
197,1160,901
198,1142,910
199,1115,919
200,1091,938
201,1070,956
202,1052,969
203,1031,979
204,1006,989
205,984,999
206,964,1014
207,946,1034
208,935,1047
209,927,1053
210,922,1054
211,925,1055
212,933,1059
213,939,1063
214,948,1065
215,957,1066
216,958,1068
217,960,1067
218,958,1068
219,962,1074
220,961,1076
221,964,1074
222,962,1071
223,961,1070
224,960,1072
225,966,1077
226,967,1078
227,970,1077
228,969,1076
229,965,1076
230,965,1077
231,967,1081
232,967,1084
233,968,1082
234,969,1080
235,965,1079
236,966,1082
237,969,1087
238,973,1092
239,975,1093
240,978,1095
241,972,1091
242,972,1090
243,974,1091
244,977,1090
245,977,1089
246,977,1089
247,975,1090
248,975,1092
249,980,1098
250,985,1101
251,989,1097
252,988,1098
253,988,1097
254,990,1100
255,993,1101
256,996,1103
257,1000,1101
258,999,1101
259,1000,1101
260,1001,1101
261,1004,1104
262,1010,1104
263,1009,1102
264,1015,1099
265,1014,1093
266,1015,1097
267,1023,1095
268,1027,1093
269,1029,1088
270,1030,1081
271,1030,1073
272,1032,1069
273,1036,1070
274,1041,1069
275,1042,1064
276,1040,1057
277,1040,1051
278,1040,1049
279,1046,1046
280,1049,1045
281,1052,1041
282,1050,1034
283,1047,1032
284,1042,1032
285,1042,1035
286,1041,1035
287,1036,1036
288,1030,1034
289,1021,1035
290,1016,1031
291,1012,1035
292,1008,1038
293,1005,1037
294,1001,1034
295,994,1031
296,989,1029
297,989,1029
298,991,1034
299,990,1034
300,987,1030
301,983,1029
302,977,1028
303,980,1032
304,981,1037
305,983,1036
306,980,1034
307,975,1031
308,976,1032
309,978,1036
310,978,1033
311,979,1036
312,975,1033
313,969,1030
314,973,1031
315,975,1033
316,976,1038
317,977,1037
318,977,1033
319,975,1033
320,971,1031
321,974,1035
322,975,1037
323,977,1037
324,975,1035
325,972,1034
326,973,1037
327,976,1039
328,979,1042
329,975,1038
330,976,1037
331,974,1037
332,974,1037
333,972,1041
334,977,1044
335,977,1043
336,977,1040
337,976,1040
338,975,1037
339,973,1040
340,976,1042
341,976,1042
342,976,1038
343,975,1035
344,972,1034
345,977,1035
346,980,1038
347,979,1040
348,975,1041
349,972,1039
350,973,1040
351,978,1042
352,978,1039
353,982,1038
354,978,1038
355,974,1035
356,972,1037
357,973,1043
358,975,1042
359,978,1039
360,977,1036
361,976,1035
362,974,1036
363,975,1039
364,976,1041
365,973,1040
366,973,1037
367,973,1037
368,969,1036
369,972,1043
370,975,1043
371,976,1039
372,972,1037
373,970,1034
374,971,1034
375,971,1038
376,974,1041
377,975,1042
378,972,1041
379,967,1040
380,970,1044
381,973,1048
382,977,1051
383,979,1048
384,979,1044
385,976,1043
386,977,1046
387,980,1048
388,981,1050
389,981,1048
390,978,1048
391,975,1044
392,976,1041
393,980,1043
394,986,1044
395,989,1042
396,985,1039
397,988,1033
398,988,1033
399,990,1035
400,990,1036
401,989,1033
402,984,1030
403,982,1025
404,980,1023
405,981,1026
406,981,1027
407,982,1029
408,982,1028
409,978,1027
410,978,1029
411,978,1030
412,980,1029
413,979,1025
414,974,1023
415,970,1024
416,968,1025
417,969,1031
418,970,1037
419,971,1037
420,969,1038
421,966,1034
422,962,1035
423,961,1036
424,963,1035
425,967,1035
426,965,1035
427,966,1032
428,966,1034
429,965,1037
430,968,1043
431,967,1040
432,964,1036
433,964,1032
434,961,1037
435,962,1039
436,961,1039
437,959,1039
438,960,1034
439,959,1033
440,957,1035
441,959,1038
442,964,1042
443,964,1038
444,963,1037
445,962,1035
446,958,1041
447,963,1046
448,963,1046
449,966,1042
450,963,1037
451,961,1034
452,962,1033
453,962,1037
454,964,1037
455,967,1036
456,965,1032
457,965,1029
458,964,1029
459,961,1033
460,968,1038
461,973,1036
462,972,1031
463,973,1018
464,974,1002
465,984,984
466,995,967
467,1004,940
468,1014,917
469,1027,894
470,1040,878
471,1053,869
472,1066,863
473,1070,863
474,1064,861
475,1051,858
476,1040,859
477,1020,860
478,1009,867
479,1005,876
480,1009,879
481,1016,882
482,1033,891
483,1055,898
484,1081,906
485,1100,910
486,1116,912
487,1124,914
488,1124,918
489,1121,928
490,1109,941
491,1091,948
492,1073,960
493,1056,964
494,1041,980
495,1029,992
496,1016,1005
497,999,1015
498,983,1026
499,966,1032
500,952,1042
501,940,1051
502,937,1056
503,933,1058
504,930,1059
505,930,1060
506,936,1063
507,943,1069
508,950,1071
509,953,1071
510,954,1070
511,953,1068
512,952,1072
513,954,1075
514,960,1077
515,957,1080
516,957,1077
517,952,1079
518,955,1080
519,958,1080
520,959,1083
521,958,1081
522,957,1076
523,957,1076
524,956,1075
525,957,1081
526,958,1083
527,960,1083
528,962,1081
529,956,1081
530,957,1082
531,960,1086
532,963,1088
533,965,1089
534,962,1089
535,959,1088
536,962,1088
537,962,1093
538,966,1095
539,968,1096
540,968,1092
541,967,1093
542,966,1096
543,969,1099
544,971,1104
545,974,1100
546,974,1099
547,974,1096
548,973,1101
549,980,1105
550,984,1108
551,988,1109
552,985,1106
553,986,1104
554,982,1105
555,988,1110
556,993,1112
557,999,1113
558,996,1110
559,999,1106
560,1000,1108
561,1003,1111
562,1007,1110
563,1009,1106
564,1009,1100
565,1009,1093
566,1010,1090
567,1015,1091
568,1016,1091
569,1018,1087
570,1022,1084
571,1021,1079
572,1025,1075
573,1030,1077
574,1036,1070
575,1036,1066
576,1037,1061
577,1036,1054
578,1037,1053
579,1043,1053
580,1049,1053
581,1047,1050
582,1050,1045
583,1050,1043
584,1046,1041
585,1048,1044
586,1047,1042
587,1045,1044
588,1041,1039
589,1033,1038
590,1030,1040
591,1026,1040
592,1026,1041
593,1023,1039
594,1019,1037
595,1009,1035
596,1006,1039
597,1003,1039
598,1001,1039
599,1001,1039
600,994,1038
601,994,1035
602,989,1036
603,988,1039
604,989,1043
605,988,1041
606,986,1038
607,982,1038
608,981,1038
609,985,1039
610,987,1040
611,988,1039
612,985,1036
613,981,1038
614,978,1038
615,980,1042
616,982,1041
617,982,1036
618,979,1033
619,981,1031
620,978,1037
621,980,1038
622,983,1042
623,986,1039
624,984,1037
625,985,1036
626,984,1039
627,983,1040
628,987,1041
629,985,1041
630,985,1038
631,983,1034
632,982,1038
633,983,1041
634,987,1045
635,990,1044
636,986,1043
637,983,1039
638,985,1040
639,988,1043
640,989,1045
641,990,1044
642,986,1042
643,985,1040
644,981,1038
645,986,1042
646,987,1042
647,986,1042
648,985,1040
649,985,1040
650,985,1039
651,984,1043
652,988,1044
653,990,1044
654,987,1041
655,982,1039
656,984,1040
657,984,1047
658,990,1048
659,991,1048
660,984,1043
661,982,1039
662,982,1040
663,985,1042
664,990,1044
665,988,1045
666,986,1038
667,984,1037
668,981,1038
669,983,1042
670,985,1042
671,987,1042
672,984,1038
673,982,1036
674,982,1037
675,983,1040
676,984,1043
677,985,1042
678,983,1037
679,980,1040
680,981,1039
681,983,1042
682,982,1044
683,987,1043
684,985,1040
685,982,1038
686,981,1037
687,982,1042
688,985,1045
689,986,1045
690,981,1045
691,982,1046
692,981,1045
693,986,1050
694,988,1052
695,991,1049
696,990,1049
697,986,1046
698,988,1047
699,990,1051
700,992,1052
701,995,1050
702,994,1047
703,994,1043
704,995,1042
705,993,1043
706,1000,1045
707,1001,1043
708,1003,1037
709,1003,1033
710,1001,1034
711,1003,1033
712,1002,1038
713,1005,1035
714,1002,1033
715,999,1030
716,998,1030
717,995,1031
718,997,1032
719,998,1030
720,995,1025
721,992,1024
722,991,1025
723,991,1031
724,994,1031
725,993,1031
726,991,1031
727,989,1027
728,985,1030
729,985,1029
730,988,1033
731,987,1033
732,984,1034
733,985,1034
734,982,1038
735,983,1042
736,983,1043
737,980,1043
738,979,1041
739,981,1037
740,976,1034
741,979,1034
742,982,1039
743,980,1040
744,976,1038
745,974,1036
746,975,1036
747,979,1040
748,979,1042
749,980,1040
750,978,1038
751,974,1037
752,974,1037
753,975,1039
754,977,1042
755,981,1040
756,980,1038
757,976,1037
758,975,1037
759,978,1040
760,978,1045
761,981,1041
762,979,1038
763,979,1037
764,976,1037
765,979,1038
766,983,1041
767,980,1040
768,980,1035
769,980,1037
770,978,1036
771,981,1038
772,984,1040
773,986,1040
774,983,1038
775,982,1037
776,983,1037
777,987,1034
778,994,1022
779,996,997
780,999,970
781,999,946
782,1010,925
783,1023,905
784,1034,887
785,1050,867
786,1059,856
787,1068,850
788,1070,853
789,1068,855
790,1061,855
791,1048,850
792,1027,851
793,1014,859
794,1014,869
795,1027,877
796,1048,883
797,1072,889
798,1100,889
799,1122,893
800,1142,896
801,1161,904
802,1173,912
803,1174,916
804,1160,921
805,1137,930
806,1115,939
807,1099,956
808,1082,965
809,1066,974
810,1048,980
811,1025,988
812,1002,1004
813,984,1018
814,969,1032
815,954,1038
816,940,1046
817,933,1050
818,928,1058
819,929,1066
820,937,1069
821,944,1069
822,950,1068
823,956,1065
824,959,1065
825,963,1072
826,970,1077
827,972,1076
828,973,1076
829,972,1073
830,968,1073
831,973,1075
832,974,1079
833,975,1078
834,976,1076
835,974,1076
836,974,1079
837,976,1081
838,979,1084
839,981,1085
840,977,1083
841,976,1082
842,975,1085
843,977,1085
844,981,1091
845,982,1092
846,980,1087
847,977,1089
848,978,1090
849,979,1091
850,981,1095
851,985,1095
852,987,1095
853,984,1093
854,986,1097
855,986,1097
856,990,1099
857,991,1097
858,991,1099
859,989,1095
860,988,1100
861,991,1102
862,996,1106
863,999,1103
864,998,1100
865,997,1098
866,1000,1101
867,1002,1104
868,1005,1110
869,1008,1110
870,1009,1107
871,1007,1106
872,1010,1107
873,1013,1109
874,1016,1113
875,1018,1111
876,1021,1107
877,1019,1104
878,1019,1106
879,1024,1106
880,1028,1109
881,1033,1104
882,1033,1102
883,1031,1098
884,1031,1095
885,1038,1095
886,1041,1096
887,1044,1091
888,1047,1084
889,1046,1079
890,1046,1075
891,1048,1073
892,1054,1071
893,1056,1065
894,1058,1061
895,1058,1056
896,1059,1055
897,1062,1051
898,1062,1051
899,1066,1045
900,1069,1040
901,1064,1037
902,1063,1036
903,1063,1039
904,1065,1042
905,1062,1041
906,1058,1039
907,1049,1038
908,1046,1038
909,1043,1041
910,1040,1044
911,1040,1040
912,1033,1037
913,1027,1037
914,1021,1037
915,1017,1039
916,1017,1041
917,1016,1039
918,1008,1038
919,1005,1038
920,1005,1038
921,1006,1043
922,1004,1042
923,1005,1040
924,1004,1037
925,998,1033
926,998,1034
927,999,1037
928,999,1039
929,999,1038
930,997,1035
931,995,1035
932,993,1036
933,994,1041
934,996,1042
935,998,1040
936,995,1039
937,994,1038
938,995,1041
939,993,1041
940,995,1043
941,1000,1044
942,995,1039
943,993,1040
944,991,1040
945,994,1041
946,998,1045
947,998,1044
948,996,1041
949,994,1041
950,995,1040
951,995,1042
952,995,1046
953,999,1042
954,996,1041
955,994,1041
956,991,1038
957,993,1044
958,995,1046
959,993,1045
960,994,1043
961,991,1043
962,990,1044
963,992,1048
964,994,1049
965,994,1047
966,993,1048
967,990,1047
968,985,1045
969,988,1043
970,993,1043
971,994,1046
972,992,1047
973,989,1044
974,989,1042
975,991,1041
976,996,1040
977,996,1038
978,995,1036
979,990,1035
980,988,1038
981,990,1043
982,994,1045
983,994,1044
984,993,1041
985,991,1036
986,989,1037
987,989,1038
988,993,1039
989,995,1037
990,993,1034
991,990,1034
992,988,1037
993,992,1038
994,994,1040
995,993,1040
996,991,1039
997,990,1039
998,987,1040
999,988,1042
1000,990,1039
1001,990,1037
1002,989,1033
1003,988,1037
1004,987,1040
1005,992,1043
1006,990,1044
1007,988,1042
1008,988,1041
1009,983,1043
1010,989,1046
1011,992,1047
1012,992,1045
1013,992,1039
1014,991,1038
1015,990,1039
1016,994,1040
1017,1000,1046
1018,1001,1046
1019,1000,1044
1020,996,1040
1021,995,1040
1022,997,1042
1023,1002,1041
1024,1004,1039
1025,1003,1035
1026,1000,1033
1027,1001,1032
1028,1003,1036
1029,1006,1036
1030,1007,1033
1031,1004,1028
1032,1000,1025
1033,998,1025
1034,999,1027
1035,1001,1030
1036,1000,1028
1037,998,1026
1038,994,1023
1039,993,1024
1040,992,1026
1041,994,1028
1042,993,1025
1043,993,1024
1044,989,1023
1045,984,1022
1046,983,1025
1047,988,1027
1048,989,1025
1049,984,1027
1050,982,1028
1051,979,1030
1052,984,1035
1053,986,1036
1054,986,1037
1055,980,1033
1056,975,1033
1057,971,1034
1058,973,1036
1059,978,1037
1060,979,1036
1061,980,1035
1062,975,1032
1063,973,1034
1064,975,1038
1065,976,1039
1066,978,1038
1067,975,1035
1068,971,1034
1069,969,1036
1070,971,1037
1071,974,1040
1072,974,1038
1073,974,1036
1074,970,1035
1075,969,1037
1076,973,1039
1077,973,1041
1078,972,1039
1079,973,1036
1080,969,1035
1081,967,1035
1082,972,1035
1083,969,1038
1084,969,1037
1085,971,1033
1086,968,1030
1087,967,1032
1088,969,1037
1089,972,1038
1090,972,1035
1091,973,1034
1092,971,1031
1093,970,1033
1094,972,1032
1095,974,1036
1096,976,1035
1097,973,1037
1098,971,1033
1099,972,1029
1100,977,1022
1101,982,1011
1102,988,992
1103,991,968
1104,994,944
1105,1001,922
1106,1012,902
1107,1027,883
1108,1042,862
1109,1051,851
1110,1053,843
1111,1054,840
1112,1053,844
1113,1047,846
1114,1034,842
1115,1014,840
1116,999,845
1117,991,850
1118,1000,862
1119,1018,871
1120,1040,876
1121,1066,880
1122,1084,885
1123,1106,888
1124,1129,893
1125,1150,902
1126,1162,903
1127,1158,908
1128,1144,913
1129,1121,925
1130,1102,939
1131,1086,951
1132,1067,960
1133,1048,969
1134,1025,976
1135,1004,988
1136,984,1001
1137,966,1012
1138,949,1023
1139,932,1032
1140,923,1039
1141,915,1046
1142,913,1057
1143,920,1061
1144,923,1062
1145,930,1061
1146,933,1061
1147,936,1062
1148,942,1069
1149,951,1069
1150,955,1070
1151,956,1068
1152,955,1067
1153,953,1071
1154,953,1074
1155,956,1079
1156,960,1077
1157,959,1073
1158,954,1073
1159,956,1074
1160,957,1077
1161,959,1080
1162,960,1077
1163,960,1078
1164,959,1076
1165,957,1078
1166,958,1081
1167,961,1085
1168,963,1081
1169,963,1081
1170,958,1079
1171,960,1082
1172,962,1085
1173,962,1087
1174,963,1089
1175,965,1085
1176,964,1084
1177,962,1087
1178,963,1088
1179,966,1093
1180,968,1093
1181,970,1090
1182,968,1089
1183,968,1093
1184,969,1094
1185,973,1097
1186,977,1097
1187,974,1098
1188,971,1096
1189,972,1097
1190,977,1100
1191,980,1105
1192,981,1104
1193,984,1100
1194,984,1097
1195,985,1101
1196,987,1101
1197,990,1104
1198,994,1103
1199,995,1103
1200,996,1100
1201,998,1099
1202,998,1102
1203,1004,1103
1204,1008,1101
1205,1009,1098
1206,1008,1094
1207,1011,1092
1208,1016,1092
1209,1018,1092
1210,1021,1087
1211,1021,1081
1212,1021,1077
1213,1024,1074
1214,1029,1072
1215,1031,1069
1216,1031,1063
1217,1032,1059
1218,1031,1051
1219,1033,1050
1220,1035,1051
1221,1040,1049
1222,1044,1045
1223,1043,1040
1224,1041,1036
1225,1040,1036
1226,1038,1037
1227,1039,1040
1228,1039,1040
1229,1033,1034
1230,1027,1033
1231,1019,1034
1232,1018,1038
1233,1016,1040
1234,1014,1036
1235,1007,1034
1236,1002,1035
1237,997,1033
1238,994,1033
1239,992,1035
1240,991,1034
1241,988,1032
1242,982,1032
1243,981,1033
1244,982,1033
1245,982,1037
1246,982,1035
1247,980,1032
1248,974,1032
1249,969,1032
1250,971,1035
1251,972,1034
1252,972,1036
1253,972,1034
1254,966,1032
1255,963,1032
1256,966,1037
1257,967,1037
1258,971,1034
1259,968,1033
1260,965,1033
1261,962,1033
1262,965,1037
1263,968,1040
1264,967,1038
1265,968,1034
1266,963,1032
1267,963,1034
1268,966,1039
1269,966,1042
1270,966,1040
1271,965,1038
1272,964,1034
1273,963,1038
1274,967,1040
1275,970,1042
1276,970,1043
1277,968,1040
1278,963,1037
1279,964,1040
1280,965,1042
1281,968,1044
1282,968,1045
1283,964,1041
1284,965,1040
1285,963,1042
1286,965,1044
1287,965,1046
1288,966,1042
1289,966,1041
1290,963,1041
1291,962,1042
1292,965,1043
1293,964,1045
1294,969,1043
1295,965,1040
1296,963,1040
1297,961,1044
1298,964,1044
1299,966,1046
1300,965,1041
1301,966,1039
1302,961,1036
1303,958,1037
1304,958,1041
1305,966,1044
1306,967,1040
1307,967,1041
1308,966,1038
1309,963,1039
1310,963,1042
1311,967,1045
1312,967,1042
1313,965,1039
1314,966,1039
1315,963,1039
1316,967,1043
1317,963,1046
1318,966,1042
1319,967,1043
1320,962,1038
1321,958,1040
1322,958,1043
1323,960,1045
1324,963,1047
1325,962,1044
1326,958,1043
1327,957,1045
1328,963,1050
1329,967,1053
1330,970,1052
1331,971,1050
1332,968,1048
1333,967,1048
1334,968,1050
1335,968,1055
1336,974,1052
1337,973,1049
1338,970,1043
1339,972,1041
1340,975,1038
1341,977,1040
1342,984,1038
1343,985,1038
1344,982,1032
1345,978,1033
1346,977,1032
1347,978,1035
1348,979,1034
1349,978,1031
1350,973,1029
1351,973,1031
1352,970,1028
1353,972,1030
1354,970,1027
1355,967,1023
1356,968,1024
1357,967,1026
1358,970,1030
1359,969,1031
1360,973,1035
1361,968,1034
1362,962,1033
1363,957,1037
1364,959,1042
1365,961,1046
1366,960,1046
1367,957,1043
1368,954,1043
1369,952,1049
1370,957,1052
1371,960,1048
1372,963,1040
1373,961,1032
1374,956,1031
1375,956,1031
1376,956,1034
1377,958,1036
1378,959,1038
1379,958,1033
1380,951,1036
1381,951,1037
1382,953,1042
1383,956,1043
1384,957,1041
1385,955,1042
1386,954,1039
1387,954,1038
1388,955,1043
1389,958,1047
1390,960,1044
1391,956,1041
1392,958,1037
1393,957,1038
1394,958,1040
1395,962,1043
1396,963,1040
1397,963,1039
1398,959,1035
1399,959,1039
1400,964,1040
1401,968,1042
1402,972,1037
1403,972,1026
1404,974,1009
1405,973,994
1406,981,975
1407,997,954
1408,1011,931
1409,1029,907
1410,1041,885
1411,1055,871
1412,1074,865
1413,1086,867
1414,1090,868
1415,1085,872
1416,1075,863
1417,1061,861
1418,1048,864
1419,1043,872
1420,1038,878
1421,1040,885
1422,1050,888
1423,1071,893
1424,1096,899
1425,1125,904
1426,1150,910
1427,1165,912
1428,1175,919
1429,1175,927
1430,1165,942
1431,1156,951
1432,1142,961
1433,1127,969
1434,1110,977
1435,1092,985
1436,1076,999
1437,1061,1012
1438,1038,1023
1439,1016,1032
1440,989,1040
1441,966,1052
1442,951,1062
1443,940,1069
1444,933,1070
1445,927,1068
1446,931,1067
1447,934,1070
1448,939,1073
1449,943,1081
1450,947,1080
1451,950,1077
1452,950,1075
1453,947,1077
1454,946,1080
1455,948,1080
1456,948,1077
1457,946,1080
1458,944,1079
1459,945,1080
1460,944,1083
1461,949,1089
1462,953,1088
1463,949,1085
1464,946,1086
1465,945,1089
1466,947,1094
1467,949,1101
1468,949,1101
1469,951,1099
1470,950,1094
1471,947,1087
1472,947,1085
1473,951,1085
1474,950,1085
1475,953,1088
1476,950,1089
1477,949,1092
1478,953,1099
1479,955,1100
1480,961,1102
1481,959,1095
1482,957,1096
1483,955,1097
1484,956,1100
1485,957,1105
1486,961,1104
1487,963,1105
1488,961,1105
1489,962,1106
1490,965,1109
1491,967,1115
1492,970,1114
1493,971,1113
1494,971,1111
1495,970,1112
1496,973,1114
1497,979,1115
1498,981,1114
1499,983,1114
1500,980,1111
1501,984,1114
1502,986,1114
1503,990,1118
1504,993,1117
1505,995,1114
1506,995,1109
1507,996,1102
1508,998,1102
1509,1006,1103
1510,1010,1098
1511,1014,1090
1512,1009,1083
1513,1010,1082
1514,1015,1081
1515,1019,1076
1516,1025,1069
1517,1028,1063
1518,1030,1058
1519,1032,1057
1520,1037,1058
1521,1042,1057
1522,1048,1055
1523,1050,1052
1524,1047,1050
1525,1045,1048
1526,1046,1048
1527,1049,1050
1528,1047,1048
1529,1045,1043
1530,1038,1043
1531,1034,1042
1532,1032,1042
1533,1029,1044
1534,1026,1043
1535,1021,1042
1536,1013,1043
1537,1006,1044
1538,1006,1049
1539,1005,1050
1540,1004,1047
1541,1000,1045
1542,995,1040
1543,993,1043
1544,994,1042
1545,995,1043
1546,993,1043
1547,996,1040
1548,989,1044
1549,990,1043
1550,990,1043
1551,991,1042
1552,994,1037
1553,991,1034
1554,989,1031
1555,987,1035
1556,991,1039
1557,992,1043
1558,992,1038
1559,991,1040
1560,989,1034
1561,987,1037
1562,988,1039
1563,991,1043
1564,994,1043
1565,991,1040
1566,989,1039
1567,989,1041
1568,989,1044
1569,993,1047
1570,993,1045
1571,992,1042
1572,992,1040
1573,990,1040
1574,994,1043
1575,994,1047
1576,993,1046
1577,994,1043
1578,992,1040
1579,990,1040
1580,994,1043
1581,997,1047
1582,998,1048
1583,995,1046
1584,994,1043
1585,992,1045
1586,993,1045
1587,998,1047
1588,998,1044
1589,997,1042
1590,995,1042
1591,995,1042
1592,995,1046
1593,999,1046
1594,1003,1043
1595,1000,1043
1596,997,1042
1597,994,1043
1598,996,1045
1599,998,1045
1600,999,1044
1601,997,1041
1602,995,1038
1603,991,1039
1604,992,1042
1605,999,1046
1606,999,1043
1607,999,1041
1608,998,1039
1609,995,1041
1610,997,1044
1611,997,1044
1612,1000,1044
1613,999,1042
1614,996,1039
1615,994,1039
1616,996,1042
1617,998,1042
1618,997,1045
1619,998,1042
1620,994,1039
1621,993,1040
1622,992,1043
1623,995,1048
1624,997,1047
1625,995,1042
1626,994,1040
1627,994,1042
1628,993,1045
1629,996,1050
1630,999,1051
1631,997,1047
1632,993,1046
1633,992,1050
1634,995,1051
1635,999,1053
1636,1003,1052
1637,1003,1050
1638,1000,1051
1639,998,1052
1640,998,1055
1641,1002,1054
1642,1004,1055
1643,1004,1050
1644,1002,1048
1645,1004,1043
1646,1005,1044
1647,1008,1047
1648,1014,1045
1649,1011,1044
1650,1010,1040
1651,1008,1041
1652,1009,1041
1653,1009,1039
1654,1008,1041
1655,1008,1037
1656,1004,1035
1657,1003,1035
1658,1005,1031
1659,1007,1030
1660,1006,1026
1661,1001,1027
1662,998,1027
1663,994,1028
1664,996,1031
1665,999,1033
1666,1000,1031
1667,1000,1034
1668,995,1033
1669,994,1032
1670,994,1038
1671,995,1038
1672,997,1042
1673,996,1042
1674,993,1041
1675,989,1040
1676,988,1044
1677,989,1045
1678,990,1043
1679,989,1042
1680,986,1042
1681,983,1042
1682,988,1046
1683,986,1048
1684,990,1046
1685,986,1046
1686,985,1042
1687,984,1044
1688,986,1045
1689,988,1046
1690,987,1045
1691,986,1044
1692,983,1043
1693,980,1044
1694,981,1044
1695,982,1049
1696,985,1046
1697,982,1045
1698,984,1042
1699,980,1045
1700,983,1044
1701,984,1045
1702,987,1044
1703,983,1040
1704,983,1041
1705,984,1043
1706,982,1045
1707,989,1048
1708,988,1044
1709,989,1043
1710,988,1038
1711,984,1039
1712,988,1040
1713,992,1040
1714,995,1029
1715,997,1010
1716,998,987
1717,1001,961
1718,1008,935
1719,1023,909
1720,1039,882
1721,1054,862
1722,1071,849
1723,1085,848
1724,1091,854
1725,1097,857
1726,1092,855
1727,1080,852
1728,1065,851
1729,1056,858
1730,1055,869
1731,1069,880
1732,1093,886
1733,1122,891
1734,1144,894
1735,1168,898
1736,1191,906
1737,1209,913
1738,1215,918
1739,1201,926
1740,1177,937
1741,1156,952
1742,1140,967
1743,1128,980
1744,1111,988
1745,1085,998
1746,1058,1007
1747,1029,1023
1748,997,1038
1749,977,1052
1750,961,1060
1751,951,1065
1752,943,1070
1753,939,1072
1754,944,1077
1755,956,1081
1756,962,1083
1757,966,1080
1758,971,1081
1759,970,1082
1760,970,1085
1761,974,1089
1762,975,1088
1763,972,1086
1764,972,1085
1765,969,1085
1766,972,1088
1767,972,1091
1768,974,1090
1769,973,1092
1770,970,1086
1771,970,1090
1772,972,1092
1773,975,1094
1774,976,1093
1775,976,1093
1776,970,1093
1777,970,1093
1778,972,1098
1779,974,1099
1780,975,1102
1781,975,1101
1782,975,1099
1783,969,1101
1784,971,1105
1785,975,1107
1786,976,1108
1787,976,1108
1788,973,1106
1789,974,1107
1790,976,1113
1791,978,1115
1792,980,1116
1793,982,1114
1794,979,1112
1795,980,1116
1796,977,1118
1797,985,1124
1798,989,1123
1799,989,1121
1800,988,1118
1801,988,1121
1802,992,1122
1803,995,1129
1804,998,1124
1805,999,1120
1806,1001,1119
1807,1001,1119
1808,1005,1120
1809,1008,1121
1810,1012,1120
1811,1011,1113
1812,1011,1110
1813,1012,1105
1814,1017,1107
1815,1020,1107
1816,1026,1099
1817,1028,1092
1818,1027,1088
1819,1029,1084
1820,1031,1080
1821,1037,1078
1822,1041,1072
1823,1045,1067
1824,1048,1060
1825,1047,1060
1826,1054,1059
1827,1061,1060
1828,1062,1058
1829,1062,1055
1830,1059,1051
1831,1056,1051
1832,1056,1052
1833,1055,1054
1834,1051,1052
1835,1047,1048
1836,1040,1045
1837,1034,1046
1838,1032,1048
1839,1031,1051
1840,1031,1049
1841,1025,1047
1842,1018,1044
1843,1015,1046
1844,1008,1047
1845,1012,1051
1846,1013,1049
1847,1010,1044
1848,1005,1046
1849,1002,1045
1850,1003,1046
1851,1005,1049
1852,1006,1048
1853,1002,1045
1854,999,1047
1855,995,1046
1856,994,1050
1857,996,1051
1858,998,1050
1859,997,1046
1860,998,1047
1861,996,1048
1862,994,1050
1863,996,1051
1864,999,1050
1865,998,1049
1866,996,1045
1867,993,1047
1868,996,1050
1869,998,1053
1870,1002,1052
1871,999,1049
1872,996,1048
1873,992,1051
1874,996,1053
1875,997,1054
1876,1001,1053
1877,998,1049
1878,994,1046
1879,993,1054
1880,994,1055
1881,997,1058
1882,998,1056
1883,996,1054
1884,995,1052
1885,992,1052
1886,995,1054
1887,997,1057
1888,997,1055
1889,996,1052
1890,991,1054
1891,991,1052
1892,991,1058
1893,993,1060
1894,996,1060
1895,996,1055
1896,990,1050
1897,988,1052
1898,990,1053
1899,992,1058
1900,994,1055
1901,990,1051
1902,989,1051
1903,989,1051
1904,989,1054
1905,990,1054
1906,993,1057
1907,990,1055
1908,988,1051
1909,987,1050
1910,988,1052
1911,988,1054
1912,992,1054
1913,990,1050
1914,989,1049
1915,984,1050
1916,986,1053
1917,990,1056
1918,992,1054
1919,989,1052
1920,988,1048
1921,986,1050
1922,985,1053
1923,988,1053
1924,989,1054
1925,990,1051
1926,986,1048
1927,983,1050
1928,984,1051
1929,990,1054
1930,993,1053
1931,988,1051
1932,987,1052
1933,986,1056
1934,987,1058
1935,990,1061
1936,992,1062
1937,991,1060
1938,987,1058
1939,989,1058
1940,989,1060
1941,996,1062
1942,999,1063
1943,998,1063
1944,996,1060
1945,994,1057
1946,996,1059
1947,1000,1057
1948,1000,1055
1949,1002,1050
1950,1001,1048
1951,1002,1045
1952,1002,1047
1953,1008,1050
1954,1010,1046
1955,1007,1043
1956,1003,1042
1957,998,1038
1958,1001,1039
1959,1002,1041
1960,1004,1043
1961,999,1040
1962,994,1039
1963,993,1038
1964,995,1039
1965,995,1042
1966,996,1041
1967,994,1039
1968,991,1038
1969,989,1038
1970,989,1041
1971,989,1043
1972,991,1041
1973,991,1044
1974,988,1043
1975,986,1044
1976,985,1046
1977,985,1050
1978,986,1049
1979,981,1048
1980,979,1045
1981,980,1046
1982,983,1050
1983,986,1052
1984,986,1050
1985,983,1049
1986,979,1045
1987,974,1049
1988,976,1051
1989,982,1051
1990,980,1052
1991,979,1049
1992,976,1048
1993,976,1049
1994,977,1052
1995,980,1055
1996,982,1053
1997,980,1048
1998,980,1048
1999,976,1048
2000,974,1049
2001,980,1052
2002,982,1050
2003,980,1047
2004,979,1046
2005,978,1048
2006,977,1048
2007,980,1053
2008,982,1050
2009,980,1048
2010,979,1045
2011,974,1043
2012,978,1045
2013,982,1049
2014,985,1050
2015,982,1042
2016,985,1030
2017,987,1017
2018,991,999
2019,999,975
2020,1004,947
2021,1012,917
2022,1023,888
2023,1038,871
2024,1056,857
2025,1067,858
2026,1074,858
2027,1074,855
2028,1062,852
2029,1047,852
2030,1038,859
2031,1036,868
2032,1044,877
2033,1059,880
2034,1084,886
2035,1110,890
2036,1141,899
2037,1170,907
2038,1190,909
2039,1197,915
2040,1191,917
2041,1167,931
2042,1148,946
2043,1129,961
2044,1110,972
2045,1087,980
2046,1060,991
2047,1029,1005
2048,998,1018
2049,975,1035
2050,957,1048
2051,940,1058
2052,928,1063
2053,922,1071
2054,924,1075
2055,934,1080
2056,946,1081
2057,953,1079
2058,956,1079
2059,956,1083
2060,964,1087
2061,964,1090
2062,968,1089
2063,965,1088
2064,962,1086
2065,958,1088
2066,965,1092
2067,963,1097
2068,966,1096
2069,966,1095
2070,966,1093
2071,963,1093
2072,967,1096
2073,969,1097
2074,973,1100
2075,971,1097
2076,968,1097
2077,967,1099
2078,969,1101
2079,970,1105
2080,973,1102
2081,972,1102
2082,970,1102
2083,969,1106
2084,970,1109
2085,973,1115
2086,977,1113
2087,975,1112
2088,972,1113
2089,975,1113
2090,976,1119
2091,981,1122
2092,984,1121
2093,981,1122
2094,982,1119
2095,981,1122
2096,982,1127
2097,987,1128
2098,991,1127
2099,990,1125
2100,989,1123
2101,990,1125
2102,991,1130
2103,996,1130
2104,1003,1129
2105,1001,1123
2106,1002,1121
2107,1002,1121
2108,1007,1124
2109,1014,1125
2110,1018,1120
2111,1017,1115
2112,1017,1111
2113,1021,1109
2114,1023,1104
2115,1027,1104
2116,1031,1100
2117,1033,1090
2118,1029,1084
2119,1029,1082
2120,1037,1083
2121,1042,1077
2122,1046,1075
2123,1045,1067
2124,1047,1064
2125,1047,1060
2126,1051,1060
2127,1056,1062
2128,1059,1059
2129,1059,1055
2130,1055,1051
2131,1050,1053
2132,1045,1054
2133,1045,1057
2134,1046,1056
2135,1041,1053
2136,1032,1051
2137,1026,1052
2138,1021,1055
2139,1020,1057
2140,1019,1055
2141,1015,1050
2142,1008,1046
2143,1003,1046
2144,1000,1051
2145,1001,1053
2146,1000,1051
2147,997,1051
2148,991,1049
2149,992,1053
2150,990,1049
2151,993,1053
2152,995,1053
2153,995,1050
2154,988,1048
2155,987,1047
2156,989,1052
2157,990,1055
2158,993,1055
2159,989,1053
2160,986,1049
2161,983,1051
2162,988,1053
2163,990,1056
2164,992,1056
2165,990,1055
2166,985,1052
2167,982,1051
2168,984,1055
2169,987,1059
2170,989,1057
2171,986,1053
2172,981,1051
2173,983,1054
2174,983,1058
2175,987,1060
2176,987,1059
2177,987,1055
2178,982,1055
2179,978,1054
2180,982,1059
2181,984,1063
2182,986,1059
2183,984,1057
2184,983,1056
2185,981,1057
2186,980,1060
2187,982,1059
2188,983,1060
2189,982,1057
2190,982,1054
2191,978,1056
2192,979,1060
2193,983,1059
2194,984,1061
2195,983,1059
2196,981,1057
2197,979,1057
2198,981,1057
2199,982,1059
2200,983,1060
2201,982,1055
2202,978,1054
2203,978,1053
2204,980,1054
2205,980,1060
2206,984,1059
2207,981,1056
2208,978,1055
2209,977,1054
2210,978,1054
2211,977,1057
2212,980,1055
2213,979,1053
2214,976,1050
2215,974,1054
2216,975,1054
2217,978,1058
2218,979,1056
2219,976,1053
2220,974,1052
2221,976,1054
2222,976,1058
2223,978,1058
2224,979,1059
2225,977,1056
2226,971,1054
2227,970,1052
2228,972,1051
2229,975,1054
2230,976,1056
2231,977,1054
2232,972,1051
2233,974,1053
2234,972,1059
2235,977,1060
2236,978,1060
2237,976,1060
2238,975,1060
2239,973,1060
2240,973,1063
2241,979,1065
2242,982,1066
2243,982,1064
2244,981,1063
2245,980,1063
2246,982,1065
2247,984,1067
2248,986,1063
2249,984,1058
2250,983,1051
2251,980,1053
2252,985,1053
2253,989,1056
2254,990,1053
2255,990,1052
2256,983,1046
2257,984,1046
2258,987,1046
2259,987,1047
2260,989,1045
2261,986,1043
2262,983,1041
2263,980,1044
2264,978,1045
2265,979,1046
2266,983,1045
2267,978,1041
2268,974,1039
2269,970,1039
2270,973,1040
2271,973,1043
2272,974,1042
2273,971,1045
2274,969,1043
2275,962,1047
2276,962,1051
2277,968,1054
2278,966,1055
2279,967,1052
2280,961,1050
2281,959,1053
2282,959,1055
2283,964,1057
2284,967,1057
2285,964,1054
2286,960,1052
2287,957,1053
2288,960,1054
2289,962,1054
2290,962,1054
2291,959,1054
2292,958,1053
2293,956,1054
2294,956,1056
2295,960,1056
2296,961,1055
2297,958,1054
2298,956,1051
2299,954,1053
2300,955,1054
2301,957,1059
2302,959,1057
2303,961,1056
2304,956,1053
2305,957,1052
2306,956,1054
2307,958,1058
2308,961,1055
2309,960,1054
2310,960,1051
2311,956,1051
2312,961,1054
2313,961,1057
2314,961,1052
2315,961,1052
2316,961,1051
2317,960,1051
2318,962,1053
2319,966,1050
2320,972,1037
2321,971,1018
2322,972,994
2323,978,966
2324,991,942
2325,1010,916
2326,1026,893
2327,1043,871
2328,1054,858
2329,1058,854
2330,1061,862
2331,1057,860
2332,1042,858
2333,1020,859
2334,1006,865
2335,1004,874
2336,1016,885
2337,1041,893
2338,1075,900
2339,1106,902
2340,1129,906
2341,1148,910
2342,1164,917
2343,1172,924
2344,1164,930
2345,1142,939
2346,1118,950
2347,1095,962
2348,1072,979
2349,1050,994
2350,1029,1002
2351,1003,1014
2352,977,1023
2353,952,1037
2354,934,1054
2355,925,1069
2356,916,1075
2357,911,1077
2358,912,1078
2359,917,1083
2360,925,1087
2361,935,1091
2362,940,1092
2363,946,1090
2364,942,1089
2365,942,1092
2366,941,1093
2367,945,1100
2368,947,1097
2369,946,1097
2370,941,1093
2371,942,1098
2372,940,1099
2373,941,1101
2374,946,1102
2375,947,1100
2376,945,1100
2377,944,1102
2378,948,1106
2379,950,1107
2380,953,1108
2381,953,1107
2382,951,1105
2383,947,1105
2384,950,1109
2385,951,1113
2386,955,1111
2387,954,1111
2388,953,1113
2389,954,1115
2390,955,1117
2391,959,1120
2392,961,1121
2393,963,1122
2394,961,1120
2395,959,1123
2396,963,1126
2397,968,1129
2398,969,1128
2399,970,1127
2400,971,1125
2401,966,1128
2402,972,1131
2403,981,1130
2404,983,1131
2405,986,1128
2406,984,1127
2407,986,1126
2408,990,1128
2409,993,1127
2410,998,1126
2411,1001,1123
2412,1002,1116
2413,1004,1116
2414,1006,1114
2415,1010,1114
2416,1017,1108
2417,1015,1099
2418,1017,1095
2419,1017,1091
2420,1021,1088
2421,1026,1086
2422,1035,1079
2423,1034,1072
2424,1038,1068
2425,1038,1068
2426,1041,1066
2427,1042,1069
2428,1046,1067
2429,1044,1058
2430,1037,1058
2431,1026,1056
2432,1026,1058
2433,1023,1064
2434,1020,1061
2435,1014,1058
2436,1006,1056
2437,997,1054
2438,993,1057
2439,990,1061
2440,991,1061
2441,990,1055
2442,985,1055
2443,979,1057
2444,979,1056
2445,980,1059
2446,977,1056
2447,977,1056
2448,974,1054
2449,973,1052
2450,974,1057
2451,976,1058
2452,978,1057
2453,975,1056
2454,971,1054
2455,972,1055
2456,972,1056
2457,975,1057
2458,977,1059
2459,976,1058
2460,973,1055
2461,970,1056
2462,971,1059
2463,976,1061
2464,977,1058
2465,977,1058
2466,972,1056
2467,972,1057
2468,973,1060
2469,975,1062
2470,977,1061
2471,977,1060
2472,975,1055
2473,972,1059
2474,974,1062
2475,976,1062
2476,978,1062
2477,977,1060
2478,972,1059
2479,969,1060
2480,969,1062
2481,976,1063
2482,976,1061
2483,976,1059
2484,974,1060
2485,971,1062
2486,974,1063
2487,978,1064
2488,980,1062
2489,979,1061
2490,976,1058
2491,974,1059
2492,974,1060
2493,976,1063
2494,980,1060
2495,977,1061
2496,975,1056
2497,973,1059
2498,974,1059
2499,976,1062
2500,978,1061
2501,978,1058
2502,974,1056
2503,973,1056
2504,973,1062
2505,978,1061
2506,980,1059
2507,980,1059
2508,977,1057
2509,977,1056
2510,974,1059
2511,978,1061
2512,982,1061
2513,976,1058
2514,976,1054
2515,975,1056
2516,974,1055
2517,978,1059
2518,980,1059
2519,979,1055
2520,977,1053
2521,974,1056
2522,976,1058
2523,979,1062
2524,980,1062
2525,979,1060
2526,976,1060
2527,974,1062
2528,976,1065
2529,977,1071
2530,983,1067
2531,983,1067
2532,983,1065
2533,982,1063
2534,985,1068
2535,986,1068
2536,988,1066
2537,988,1063
2538,987,1062
2539,985,1059
2540,987,1060
2541,993,1057
2542,998,1058
2543,996,1055
2544,996,1052
2545,997,1052
2546,996,1051
2547,1000,1051
2548,1000,1049
2549,998,1047
2550,994,1042
2551,991,1043
2552,994,1045
2553,992,1047
2554,992,1044
2555,992,1043
2556,989,1038
2557,986,1040
2558,989,1041
2559,989,1043
2560,990,1043
2561,989,1039
2562,986,1040
2563,982,1039
2564,980,1042
2565,981,1045
2566,987,1046
2567,985,1046
2568,983,1045
2569,978,1047
2570,979,1051
2571,979,1052
2572,982,1052
2573,979,1049
2574,975,1048
2575,976,1049
2576,977,1050
2577,981,1054
2578,983,1051
2579,982,1051
2580,979,1049
2581,974,1047
2582,976,1050
2583,978,1053
2584,978,1052
2585,977,1052
2586,976,1047
2587,972,1049
2588,975,1052
2589,976,1055
2590,980,1054
2591,979,1053
2592,977,1049
2593,973,1049
2594,975,1052
2595,976,1054
2596,980,1051
2597,980,1049
2598,976,1050
2599,975,1050
2600,975,1052
2601,977,1055
2602,982,1052
2603,979,1052
2604,976,1049
2605,976,1047
2606,975,1049
2607,978,1053
2608,984,1050
2609,981,1048
2610,979,1045
2611,976,1045
2612,981,1049
2613,986,1048
2614,989,1042
2615,993,1023
2616,994,1007
2617,997,987
2618,1004,967
2619,1015,946
2620,1027,918
2621,1040,897
2622,1049,876
2623,1059,867
2624,1072,867
2625,1078,869
2626,1080,868
2627,1069,866
2628,1055,863
2629,1038,866
2630,1029,875
2631,1034,882
2632,1045,889
2633,1061,893
2634,1079,896
2635,1102,901
2636,1132,905
2637,1156,913
2638,1173,917
2639,1182,920
2640,1176,923
2641,1162,931
2642,1144,941
2643,1131,956
2644,1115,965
2645,1098,977
2646,1079,984
2647,1059,995
2648,1038,1007
2649,1017,1020
2650,998,1029
2651,976,1041
2652,959,1049
2653,942,1060
2654,937,1069
2655,937,1077
2656,938,1079
2657,942,1077
2658,944,1077
2659,947,1081
2660,954,1085
2661,965,1086
2662,972,1088
2663,971,1088
2664,969,1085
2665,969,1089
2666,969,1092
2667,969,1093
2668,971,1094
2669,970,1093
2670,971,1092
2671,968,1090
2672,970,1096
2673,971,1097
2674,975,1097
2675,975,1096
2676,970,1094
2677,970,1096
2678,971,1099
2679,972,1101
2680,976,1102
2681,974,1102
2682,975,1098
2683,974,1101
2684,975,1103
2685,976,1105
2686,981,1105
2687,978,1105
2688,975,1104
2689,974,1104
2690,977,1110
2691,982,1111
2692,985,1113
2693,985,1112
2694,980,1109
2695,982,1115
2696,982,1119
2697,987,1120
2698,990,1119
2699,988,1119
2700,990,1119
2701,990,1121
2702,990,1124
2703,992,1127
2704,996,1127
2705,998,1124
2706,998,1123
2707,999,1126
2708,1000,1127
2709,1003,1130
2710,1008,1129
2711,1008,1128
2712,1009,1126
2713,1009,1126
2714,1013,1127
2715,1018,1129
2716,1022,1125
2717,1021,1121
2718,1021,1117
2719,1023,1114
2720,1026,1114
2721,1028,1115
2722,1033,1110
2723,1035,1103
2724,1033,1096
2725,1034,1094
2726,1037,1094
2727,1041,1089
2728,1046,1083
2729,1049,1078
2730,1049,1072
2731,1050,1070
2732,1053,1065
2733,1058,1066
2734,1060,1064
2735,1066,1062
2736,1065,1059
2737,1064,1054
2738,1062,1057
2739,1064,1058
2740,1066,1055
2741,1059,1052
2742,1052,1050
2743,1047,1050
2744,1043,1054
2745,1042,1056
2746,1041,1053
2747,1035,1050
2748,1027,1049
2749,1022,1049
2750,1019,1049
2751,1020,1052
2752,1019,1049
2753,1014,1049
2754,1008,1048
2755,1006,1047
2756,1004,1051
2757,1006,1054
2758,1007,1051
2759,1005,1049
2760,1001,1047
2761,996,1048
2762,998,1052
2763,999,1054
2764,1004,1054
2765,1001,1052
2766,998,1048
2767,996,1050
2768,995,1051
2769,995,1053
2770,1001,1051
2771,1001,1050
2772,998,1049
2773,993,1049
2774,995,1053
2775,996,1056
2776,999,1056
2777,999,1052
2778,996,1052
2779,995,1050
2780,996,1055
2781,996,1055
2782,1000,1054
2783,1000,1053
2784,996,1053
2785,997,1055
2786,998,1056
2787,1001,1059
2788,1003,1055
2789,999,1055
2790,998,1052
2791,996,1054
2792,997,1057
2793,999,1058
2794,1003,1058
2795,1001,1055
2796,997,1056
2797,997,1054
2798,994,1058
2799,999,1058
2800,1002,1057
2801,1000,1058
2802,997,1052
2803,993,1054
2804,993,1056
2805,998,1058
2806,1000,1058
2807,999,1056
2808,994,1052
2809,992,1055
2810,993,1057
2811,996,1059
2812,998,1058
2813,996,1055
2814,995,1054
2815,990,1053
2816,991,1055
2817,994,1058
2818,999,1058
2819,997,1057
2820,994,1052
2821,992,1053
2822,993,1055
2823,996,1058
2824,999,1056
2825,994,1053
2826,991,1052
2827,988,1052
2828,990,1055
2829,993,1054
2830,994,1055
2831,994,1052
2832,991,1051
2833,988,1052
2834,992,1052
2835,993,1058
2836,994,1054
2837,992,1053
2838,991,1050
2839,990,1051
2840,989,1055
2841,990,1057
2842,993,1058
2843,995,1057
2844,990,1055
2845,986,1059
2846,987,1062
2847,992,1064
2848,993,1060
2849,992,1061
2850,992,1058
2851,993,1059
2852,996,1062
2853,999,1063
2854,1003,1063
2855,1002,1064
2856,997,1060
2857,994,1061
2858,996,1064
2859,1001,1061
2860,1004,1058
2861,1006,1054
2862,1004,1051
2863,1004,1049
2864,1006,1049
2865,1009,1054
2866,1011,1050
2867,1012,1047
2868,1006,1045
2869,1002,1046
2870,1003,1047
2871,1005,1049
2872,1007,1045
2873,1004,1042
2874,1001,1040
2875,1001,1042
2876,997,1043
2877,998,1045
2878,1001,1044
2879,996,1042
2880,992,1038
2881,992,1040
2882,990,1045
2883,995,1047
2884,996,1045
2885,995,1045
2886,991,1044
2887,986,1047
2888,987,1052
2889,992,1054
2890,993,1055
2891,990,1051
2892,981,1052
2893,980,1052
2894,983,1055
2895,983,1056
2896,988,1056
2897,987,1054
2898,984,1051
2899,982,1052
2900,981,1056
2901,984,1058
2902,983,1056
2903,980,1054
2904,980,1054
2905,979,1055
2906,979,1056
2907,983,1058
2908,984,1056
2909,984,1053
2910,979,1052
2911,977,1054
2912,978,1055
2913,982,1055
2914,983,1058
2915,982,1057
2916,977,1053
2917,980,1054
2918,979,1055
2919,983,1058
2920,985,1058
2921,983,1054
2922,981,1053
2923,980,1053
2924,980,1057
2925,983,1057
2926,986,1058
2927,982,1056
2928,981,1052
2929,980,1054
2930,982,1054
2931,984,1056
2932,985,1057
2933,984,1053
2934,985,1048
2935,988,1038
2936,993,1026
2937,1001,1011
2938,1006,984
2939,1011,958
2940,1018,929
2941,1026,909
2942,1042,888
2943,1058,876
2944,1068,868
2945,1077,863
2946,1079,863
2947,1071,864
2948,1063,864
2949,1051,865
2950,1040,869
2951,1037,872
2952,1040,880
2953,1051,888
2954,1073,897
2955,1101,904
2956,1128,907
2957,1153,908
2958,1172,911
2959,1187,915
2960,1194,923
2961,1191,932
2962,1178,939
2963,1153,946
2964,1136,955
2965,1120,968
2966,1101,979
2967,1086,992
2968,1071,998
2969,1048,1008
2970,1021,1016
2971,998,1029
2972,974,1046
2973,958,1057
2974,946,1068
2975,938,1073
2976,930,1077
2977,927,1081
2978,931,1086
2979,943,1090
2980,950,1090
2981,955,1088
2982,963,1089
2983,964,1089
2984,965,1095
2985,967,1099
2986,968,1099
2987,969,1096
2988,967,1096
2989,966,1095
2990,967,1100
2991,970,1102
2992,972,1104
2993,972,1100
2994,972,1099
2995,967,1101
2996,968,1103
2997,971,1107
2998,974,1106
2999,974,1104
3000,972,1104
3001,971,1106
3002,972,1107
3003,975,1110
3004,976,1111
3005,978,1109
3006,974,1106
3007,974,1110
3008,975,1111
3009,977,1114
3010,979,1118
3011,978,1115
3012,975,1113
3013,977,1117
3014,979,1118
3015,982,1122
3016,985,1121
3017,984,1122
3018,983,1118
3019,983,1121
3020,981,1125
3021,985,1130
3022,992,1129
3023,992,1127
3024,989,1127
3025,989,1127
3026,989,1131
3027,994,1133
3028,997,1133
3029,995,1131
3030,997,1129
3031,997,1130
3032,1002,1132
3033,1005,1133
3034,1005,1133
3035,1007,1131
3036,1005,1129
3037,1006,1130
3038,1010,1128
3039,1018,1130
3040,1023,1128
3041,1022,1123
3042,1023,1119
3043,1023,1116
3044,1024,1115
3045,1031,1112
3046,1035,1109
3047,1035,1101
3048,1035,1096
3049,1034,1093
3050,1038,1090
3051,1045,1089
3052,1045,1084
3053,1048,1079
3054,1050,1072
3055,1049,1071
3056,1053,1070
3057,1057,1070
3058,1061,1067
3059,1061,1063
3060,1059,1061
3061,1056,1059
3062,1053,1059
3063,1054,1062
3064,1051,1063
3065,1046,1058
3066,1040,1057
3067,1031,1059
3068,1029,1057
3069,1026,1059
3070,1027,1057
3071,1022,1057
3072,1016,1055
3073,1011,1057
3074,1005,1056
3075,1005,1058
3076,1008,1061
3077,1003,1057
3078,1001,1055
3079,997,1055
3080,994,1058
3081,996,1058
3082,996,1057
3083,995,1057
3084,993,1052
3085,990,1054
3086,990,1055
3087,994,1060
3088,993,1059
3089,990,1059
3090,987,1056
3091,987,1056
3092,987,1057
3093,990,1063
3094,992,1060
3095,991,1059
3096,989,1054
3097,987,1058
3098,987,1059
3099,989,1060
3100,991,1062
3101,989,1059
3102,985,1058
3103,985,1058
3104,982,1061
3105,987,1062
3106,988,1062
3107,986,1063
3108,986,1061
3109,985,1059
3110,983,1063
3111,987,1067
3112,989,1063
3113,988,1062
3114,986,1062
3115,981,1060
3116,984,1063
3117,986,1065
3118,988,1067
3119,987,1064
3120,987,1064
3121,984,1063
3122,984,1067
3123,988,1067
3124,989,1066
3125,987,1064
3126,986,1060
3127,982,1060
3128,984,1064
3129,986,1066
3130,989,1067
3131,986,1061
3132,985,1059
3133,982,1061
3134,984,1062
3135,986,1062
3136,988,1062
3137,986,1061
3138,980,1057
3139,977,1059
3140,982,1062
3141,983,1062
3142,985,1064
3143,983,1061
3144,983,1058
3145,980,1059
3146,982,1061
3147,984,1063
3148,985,1063
3149,984,1061
3150,983,1057
3151,980,1058
3152,981,1061
3153,984,1063
3154,985,1060
3155,983,1060
3156,982,1058
3157,981,1059
3158,978,1060
3159,984,1062
3160,983,1064
3161,982,1059
3162,980,1057
3163,976,1058
3164,980,1062
3165,981,1064
3166,985,1065
3167,984,1065
3168,980,1064
3169,982,1067
3170,981,1069
3171,983,1071
3172,986,1070
3173,985,1070
3174,986,1067
3175,984,1068
3176,988,1070
3177,990,1072
3178,995,1070
3179,993,1068
3180,993,1063
3181,992,1061
3182,993,1063
3183,999,1061
3184,1000,1060
3185,1001,1057
3186,998,1052
3187,996,1052
3188,998,1055
3189,999,1053
3190,1000,1053
3191,1001,1050
3192,994,1048
3193,990,1048
3194,992,1049
3195,994,1052
3196,994,1050
3197,992,1047
3198,988,1044
3199,985,1044
3200,984,1048
3201,986,1052
3202,986,1053
3203,986,1051
3204,984,1048
3205,980,1048
3206,980,1053
3207,982,1057
3208,985,1060
3209,984,1058
3210,979,1057
3211,975,1055
3212,974,1057
3213,977,1059
3214,978,1058
3215,979,1058
3216,975,1056
3217,972,1056
3218,974,1060
3219,974,1060
3220,976,1060
3221,974,1059
3222,970,1056
3223,969,1057
3224,967,1061
3225,970,1062
3226,974,1062
3227,973,1062
3228,970,1058
3229,968,1060
3230,965,1059
3231,970,1063
3232,971,1063
3233,970,1059
3234,967,1057
3235,966,1058
3236,968,1062
3237,970,1061
3238,973,1061
3239,972,1061
3240,968,1058
3241,966,1056
3242,965,1059
3243,968,1059
3244,971,1059
3245,972,1059
3246,969,1055
3247,967,1054
3248,967,1057
3249,970,1059
3250,975,1060
3251,975,1056
3252,974,1048
3253,976,1035
3254,980,1022
3255,986,1006
3256,995,982
3257,1001,955
3258,1007,931
3259,1018,911
3260,1030,894
3261,1044,883
3262,1055,875
3263,1062,869
3264,1062,868
3265,1053,866
3266,1041,867
3267,1030,871
3268,1019,876
3269,1016,880
3270,1017,884
3271,1032,891
3272,1058,899
3273,1091,908
3274,1118,913
3275,1143,913
3276,1157,917
3277,1165,924
3278,1162,931
3279,1149,944
3280,1131,952
3281,1108,960
3282,1082,970
3283,1060,979
3284,1041,994
3285,1017,1005
3286,996,1017
3287,973,1028
3288,951,1040
3289,933,1051
3290,922,1064
3291,915,1074
3292,911,1082
3293,909,1083
3294,908,1084
3295,913,1085
3296,923,1092
3297,934,1094
3298,942,1094
3299,947,1093
3300,947,1094
3301,948,1093
3302,947,1098
3303,950,1102
3304,952,1104
3305,952,1102
3306,951,1100
3307,949,1101
3308,948,1106
3309,953,1108
3310,955,1106
3311,951,1105
3312,951,1105
3313,949,1107
3314,949,1109
3315,956,1113
3316,957,1110
3317,955,1112
3318,952,1109
3319,949,1111
3320,952,1113
3321,956,1114
3322,960,1114
3323,958,1114
3324,956,1115
3325,954,1115
3326,955,1117
3327,958,1120
3328,960,1120
3329,961,1121
3330,960,1120
3331,958,1120
3332,960,1123
3333,965,1126
3334,968,1126
3335,966,1126
3336,966,1123
3337,966,1127
3338,964,1131
3339,968,1134
3340,971,1133
3341,972,1131
3342,973,1132
3343,973,1133
3344,973,1136
3345,977,1141
3346,982,1138
3347,984,1136
3348,984,1134
3349,983,1138
3350,987,1137
3351,991,1138
3352,994,1138
3353,996,1137
3354,993,1134
3355,997,1132
3356,1001,1132
3357,1006,1133
3358,1012,1132
3359,1011,1127
3360,1011,1121
3361,1008,1120
3362,1009,1117
3363,1015,1115
3364,1023,1112
3365,1023,1106
3366,1024,1100
3367,1024,1095
3368,1027,1090
3369,1031,1088
3370,1035,1086
3371,1039,1079
3372,1037,1078
3373,1037,1075
3374,1036,1074
3375,1040,1073
3376,1042,1071
3377,1038,1069
3378,1035,1068
3379,1030,1067
3380,1026,1067
3381,1026,1066
3382,1019,1068
3383,1019,1065
3384,1009,1065
3385,1003,1063
3386,1000,1066
3387,997,1065
3388,996,1066
3389,991,1062
3390,984,1061
3391,977,1062
3392,978,1067
3393,979,1068
3394,979,1067
3395,974,1063
3396,970,1061
3397,965,1060
3398,965,1063
3399,966,1068
3400,970,1068
3401,969,1064
3402,965,1060
3403,964,1063
3404,963,1063
3405,962,1063
3406,965,1067
3407,963,1065
3408,961,1064
3409,957,1061
3410,960,1065
3411,961,1067
3412,965,1065
3413,965,1065
3414,959,1063
3415,958,1067
3416,959,1067
3417,964,1069
3418,966,1069
3419,964,1069
3420,959,1067
3421,958,1069
3422,960,1070
3423,964,1072
3424,964,1072
3425,964,1071
3426,960,1066
3427,958,1066
3428,958,1070
3429,960,1070
3430,963,1072
3431,962,1070
3432,960,1069
3433,960,1070
3434,958,1070
3435,959,1075
3436,960,1073
3437,961,1072
3438,958,1072
3439,959,1071
3440,957,1073
3441,961,1078
3442,966,1074
3443,963,1073
3444,962,1069
3445,959,1066
3446,960,1071
3447,962,1071
3448,963,1071
3449,966,1070
3450,963,1067
3451,961,1068
3452,960,1071
3453,962,1074
3454,964,1072
3455,963,1070
3456,960,1066
3457,956,1067
3458,958,1070
3459,960,1075
3460,961,1075
3461,958,1070
3462,958,1067
3463,957,1064
3464,955,1066
3465,961,1070
3466,962,1071
3467,961,1068
3468,958,1065
3469,957,1067
3470,958,1071
3471,958,1072
3472,962,1072
3473,961,1068
3474,957,1067
3475,957,1067
3476,957,1070
3477,959,1072
3478,959,1072
3479,960,1073
3480,959,1073
3481,954,1075
3482,959,1078
3483,963,1082
3484,966,1080
3485,966,1077
3486,964,1074
3487,963,1075
3488,965,1078
3489,968,1080
3490,973,1078
3491,970,1079
3492,968,1071
3493,969,1069
3494,972,1069
3495,975,1070
3496,976,1070
3497,974,1068
3498,976,1061
3499,978,1060
3500,977,1059
3501,978,1063
3502,980,1060
3503,979,1054
3504,976,1053
3505,973,1053
3506,969,1056
3507,973,1058
3508,974,1060
3509,972,1055
3510,968,1053
3511,962,1053
3512,965,1057
3513,967,1059
3514,966,1055
3515,966,1055
3516,963,1053
3517,959,1054
3518,957,1059
3519,961,1062
3520,964,1065
3521,955,1061
3522,957,1060
3523,954,1063
3524,953,1063
3525,957,1066
3526,961,1067
3527,961,1063
3528,958,1062
3529,957,1061
3530,955,1065
3531,959,1068
3532,958,1067
3533,957,1064
3534,956,1062
3535,955,1060
3536,957,1064
3537,956,1066
3538,960,1066
3539,958,1064
3540,957,1063
3541,955,1063
3542,954,1065
3543,960,1067
3544,962,1065
3545,961,1065
3546,958,1060
3547,957,1060
3548,958,1061
3549,961,1064
3550,963,1063
3551,963,1062
3552,965,1058
3553,962,1055
3554,966,1048
3555,971,1037
3556,979,1018
3557,985,995
3558,990,962
3559,1002,939
3560,1018,916
3561,1033,899
3562,1049,890
3563,1056,880
3564,1061,882
3565,1055,882
3566,1045,883
3567,1030,884
3568,1017,886
3569,1004,893
3570,1007,896
3571,1020,903
3572,1041,912
3573,1066,920
3574,1094,924
3575,1113,926
3576,1128,928
3577,1138,934
3578,1147,940
3579,1140,953
3580,1131,963
3581,1109,971
3582,1088,978
3583,1072,989
3584,1049,1001
3585,1034,1012
3586,1023,1024
3587,1000,1034
3588,978,1040
3589,959,1055
3590,943,1068
3591,930,1078
3592,927,1085
3593,920,1087
3594,919,1088
3595,923,1090
3596,931,1094
3597,940,1098
3598,946,1102
3599,951,1099
3600,952,1098
3601,952,1100
3602,952,1104
3603,957,1105
3604,958,1105
3605,955,1106
3606,952,1105
3607,956,1104
3608,955,1107
3609,958,1111
3610,961,1111
3611,960,1108
3612,960,1108
3613,957,1109
3614,961,1111
3615,963,1113
3616,965,1113
3617,960,1111
3618,961,1109
3619,958,1111
3620,959,1115
3621,962,1116
3622,965,1116
3623,966,1117
3624,964,1116
3625,963,1114
3626,964,1120
3627,966,1123
3628,971,1126
3629,970,1123
3630,967,1122
3631,969,1122
3632,971,1125
3633,973,1128
3634,976,1129
3635,978,1130
3636,977,1128
3637,974,1128
3638,977,1132
3639,981,1137
3640,988,1137
3641,985,1135
3642,985,1133
3643,985,1136
3644,989,1137
3645,991,1142
3646,998,1142
3647,999,1137
3648,997,1135
3649,999,1136
3650,1000,1136
3651,1003,1141
3652,1007,1138
3653,1010,1138
3654,1012,1133
3655,1012,1132
3656,1016,1131
3657,1021,1129
3658,1025,1126
3659,1027,1121
3660,1027,1115
3661,1028,1113
3662,1028,1110
3663,1033,1107
3664,1039,1105
3665,1041,1096
3666,1042,1091
3667,1041,1088
3668,1046,1088
3669,1050,1086
3670,1056,1082
3671,1055,1078
3672,1052,1076
3673,1052,1074
3674,1052,1076
3675,1054,1078
3676,1049,1078
3677,1046,1073
3678,1041,1071
3679,1035,1069
3680,1031,1069
3681,1028,1070
3682,1027,1070
3683,1023,1068
3684,1018,1066
3685,1011,1068
3686,1009,1069
3687,1005,1071
3688,1007,1070
3689,1003,1069
3690,998,1067
3691,993,1066
3692,992,1073
3693,995,1072
3694,993,1072
3695,994,1068
3696,988,1065
3697,984,1067
3698,984,1069
3699,986,1068
3700,985,1068
3701,989,1066
3702,986,1063
3703,984,1065
3704,986,1066
3705,984,1071
3706,989,1071
3707,990,1066
3708,986,1064
3709,984,1064
3710,984,1067
3711,985,1069
3712,986,1070
3713,984,1069
3714,984,1066
3715,983,1067
3716,984,1069
3717,986,1069
3718,991,1071
3719,987,1070
3720,985,1068
3721,984,1067
3722,981,1070
3723,986,1073
3724,991,1072
3725,989,1072
3726,987,1069
3727,985,1068
3728,986,1069
3729,988,1072
3730,991,1071
3731,988,1068
3732,987,1070
3733,987,1065
3734,985,1068
3735,989,1070
3736,991,1070
3737,988,1068
3738,987,1063
3739,986,1067
3740,983,1068
3741,986,1070
3742,989,1071
3743,988,1067
3744,985,1065
3745,983,1065
3746,981,1068
3747,984,1070
3748,988,1069
3749,985,1063
3750,984,1063
3751,984,1063
3752,980,1066
3753,984,1066
3754,988,1068
3755,984,1067
3756,985,1063
3757,981,1063
3758,979,1064
3759,985,1069
3760,987,1066
3761,986,1066
3762,983,1063
3763,982,1063
3764,979,1065
3765,981,1067
3766,984,1067
3767,985,1064
3768,985,1062
3769,981,1061
3770,981,1065
3771,984,1068
3772,985,1067
3773,981,1066
3774,977,1064
3775,977,1066
3776,979,1068
3777,981,1071
3778,984,1073
3779,984,1070
3780,983,1069
3781,980,1071
3782,981,1072
3783,983,1074
3784,987,1073
3785,987,1072
3786,987,1071
3787,988,1069
3788,987,1070
3789,990,1075
3790,994,1071
3791,994,1067
3792,992,1063
3793,993,1062
3794,993,1063
3795,997,1062
3796,1002,1059
3797,1003,1056
3798,1001,1051
3799,994,1051
3800,997,1053
3801,996,1056
3802,996,1053
3803,997,1053
3804,994,1049
3805,991,1048
3806,989,1051
3807,989,1053
3808,991,1051
3809,989,1052
3810,988,1048
3811,985,1046
3812,984,1051
3813,986,1051
3814,986,1054
3815,984,1051
3816,984,1050
3817,981,1052
3818,983,1057
3819,985,1061
3820,984,1059
3821,984,1057
3822,977,1054
3823,971,1054
3824,970,1057
3825,974,1059
3826,978,1057
3827,976,1057
3828,977,1054
3829,972,1056
3830,974,1060
3831,973,1063
3832,975,1062
3833,971,1057
3834,970,1058
3835,964,1057
3836,965,1059
3837,971,1062
3838,975,1066
3839,974,1060
3840,971,1059
3841,967,1059
3842,968,1063
3843,970,1062
3844,972,1062
3845,973,1059
3846,968,1057
3847,969,1057
3848,969,1061
3849,972,1062
3850,974,1064
3851,975,1062
3852,972,1059
3853,970,1058
3854,971,1061
3855,973,1061
3856,974,1063
3857,974,1061
3858,970,1060
3859,972,1062
3860,974,1061
3861,979,1058
3862,984,1046
3863,989,1027
3864,992,1003
3865,994,981
3866,1004,959
3867,1016,938
3868,1033,917
3869,1042,899
3870,1055,888
3871,1061,883
3872,1060,887
3873,1058,889
3874,1050,886
3875,1032,881
3876,1020,885
3877,1013,889
3878,1018,900
3879,1033,906
3880,1060,913
3881,1082,917
3882,1108,919
3883,1130,922
3884,1155,930
3885,1171,935
3886,1179,941
3887,1164,947
3888,1141,953
3889,1116,965
3890,1097,978
3891,1081,991
3892,1066,1003
3893,1042,1011
3894,1014,1022
3895,988,1031
3896,962,1050
3897,945,1063
3898,933,1074
3899,926,1076
3900,917,1078
3901,921,1081
3902,924,1084
3903,937,1090
3904,945,1092
3905,953,1092
3906,954,1092
3907,955,1096
3908,962,1099
3909,963,1101
3910,964,1104
3911,963,1103
3912,961,1099
3913,962,1096
3914,963,1099
3915,964,1103
3916,970,1105
3917,971,1102
3918,966,1102
3919,963,1102
3920,965,1106
3921,969,1106
3922,973,1108
3923,971,1109
3924,970,1104
3925,965,1107
3926,966,1110
3927,966,1111
3928,969,1113
3929,968,1113
3930,963,1109
3931,965,1111
3932,966,1113
3933,970,1116
3934,976,1118
3935,978,1115
3936,978,1115
3937,973,1117
3938,976,1117
3939,978,1121
3940,984,1121
3941,985,1123
3942,982,1122
3943,979,1121
3944,980,1124
3945,984,1127
3946,991,1129
3947,992,1128
3948,989,1125
3949,989,1125
3950,992,1129
3951,996,1132
3952,1000,1133
3953,999,1131
3954,998,1129
3955,996,1127
3956,997,1129
3957,1002,1130
3958,1009,1130
3959,1010,1128
3960,1011,1125
3961,1010,1123
3962,1013,1123
3963,1017,1126
3964,1021,1120
3965,1023,1117
3966,1023,1111
3967,1023,1106
3968,1027,1105
3969,1030,1104
3970,1037,1096
3971,1039,1091
3972,1038,1083
3973,1035,1079
3974,1041,1077
3975,1046,1079
3976,1051,1075
3977,1050,1073
3978,1053,1068
3979,1050,1067
3980,1051,1069
3981,1057,1070
3982,1055,1069
3983,1049,1064
3984,1043,1064
3985,1037,1064
3986,1028,1066
3987,1028,1067
3988,1024,1067
3989,1022,1064
3990,1016,1059
3991,1008,1061
3992,1007,1062
3993,1006,1065
3994,1006,1064
3995,1004,1059
3996,999,1057
3997,992,1059
3998,991,1060
3999,990,1062
4000,992,1063
4001,991,1062
4002,986,1056
4003,980,1058
4004,982,1063
4005,983,1064
4006,987,1064
4007,984,1061
4008,982,1058
4009,979,1062
4010,983,1060
4011,984,1062
4012,984,1064
4013,982,1062
4014,982,1059
4015,980,1061
4016,981,1063
4017,982,1065
4018,986,1066
4019,983,1062
4020,979,1060
4021,976,1061
4022,978,1063
4023,982,1065
4024,987,1066
4025,984,1066
4026,984,1063
4027,984,1062
4028,983,1064
4029,985,1067
4030,984,1067
4031,983,1065
4032,977,1063
4033,976,1064
4034,978,1064
4035,983,1067
4036,986,1067
4037,985,1063
4038,982,1063
4039,980,1063
4040,981,1066
4041,981,1068
4042,982,1069
4043,980,1067
4044,976,1063
4045,977,1065
4046,978,1064
4047,979,1068
4048,982,1068
4049,979,1065
4050,980,1063
4051,976,1062
4052,975,1064
4053,977,1064
4054,979,1063
4055,978,1061
4056,977,1062
4057,974,1059
4058,977,1063
4059,978,1064
4060,981,1063
4061,981,1061
4062,975,1057
4063,973,1060
4064,973,1061
4065,975,1062
4066,978,1063
4067,981,1060
4068,973,1058
4069,972,1059
4070,975,1058
4071,973,1061
4072,977,1059
4073,977,1059
4074,977,1055
4075,973,1056
4076,972,1058
4077,971,1059
4078,974,1059
4079,974,1058
4080,970,1057
4081,969,1058
4082,973,1059
4083,971,1064
4084,977,1062
4085,979,1063
4086,977,1061
4087,974,1063
4088,973,1065
4089,978,1069
4090,984,1068
4091,983,1065
4092,981,1062
4093,979,1064
4094,980,1064
4095,981,1068
4096,986,1071
4097,987,1065
4098,985,1061
4099,985,1058
4100,985,1058
4101,990,1059
4102,996,1059
4103,993,1056
4104,994,1050
4105,989,1049
4106,991,1051
4107,993,1052
4108,995,1048
4109,992,1047
4110,986,1043
4111,983,1043
4112,981,1046
4113,984,1047
4114,987,1046
4115,985,1046
4116,982,1043
4117,979,1040
4118,980,1044
4119,981,1045
4120,981,1046
4121,978,1043
4122,973,1041
4123,971,1043
4124,970,1047
4125,971,1050
4126,977,1052
4127,976,1052
4128,972,1050
4129,968,1049
4130,963,1052
4131,967,1055
4132,970,1054
4133,970,1053
4134,969,1051
4135,966,1051
4136,967,1055
4137,967,1057
4138,969,1056
4139,967,1056
4140,965,1051
4141,965,1053
4142,964,1057
4143,969,1057
4144,970,1056
4145,967,1055
4146,964,1051
4147,962,1052
4148,960,1053
4149,966,1055
4150,966,1058
4151,965,1054
4152,963,1050
4153,960,1052
4154,963,1053
4155,962,1055
4156,967,1053
4157,966,1053
4158,962,1049
4159,962,1049
4160,960,1051
4161,963,1053
4162,968,1052
4163,966,1050
4164,965,1045
4165,965,1047
4166,966,1050
4167,967,1051
4168,973,1051
4169,973,1045
4170,975,1033
4171,976,1017
4172,980,1001
4173,984,977
4174,996,957
4175,1006,929
4176,1014,908
4177,1028,893
4178,1039,883
4179,1045,880
4180,1051,880
4181,1044,876
4182,1030,871
4183,1013,867
4184,1002,871
4185,997,881
4186,1008,891
4187,1023,892
4188,1043,899
4189,1070,905
4190,1096,911
4191,1124,913
4192,1149,920
4193,1163,919
4194,1162,922
4195,1150,926
4196,1130,940
4197,1111,954
4198,1093,965
4199,1076,975
4200,1051,982
4201,1022,994
4202,997,1008
4203,973,1023
4204,951,1036
4205,933,1047
4206,918,1054
4207,910,1062
4208,907,1071
4209,911,1074
4210,918,1079
4211,926,1079
4212,931,1079
4213,938,1080
4214,945,1080
4215,951,1085
4216,956,1085
4217,957,1086
4218,954,1087
4219,950,1086
4220,950,1088
4221,954,1091
4222,960,1091
4223,957,1090
4224,956,1090
4225,955,1090
4226,955,1092
4227,958,1094
4228,958,1093
4229,962,1092
4230,959,1090
4231,958,1092
4232,959,1096
4233,962,1098
4234,964,1099
4235,961,1097
4236,960,1097
4237,956,1099
4238,962,1097
4239,960,1102
4240,965,1104
4241,967,1100
4242,964,1100
4243,963,1101
4244,965,1106
4245,968,1109
4246,971,1109
4247,971,1108
4248,969,1107
4249,969,1109
4250,971,1112
4251,974,1114
4252,980,1114
4253,979,1113
4254,976,1113
4255,979,1113
4256,981,1116
4257,985,1120
4258,989,1119
4259,991,1116
4260,990,1115
4261,990,1117
4262,994,1117
4263,996,1118
4264,1005,1120
4265,1004,1113
4266,1004,1110
4267,1005,1110
4268,1010,1111
4269,1014,1111
4270,1019,1105
4271,1020,1100
4272,1019,1095
4273,1019,1090
4274,1020,1087
4275,1022,1088
4276,1028,1084
4277,1030,1077
4278,1031,1071
4279,1033,1069
4280,1036,1066
4281,1040,1067
4282,1044,1063
4283,1044,1058
4284,1044,1057
4285,1040,1053
4286,1041,1056
4287,1040,1057
4288,1038,1059
4289,1033,1052
4290,1029,1048
4291,1022,1048
4292,1016,1047
4293,1015,1052
4294,1014,1051
4295,1009,1049
4296,1001,1049
4297,994,1045
4298,992,1048
4299,989,1052
4300,988,1052
4301,988,1050
4302,984,1048
4303,980,1048
4304,980,1047
4305,981,1050
4306,983,1051
4307,980,1049
4308,975,1046
4309,970,1044
4310,971,1048
4311,972,1050
4312,974,1051
4313,972,1050
4314,970,1049
4315,968,1046
4316,965,1049
4317,969,1051
4318,972,1053
4319,970,1050
4320,972,1049
4321,965,1047
4322,968,1049
4323,969,1053
4324,974,1053
4325,973,1051
4326,969,1046
4327,967,1048
4328,967,1051
4329,968,1054
4330,973,1054
4331,973,1052
4332,971,1050
4333,967,1050
4334,963,1052
4335,965,1056
4336,973,1055
4337,970,1053
4338,965,1050
4339,966,1051
4340,965,1054
4341,968,1057
4342,967,1057
4343,966,1052
4344,965,1051
4345,960,1052
4346,960,1054
4347,963,1053
4348,962,1053
4349,962,1053
4350,961,1051
4351,959,1050
4352,960,1051
4353,964,1051
4354,967,1051
4355,964,1052
4356,962,1049
4357,958,1047
4358,957,1051
4359,961,1051
4360,964,1053
4361,963,1051
4362,960,1048
4363,955,1048
4364,955,1048
4365,960,1050
4366,959,1052
4367,958,1050
4368,955,1047
4369,953,1045
4370,952,1049
4371,955,1049
4372,959,1049
4373,961,1047
4374,959,1044
4375,954,1044
4376,955,1046
4377,958,1050
4378,960,1047
4379,956,1049
4380,956,1044
4381,954,1045
4382,957,1047
4383,957,1047
4384,957,1049
4385,957,1049
4386,956,1047
4387,954,1046
4388,953,1053
4389,955,1054
4390,957,1054
4391,955,1053
4392,954,1053
4393,957,1051
4394,955,1055
4395,960,1059
4396,962,1058
4397,962,1055
4398,961,1051
4399,958,1046
4400,960,1048
4401,965,1050
4402,969,1047
4403,970,1046
4404,970,1040
4405,966,1037
4406,967,1040
4407,970,1039
4408,970,1040
4409,969,1035
4410,960,1033
4411,958,1031
4412,963,1034
4413,963,1035
4414,964,1034
4415,962,1031
4416,957,1031
4417,956,1029
4418,955,1032
4419,956,1035
4420,959,1034
4421,957,1033
4422,953,1029
4423,948,1031
4424,948,1035
4425,948,1039
4426,951,1042
4427,950,1041
4428,946,1041
4429,943,1037
4430,941,1041
4431,939,1042
4432,942,1042
4433,943,1043
4434,940,1042
4435,937,1040
4436,937,1041
4437,937,1040
4438,941,1043
4439,941,1041
4440,939,1040
4441,937,1039
4442,936,1044
4443,937,1046
4444,937,1045
4445,936,1041
4446,935,1041
4447,933,1038
4448,935,1041
4449,938,1045
4450,939,1043
4451,939,1042
4452,938,1040
4453,937,1040
4454,934,1040
4455,935,1043
4456,941,1043
4457,940,1043
4458,938,1041
4459,937,1040
4460,933,1041
4461,937,1043
4462,941,1043
4463,940,1042
4464,938,1038
4465,938,1040
4466,939,1040
4467,944,1043
4468,948,1038
4469,953,1028
4470,955,1011
4471,957,990
4472,962,970
4473,973,949
4474,987,927
4475,1002,901
4476,1011,882
4477,1018,867
4478,1022,861
4479,1023,861
4480,1020,864
4481,1003,859
4482,979,851
4483,959,854
4484,950,863
4485,956,874
4486,975,882
4487,998,886
4488,1023,889
4489,1050,893
4490,1075,901
4491,1096,906
4492,1110,912
4493,1114,914
4494,1101,916
4495,1078,927
4496,1058,941
4497,1042,955
4498,1025,966
4499,1005,979
4500,985,984
4501,965,996
4502,945,1008
4503,930,1021
4504,918,1033
4505,905,1040
4506,894,1048
4507,886,1052
4508,885,1059
4509,889,1067
4510,898,1069
4511,904,1068
4512,912,1066
4513,916,1071
4514,919,1073
4515,924,1077
4516,925,1077
4517,923,1078
4518,922,1076
4519,921,1075
4520,923,1080
4521,927,1083
4522,930,1082
4523,930,1081
4524,923,1080
4525,920,1079
4526,919,1083
4527,924,1085
4528,927,1086
4529,928,1084
4530,928,1083
4531,927,1084
4532,928,1088
4533,929,1090
4534,931,1093
4535,932,1090
4536,928,1090
4537,928,1088
4538,927,1092
4539,932,1096
4540,935,1097
4541,934,1095
4542,935,1096
4543,935,1097
4544,939,1099
4545,942,1100
4546,946,1103
4547,946,1103
4548,945,1101
4549,943,1102
4550,947,1103
4551,949,1105
4552,956,1106
4553,958,1107
4554,955,1105
4555,957,1103
4556,960,1107
4557,961,1110
4558,967,1110
4559,970,1110
4560,970,1105
4561,970,1104
4562,974,1105
4563,977,1107
4564,980,1104
4565,984,1101
4566,985,1096
4567,985,1093
4568,987,1093
4569,991,1091
4570,996,1090
4571,998,1082
4572,998,1074
4573,1001,1070
4574,999,1066
4575,1005,1065
4576,1011,1063
4577,1013,1058
4578,1013,1050
4579,1014,1049
4580,1014,1049
4581,1018,1049
4582,1015,1048
4583,1015,1045
4584,1013,1041
4585,1007,1040
4586,1002,1042
4587,1000,1043
4588,995,1041
4589,991,1041
4590,982,1037
4591,975,1035
4592,971,1037
4593,970,1039
4594,967,1038
4595,964,1036
4596,961,1034
4597,955,1032
4598,952,1035
4599,952,1037
4600,953,1037
4601,954,1036
4602,949,1033
4603,945,1033
4604,944,1037
4605,947,1036
4606,947,1038
4607,948,1038
4608,943,1035
4609,940,1033
4610,940,1036
4611,943,1038
4612,943,1040
4613,944,1039
4614,943,1034
4615,945,1032
4616,944,1035
4617,944,1040
4618,948,1039
4619,950,1039
4620,946,1036
4621,943,1033
4622,942,1034
4623,946,1037
4624,951,1038
4625,949,1039
4626,950,1039
4627,946,1038
4628,946,1040
4629,948,1043
4630,954,1042
4631,953,1039
4632,951,1036
4633,948,1037
4634,947,1038
4635,950,1040
4636,951,1040
4637,952,1041
4638,950,1039
4639,949,1037
4640,946,1041
4641,949,1042
4642,953,1044
4643,951,1040
4644,951,1038
4645,949,1038
4646,949,1039
4647,952,1040
4648,954,1041
4649,953,1041
4650,950,1036
4651,950,1034
4652,949,1035
4653,953,1037
4654,955,1037
4655,955,1036
4656,949,1034
4657,949,1036
4658,946,1035
4659,952,1038
4660,954,1038
4661,953,1034
4662,950,1031
4663,950,1033
4664,947,1034
4665,952,1037
4666,954,1038
4667,956,1036
4668,953,1033
4669,950,1035
4670,950,1036
4671,953,1038
4672,955,1037
4673,955,1035
4674,953,1033
4675,951,1033
4676,952,1038
4677,953,1041
4678,955,1044
4679,955,1042
4680,955,1039
4681,955,1040
4682,954,1042
4683,959,1044
4684,965,1048
4685,966,1046
4686,964,1044
4687,960,1044
4688,960,1045
4689,965,1049
4690,968,1048
4691,970,1043
4692,970,1037
4693,965,1035
4694,968,1033
4695,974,1035
4696,977,1034
4697,977,1031
4698,976,1028
4699,973,1023
4700,970,1026
4701,973,1028
4702,973,1027
4703,970,1025
4704,968,1019
4705,964,1021
4706,963,1023
4707,965,1024
4708,968,1026
4709,966,1024
4710,966,1022
4711,958,1020
4712,960,1025
4713,960,1026
4714,964,1027
4715,964,1024
4716,960,1023
4717,956,1024
4718,956,1030
4719,957,1033
4720,960,1036
4721,958,1032
4722,954,1029
4723,952,1027
4724,951,1029
4725,954,1034
4726,958,1033
4727,959,1033
4728,954,1032
4729,950,1028
4730,949,1031
4731,953,1032
4732,958,1033
4733,956,1033
4734,953,1031
4735,949,1028
4736,946,1030
4737,949,1032
4738,952,1033
4739,956,1033
4740,953,1030
4741,951,1030
4742,949,1031
4743,949,1033
4744,956,1035
4745,956,1033
4746,954,1032
4747,950,1029
4748,950,1030
4749,953,1034
4750,955,1035
4751,953,1034
4752,953,1029
4753,951,1030
4754,950,1030
4755,956,1031
4756,958,1033
4757,958,1032
4758,956,1027
4759,952,1028
4760,955,1025
4761,961,1020
4762,969,1006
4763,974,985
4764,975,961
4765,980,935
4766,992,909
4767,1008,891
4768,1023,872
4769,1037,856
4770,1046,848
4771,1051,844
4772,1050,849
4773,1047,850
4774,1039,847
4775,1025,846
4776,1012,851
4777,1009,857
4778,1019,866
4779,1041,875
4780,1068,885
4781,1093,884
4782,1119,886
4783,1135,892
4784,1151,895
4785,1160,902
4786,1155,908
4787,1137,917
4788,1111,925
4789,1090,938
4790,1075,952
4791,1059,964
4792,1043,976
4793,1022,985
4794,995,995
4795,970,1006
4796,951,1017
4797,937,1031
4798,927,1042
4799,919,1050
4800,911,1051
4801,907,1056
4802,909,1062
4803,916,1064
4804,929,1067
4805,931,1065
4806,938,1066
4807,938,1067
4808,939,1069
4809,943,1073
4810,945,1077
4811,946,1075
4812,944,1073
4813,943,1076
4814,943,1076
4815,941,1077
4816,948,1077
4817,949,1078
4818,946,1076
4819,941,1076
4820,941,1077
4821,948,1081
4822,949,1081
4823,948,1081
4824,946,1080
4825,943,1079
4826,945,1081
4827,946,1084
4828,951,1086
4829,950,1085
4830,948,1083
4831,945,1085
4832,947,1086
4833,951,1087
4834,953,1092
4835,953,1088
4836,953,1089
4837,951,1088
4838,952,1094
4839,954,1096
4840,958,1097
4841,960,1099
4842,961,1096
4843,956,1097
4844,957,1099
4845,961,1101
4846,962,1104
4847,966,1107
4848,964,1102
4849,963,1103
4850,964,1104
4851,968,1107
4852,974,1109
4853,975,1107
4854,974,1107
4855,972,1107
4856,975,1107
4857,979,1111
4858,981,1110
4859,983,1107
4860,981,1104
4861,986,1102
4862,987,1105
4863,991,1103
4864,996,1102
4865,999,1098
4866,998,1090
4867,998,1089
4868,999,1086
4869,1003,1085
4870,1007,1084
4871,1009,1076
4872,1011,1072
4873,1011,1066
4874,1015,1063
4875,1018,1063
4876,1024,1060
4877,1027,1054
4878,1026,1050
4879,1028,1045
4880,1027,1045
4881,1032,1045
4882,1038,1045
4883,1035,1042
4884,1033,1039
4885,1028,1038
4886,1024,1040
4887,1023,1039
4888,1023,1043
4889,1018,1037
4890,1012,1036
4891,1005,1036
4892,1003,1036
4893,999,1039
4894,1000,1040
4895,995,1038
4896,990,1033
4897,986,1033
4898,984,1035
4899,982,1038
4900,982,1038
4901,977,1038
4902,976,1035
4903,974,1031
4904,972,1034
4905,973,1037
4906,975,1039
4907,975,1035
4908,970,1034
4909,969,1031
4910,969,1035
4911,968,1038
4912,973,1036
4913,972,1034
4914,970,1033
4915,966,1032
4916,967,1034
4917,968,1039
4918,967,1039
4919,969,1036
4920,971,1035
4921,967,1034
4922,970,1035
4923,971,1039
4924,974,1042
4925,973,1038
4926,970,1036
4927,968,1036
4928,968,1037
4929,969,1041
4930,975,1043
4931,974,1042
4932,971,1038
4933,968,1040
4934,970,1041
4935,973,1043
4936,973,1042
4937,975,1039
4938,972,1041
4939,968,1040
4940,970,1041
4941,972,1042
4942,976,1045
4943,973,1041
4944,972,1040
4945,968,1040
4946,968,1040
4947,968,1043
4948,974,1043
4949,974,1040
4950,969,1038
4951,966,1040
4952,970,1041
4953,971,1042
4954,974,1041
4955,972,1040
4956,970,1040
4957,967,1037
4958,966,1039
4959,971,1041
4960,971,1044
4961,971,1041
4962,970,1037
4963,968,1038
4964,967,1038
4965,966,1038
4966,971,1042
4967,973,1039
4968,970,1036
4969,968,1035
4970,966,1037
4971,967,1039
4972,970,1041
4973,969,1037
4974,969,1035
4975,967,1033
4976,967,1036
4977,967,1037
4978,972,1039
4979,971,1039
4980,970,1033
4981,967,1034
4982,966,1034
4983,968,1037
4984,969,1039
4985,968,1037
4986,966,1035
4987,966,1033
4988,966,1038
4989,965,1044
4990,972,1044
4991,970,1043
4992,968,1043
4993,965,1042
4994,967,1044
4995,971,1046
4996,978,1046
4997,976,1046
4998,972,1043
4999,972,1044
5000,978,1048
5001,977,1048
5002,983,1046
5003,983,1042
5004,982,1036
5005,978,1032
5006,979,1035
5007,985,1036
5008,989,1036
5009,990,1034
5010,986,1031
5011,983,1027
5012,981,1030
5013,985,1031
5014,986,1030
5015,984,1027
5016,981,1023
5017,981,1023
5018,975,1025
5019,977,1028
5020,980,1028
5021,979,1026
5022,974,1023
5023,973,1023
5024,974,1024
5025,974,1026
5026,973,1025
5027,977,1023
5028,972,1023
5029,968,1023
5030,967,1026
5031,969,1029
5032,974,1035
5033,974,1033
5034,969,1029
5035,965,1031
5036,962,1033
5037,964,1033
5038,965,1036
5039,966,1034
5040,965,1031
5041,963,1032
5042,962,1033
5043,963,1034
5044,964,1037
5045,961,1035
5046,958,1034
5047,956,1034
5048,960,1034
5049,960,1035
5050,964,1037
5051,962,1034
5052,961,1032
5053,959,1033
5054,956,1034
5055,958,1038
5056,963,1037
5057,964,1037
5058,960,1034
5059,957,1031
5060,957,1035
5061,961,1037
5062,961,1037
5063,963,1035
5064,962,1031
5065,961,1030
5066,960,1033
5067,961,1035
5068,964,1036
5069,965,1033
5070,962,1030
5071,959,1030
5072,962,1032
5073,965,1034
5074,969,1034
5075,970,1030
5076,971,1019
5077,971,1003
5078,974,986
5079,978,963
5080,992,942
5081,1000,911
5082,1011,886
5083,1018,863
5084,1035,848
5085,1048,844
5086,1059,841
5087,1063,841
5088,1057,839
5089,1045,834
5090,1032,836
5091,1023,840
5092,1019,851
5093,1025,860
5094,1037,865
5095,1057,869
5096,1084,878
5097,1115,886
5098,1139,891
5099,1156,891
5100,1165,896
5101,1162,903
5102,1148,911
5103,1126,927
5104,1109,940
5105,1092,950
5106,1074,957
5107,1049,968
5108,1030,982
5109,1008,996
5110,985,1007
5111,964,1020
5112,945,1028
5113,927,1039
5114,918,1049
5115,916,1057
5116,917,1063
5117,921,1064
5118,927,1062
5119,933,1063
5120,936,1068
5121,944,1069
5122,948,1072
5123,950,1073
5124,950,1071
5125,947,1070
5126,947,1074
5127,951,1078
5128,954,1080
5129,952,1079
5130,950,1078
5131,950,1075
5132,949,1079
5133,953,1081
5134,957,1084
5135,956,1082
5136,957,1080
5137,954,1080
5138,954,1083
5139,954,1084
5140,959,1088
5141,957,1088
5142,956,1084
5143,954,1085
5144,953,1088
5145,960,1090
5146,960,1092
5147,964,1091
5148,960,1091
5149,957,1090
5150,957,1093
5151,960,1097
5152,962,1099
5153,965,1099
5154,966,1097
5155,965,1096
5156,963,1101
5157,968,1103
5158,974,1105
5159,973,1104
5160,974,1103
5161,973,1104
5162,974,1106
5163,976,1104
5164,979,1108
5165,980,1108
5166,981,1108
5167,978,1108
5168,982,1111
5169,991,1116
5170,996,1118
5171,1000,1116
5172,1000,1112
5173,998,1113
5174,996,1114
5175,1000,1113
5176,1000,1113
5177,1001,1110
5178,1000,1106
5179,999,1104
5180,999,1102
5181,1008,1100
5182,1014,1098
5183,1014,1095
5184,1018,1088
5185,1017,1084
5186,1019,1080
5187,1021,1079
5188,1025,1075
5189,1029,1069
5190,1034,1063
5191,1033,1055
5192,1032,1054
5193,1040,1057
5194,1043,1052
5195,1044,1047
5196,1042,1045
5197,1041,1042
5198,1041,1042
5199,1042,1044
5200,1043,1043
5201,1041,1042
5202,1035,1037
5203,1030,1036
5204,1024,1038
5205,1022,1039
5206,1021,1039
5207,1019,1039
5208,1009,1034
5209,1005,1033
5210,1001,1037
5211,1000,1037
5212,1001,1038
5213,997,1035
5214,993,1030
5215,990,1032
5216,988,1034
5217,987,1034
5218,984,1036
5219,985,1031
5220,984,1033
5221,980,1033
5222,978,1033
5223,977,1034
5224,982,1036
5225,980,1035
5226,978,1032
5227,975,1034
5228,970,1033
5229,976,1037
5230,979,1037
5231,976,1035
5232,975,1035
5233,973,1032
5234,972,1036
5235,971,1037
5236,978,1039
5237,978,1037
5238,975,1036
5239,973,1033
5240,975,1035
5241,975,1036
5242,980,1038
5243,977,1037
5244,974,1036
5245,972,1034
5246,968,1035
5247,976,1039
5248,978,1041
5249,977,1039
5250,973,1037
5251,972,1037
5252,971,1038
5253,972,1039
5254,976,1045
5255,976,1039
5256,975,1040
5257,972,1039
5258,971,1039
5259,972,1044
5260,974,1042
5261,976,1041
5262,976,1039
5263,971,1037
5264,971,1038
5265,971,1043
5266,975,1042
5267,972,1042
5268,972,1039
5269,972,1035
5270,968,1039
5271,969,1041
5272,974,1040
5273,974,1039
5274,974,1038
5275,970,1036
5276,970,1038
5277,974,1039
5278,975,1042
5279,974,1039
5280,972,1037
5281,973,1035
5282,970,1037
5283,973,1040
5284,976,1041
5285,975,1038
5286,971,1036
5287,970,1034
5288,968,1037
5289,970,1039
5290,973,1040
5291,974,1040
5292,973,1036
5293,971,1034
5294,969,1036
5295,971,1039
5296,972,1040
5297,971,1039
5298,971,1035
5299,970,1033
5300,969,1034
5301,972,1038
5302,974,1041
5303,974,1039
5304,970,1038
5305,967,1036
5306,966,1037
5307,969,1044
5308,971,1045
5309,973,1045
5310,969,1045
5311,965,1042
5312,965,1045
5313,971,1046
5314,975,1047
5315,979,1046
5316,978,1046
5317,976,1046
5318,975,1047
5319,977,1050
5320,982,1049
5321,982,1046
5322,979,1042
5323,977,1037
5324,979,1038
5325,984,1039
5326,986,1040
5327,987,1036
5328,987,1033
5329,985,1032
5330,985,1031
5331,984,1032
5332,985,1029
5333,984,1032
5334,982,1025
5335,978,1024
5336,979,1026
5337,981,1028
5338,978,1031
5339,979,1028
5340,975,1025
5341,972,1024
5342,969,1026
5343,972,1028
5344,973,1028
5345,970,1029
5346,969,1024
5347,965,1026
5348,965,1027
5349,967,1033
5350,968,1036
5351,968,1036
5352,967,1034
5353,963,1034
5354,959,1034
5355,963,1040
5356,966,1037
5357,964,1037
5358,964,1033
5359,959,1033
5360,957,1034
5361,960,1041
5362,963,1040
5363,966,1039
5364,962,1037
5365,959,1037
5366,957,1039
5367,964,1040
5368,963,1041
5369,962,1039
5370,960,1036
5371,959,1037
5372,959,1036
5373,959,1039
5374,962,1040
5375,961,1039
5376,962,1035
5377,957,1033
5378,957,1037
5379,962,1039
5380,964,1040
5381,962,1038
5382,960,1036
5383,958,1036
5384,955,1037
5385,961,1040
5386,965,1039
5387,964,1036
5388,962,1035
5389,961,1033
5390,961,1037
5391,963,1040
5392,970,1036
5393,974,1027
5394,975,1011
5395,974,990
5396,981,970
5397,987,943
5398,1000,919
5399,1011,895
5400,1024,870
5401,1032,856
5402,1038,843
5403,1045,848
5404,1048,850
5405,1047,845
5406,1030,839
5407,1015,837
5408,1006,848
5409,1006,859
5410,1021,865
5411,1038,872
5412,1060,876
5413,1081,881
5414,1106,884
5415,1127,889
5416,1145,894
5417,1156,898
5418,1152,902
5419,1142,908
5420,1118,919
5421,1100,930
5422,1085,946
5423,1070,954
5424,1049,963
5425,1027,970
5426,1005,983
5427,984,999
5428,963,1012
5429,943,1023
5430,926,1033
5431,913,1044
5432,903,1054
5433,903,1061
5434,910,1065
5435,919,1067
5436,923,1066
5437,931,1067
5438,935,1067
5439,943,1074
5440,948,1076
5441,953,1077
5442,951,1075
5443,948,1073
5444,945,1077
5445,946,1077
5446,951,1083
5447,953,1082
5448,950,1078
5449,950,1078
5450,951,1081
5451,953,1084
5452,955,1089
5453,955,1086
5454,955,1084
5455,952,1081
5456,951,1083
5457,953,1087
5458,957,1089
5459,959,1088
5460,955,1087
5461,954,1087
5462,957,1089
5463,959,1092
5464,964,1096
5465,963,1093
5466,962,1091
5467,958,1093
5468,958,1093
5469,963,1100
5470,966,1102
5471,969,1099
5472,968,1099
5473,964,1100
5474,964,1101
5475,968,1106
5476,971,1108
5477,976,1107
5478,974,1107
5479,974,1105
5480,974,1109
5481,979,1110
5482,982,1115
5483,983,1111
5484,984,1112
5485,981,1110
5486,983,1109
5487,986,1114
5488,988,1118
5489,991,1116
5490,993,1112
5491,990,1112
5492,991,1112
5493,999,1111
5494,1001,1112
5495,1006,1107
5496,1008,1103
5497,1007,1101
5498,1010,1100
5499,1012,1099
5500,1017,1097
5501,1019,1093
5502,1017,1086
5503,1019,1081
5504,1020,1080
5505,1024,1073
5506,1029,1074
5507,1033,1065
5508,1034,1059
5509,1035,1052
5510,1034,1052
5511,1036,1053
5512,1045,1052
5513,1047,1051
5514,1043,1045
5515,1040,1042
5516,1039,1043
5517,1038,1044
5518,1037,1046
5519,1034,1042
5520,1030,1040
5521,1024,1038
5522,1017,1040
5523,1017,1042
5524,1016,1043
5525,1010,1039
5526,1006,1036
5527,999,1035
5528,997,1038
5529,995,1040
5530,995,1042
5531,991,1039
5532,984,1034
5533,980,1032
5534,981,1035
5535,980,1039
5536,982,1041
5537,982,1038
5538,978,1036
5539,977,1034
5540,974,1035
5541,976,1038
5542,977,1039
5543,976,1041
5544,975,1037
5545,973,1037
5546,971,1038
5547,971,1040
5548,975,1042
5549,977,1039
5550,972,1039
5551,972,1033
5552,971,1036
5553,968,1039
5554,973,1042
5555,975,1040
5556,973,1041
5557,972,1036
5558,971,1040
5559,972,1042
5560,972,1042
5561,973,1041
5562,974,1040
5563,970,1039
5564,968,1042
5565,972,1044
5566,972,1047
5567,975,1043
5568,973,1040
5569,970,1041
5570,970,1042
5571,971,1046
5572,974,1046
5573,976,1045
5574,973,1042
5575,971,1041
5576,970,1041
5577,970,1043
5578,972,1045
5579,973,1042
5580,971,1041
5581,971,1040
5582,969,1040
5583,972,1046
5584,973,1046
5585,973,1044
5586,972,1042
5587,966,1040
5588,968,1042
5589,971,1043
5590,973,1044
5591,970,1044
5592,967,1039
5593,967,1037
5594,967,1040
5595,967,1039
5596,972,1042
5597,971,1040
5598,969,1037
5599,965,1036
5600,964,1037
5601,966,1039
5602,968,1043
5603,968,1039
5604,967,1036
5605,964,1036
5606,964,1037
5607,967,1040
5608,969,1043
5609,969,1040
5610,968,1038
5611,966,1036
5612,964,1036
5613,967,1039
5614,972,1040
5615,971,1041
5616,968,1037
5617,964,1039
5618,962,1036
5619,963,1040
5620,967,1044
5621,971,1044
5622,968,1042
5623,963,1041
5624,965,1045
5625,965,1047
5626,970,1047
5627,973,1046
5628,973,1043
5629,971,1044
5630,975,1045
5631,975,1048
5632,976,1048
5633,977,1045
5634,976,1037
5635,977,1034
5636,978,1035
5637,982,1034
5638,986,1039
5639,986,1037
5640,987,1032
5641,986,1031
5642,985,1031
5643,987,1033
5644,985,1033
5645,984,1029
5646,980,1025
5647,978,1023
5648,976,1024
5649,976,1027
5650,978,1027
5651,977,1024
5652,975,1023
5653,973,1020
5654,970,1023
5655,970,1027
5656,972,1027
5657,974,1025
5658,971,1023
5659,969,1022
5660,968,1024
5661,967,1029
5662,971,1033
5663,971,1036
5664,966,1032
5665,962,1029
5666,959,1030
5667,961,1031
5668,961,1036
5669,965,1035
5670,964,1032
5671,964,1030
5672,961,1032
5673,962,1034
5674,960,1037
5675,959,1033
5676,961,1032
5677,960,1033
5678,958,1035
5679,958,1037
5680,961,1039
5681,962,1036
5682,960,1034
5683,958,1031
5684,959,1032
5685,960,1034
5686,963,1039
5687,963,1036
5688,960,1037
5689,956,1033
5690,958,1035
5691,959,1034
5692,961,1038
5693,962,1035
5694,959,1032
5695,959,1030
5696,959,1032
5697,959,1033
5698,965,1034
5699,967,1034
5700,966,1032
5701,963,1026
5702,964,1013
5703,973,996
5704,986,970
5705,994,938
5706,1003,907
5707,1014,877
5708,1027,858
5709,1039,847
5710,1049,847
5711,1052,844
5712,1045,843
5713,1029,838
5714,1014,837
5715,1003,844
5716,1004,854
5717,1014,862
5718,1029,867
5719,1049,872
5720,1075,877
5721,1106,885
5722,1127,889
5723,1144,892
5724,1153,896
5725,1150,902
5726,1132,910
5727,1115,922
5728,1097,939
5729,1075,946
5730,1057,952
5731,1032,965
5732,1008,976
5733,990,990
5734,969,1004
5735,950,1017
5736,930,1026
5737,915,1037
5738,907,1046
5739,904,1053
5740,909,1061
5741,917,1061
5742,923,1062
5743,927,1061
5744,933,1065
5745,939,1068
5746,947,1071
5747,949,1072
5748,948,1073
5749,947,1067
5750,947,1069
5751,949,1074
5752,953,1077
5753,953,1079
5754,952,1075
5755,951,1076
5756,950,1077
5757,953,1078
5758,956,1081
5759,954,1079
5760,953,1079
5761,950,1079
5762,951,1080
5763,955,1082
5764,958,1083
5765,959,1082
5766,957,1084
5767,955,1083
5768,953,1082
5769,957,1084
5770,960,1090
5771,964,1090
5772,961,1087
5773,960,1086
5774,961,1091
5775,964,1093
5776,967,1095
5777,969,1094
5778,966,1094
5779,966,1092
5780,965,1096
5781,971,1098
5782,976,1101
5783,977,1100
5784,977,1099
5785,975,1097
5786,976,1101
5787,979,1105
5788,980,1106
5789,983,1103
5790,983,1105
5791,982,1102
5792,984,1103
5793,988,1108
5794,993,1110
5795,995,1110
5796,995,1106
5797,996,1104
5798,996,1107
5799,999,1108
5800,1006,1108
5801,1009,1106
5802,1010,1100
5803,1007,1099
5804,1009,1096
5805,1013,1096
5806,1020,1097
5807,1023,1090
5808,1023,1083
5809,1023,1077
5810,1025,1074
5811,1027,1071
5812,1031,1069
5813,1037,1062
5814,1037,1058
5815,1033,1053
5816,1035,1049
5817,1041,1049
5818,1048,1048
5819,1047,1048
5820,1044,1041
5821,1043,1038
5822,1043,1038
5823,1040,1038
5824,1042,1037
5825,1039,1036
5826,1031,1032
5827,1027,1030
5828,1022,1032
5829,1018,1034
5830,1014,1037
5831,1010,1034
5832,1004,1032
5833,999,1031
5834,996,1029
5835,993,1035
5836,993,1037
5837,988,1035
5838,984,1032
5839,981,1030
5840,981,1031
5841,981,1035
5842,982,1037
5843,979,1037
5844,977,1033
5845,975,1033
5846,975,1033
5847,975,1033
5848,979,1035
5849,974,1033
5850,973,1030
5851,971,1029
5852,969,1031
5853,971,1034
5854,973,1034
5855,975,1037
5856,973,1034
5857,970,1031
5858,972,1034
5859,969,1036
5860,975,1037
5861,978,1036
5862,975,1032
5863,973,1030
5864,970,1033
5865,973,1036
5866,975,1036
5867,976,1037
5868,975,1035
5869,973,1032
5870,971,1035
5871,974,1039
5872,975,1041
5873,974,1038
5874,975,1035
5875,973,1038
5876,972,1038
5877,973,1040
5878,974,1042
5879,976,1040
5880,974,1038
5881,974,1034
5882,971,1036
5883,972,1039
5884,975,1041
5885,975,1038
5886,973,1035
5887,971,1035
5888,971,1035
5889,970,1037
5890,972,1038
5891,972,1039
5892,973,1037
5893,968,1035
5894,969,1036
5895,971,1038
5896,974,1040
5897,974,1036
5898,972,1035
5899,970,1032
5900,969,1035
5901,971,1037
5902,973,1036
5903,974,1036
5904,973,1033
5905,969,1032
5906,968,1035
5907,970,1037
5908,971,1036
5909,974,1034
5910,971,1033
5911,969,1032
5912,967,1032
5913,967,1035
5914,971,1037
5915,973,1034
5916,970,1029
5917,967,1030
5918,966,1031
5919,965,1032
5920,970,1035
5921,970,1035
5922,970,1031
5923,967,1029
5924,966,1031
5925,966,1035
5926,972,1037
5927,971,1037
5928,970,1036
5929,966,1034
5930,968,1037
5931,972,1042
5932,973,1045
5933,975,1043
5934,973,1039
5935,969,1037
5936,974,1036
5937,977,1042
5938,981,1045
5939,981,1044
5940,979,1042
5941,978,1037
5942,976,1040
5943,976,1038
5944,982,1038
5945,986,1034
5946,985,1028
5947,985,1027
5948,984,1028
5949,987,1027
5950,990,1031
5951,990,1026
5952,990,1022
5953,984,1018
5954,983,1021
5955,985,1022
5956,986,1024
5957,987,1018
5958,984,1018
5959,981,1016
5960,976,1018
5961,978,1019
5962,981,1023
5963,981,1023
5964,976,1020
5965,973,1016
5966,970,1017
5967,972,1018
5968,973,1020
5969,975,1022
5970,975,1020
5971,969,1020
5972,968,1022
5973,967,1028
5974,971,1029
5975,971,1028
5976,968,1028
5977,961,1026
5978,962,1027
5979,963,1028
5980,967,1032
5981,970,1030
5982,966,1028
5983,961,1025
5984,958,1026
5985,961,1030
5986,961,1030
5987,962,1030
5988,963,1029
5989,955,1026
5990,957,1027
5991,957,1034
5992,963,1031
5993,963,1031
5994,960,1029
5995,959,1026
5996,957,1029
5997,958,1031
5998,962,1032
5999,962,1031
6000,960,1027
6001,957,1025
6002,957,1027
6003,959,1031
6004,958,1034
6005,963,1028
6006,961,1026
6007,959,1027
6008,960,1026
6009,961,1029
6010,962,1033
6011,962,1029
6012,960,1027
6013,960,1024
6014,956,1027
6015,960,1028
6016,963,1031
6017,967,1027
6018,967,1022
6019,967,1009
6020,968,996
6021,977,978
6022,983,958
6023,992,931
6024,1001,902
6025,1011,879
6026,1022,863
6027,1035,848
6028,1043,846
6029,1043,841
6030,1040,840
6031,1030,834
6032,1014,831
6033,1001,833
6034,994,842
6035,994,846
6036,1004,854
6037,1022,857
6038,1045,865
6039,1073,872
6040,1100,877
6041,1121,883
6042,1135,881
6043,1145,885
6044,1145,891
6045,1134,901
6046,1116,915
6047,1097,925
6048,1074,933
6049,1050,943
6050,1026,957
6051,1010,970
6052,987,985
6053,960,996
6054,937,1008
6055,915,1018
6056,904,1030
6057,899,1043
6058,902,1052
6059,904,1055
6060,911,1057
6061,919,1057
6062,924,1060
6063,932,1062
6064,942,1064
6065,948,1064
6066,947,1063
6067,945,1062
6068,944,1065
6069,944,1070
6070,948,1072
6071,950,1073
6072,948,1071
6073,947,1069
6074,945,1072
6075,947,1073
6076,949,1076
6077,953,1073
6078,949,1070
6079,948,1072
6080,947,1073
6081,950,1077
6082,953,1080
6083,954,1078
6084,955,1078
6085,953,1078
6086,953,1079
6087,955,1081
6088,959,1084
6089,960,1084
6090,960,1084
6091,959,1082
6092,956,1085
6093,960,1087
6094,964,1093
6095,966,1091
6096,966,1090
6097,963,1090
6098,963,1090
6099,968,1095
6100,972,1097
6101,973,1098
6102,973,1097
6103,974,1095
6104,972,1099
6105,976,1102
6106,980,1105
6107,985,1105
6108,984,1101
6109,984,1099
6110,984,1099
6111,988,1101
6112,992,1104
6113,995,1104
6114,997,1102
6115,997,1100
6116,1000,1099
6117,1003,1098
6118,1009,1097
6119,1012,1093
6120,1013,1094
6121,1013,1087
6122,1014,1086
6123,1020,1084
6124,1024,1081
6125,1029,1076
6126,1029,1069
6127,1029,1060
6128,1031,1057
6129,1032,1058
6130,1040,1054
6131,1043,1049
6132,1041,1046
6133,1041,1040
6134,1040,1038
6135,1041,1038
6136,1044,1041
6137,1042,1038
6138,1039,1033
6139,1033,1029
6140,1028,1029
6141,1025,1032
6142,1023,1034
6143,1018,1032
6144,1014,1031
6145,1007,1030
6146,1002,1028
6147,1002,1034
6148,995,1031
6149,993,1031
6150,989,1029
6151,983,1026
6152,979,1028
6153,979,1031
6154,979,1030
6155,979,1032
6156,978,1030
6157,972,1029
6158,968,1030
6159,972,1030
6160,975,1032
6161,974,1030
6162,971,1028
6163,969,1029
6164,966,1029
6165,965,1031
6166,968,1033
6167,970,1032
6168,967,1030
6169,967,1028
6170,967,1032
6171,968,1034
6172,970,1036
6173,971,1036
6174,966,1031
6175,966,1027
6176,966,1030
6177,965,1034
6178,966,1037
6179,968,1036
6180,967,1035
6181,964,1033
6182,962,1034
6183,966,1037
6184,966,1040
6185,968,1036
6186,965,1035
6187,964,1033
6188,965,1037
6189,966,1039
6190,970,1041
6191,969,1036
6192,968,1033
6193,964,1031
6194,964,1034
6195,966,1039
6196,969,1040
6197,971,1038
6198,968,1037
6199,965,1033
6200,961,1037
6201,966,1039
6202,966,1040
6203,969,1039
6204,967,1033
6205,964,1033
6206,962,1034
6207,963,1037
6208,968,1036
6209,967,1037
6210,967,1034
6211,964,1029
6212,964,1031
6213,965,1035
6214,967,1038
6215,967,1037
6216,966,1034
6217,960,1032
6218,964,1033
6219,964,1034
6220,967,1035
6221,965,1038
6222,963,1033
6223,960,1031
6224,958,1030
6225,960,1032
6226,964,1036
6227,964,1034
6228,964,1032
6229,960,1027
6230,959,1032
6231,960,1034
6232,965,1037
6233,966,1038
6234,967,1038
6235,961,1038
6236,961,1039
6237,958,1044
6238,961,1046
6239,967,1044
6240,967,1042
6241,967,1038
6242,968,1039
6243,968,1042
6244,972,1044
6245,972,1042
6246,972,1038
6247,971,1033
6248,971,1032
6249,974,1034
6250,978,1036
6251,982,1032
6252,980,1029
6253,981,1024
6254,978,1024
6255,977,1026
6256,980,1027
6257,979,1024
6258,978,1021
6259,974,1018
6260,972,1020
6261,973,1022
6262,974,1024
6263,974,1022
6264,971,1019
6265,969,1018
6266,967,1020
6267,964,1021
6268,965,1023
6269,963,1023
6270,965,1021
6271,961,1021
6272,959,1026
6273,958,1029
6274,957,1035
6275,957,1033
6276,958,1030
6277,952,1031
6278,954,1030
6279,956,1033
6280,959,1035
6281,963,1032
6282,961,1030
6283,959,1029
6284,956,1029
6285,954,1031
6286,957,1037
6287,957,1035
6288,956,1032
6289,953,1029
6290,952,1032
6291,953,1034
6292,954,1035
6293,958,1034
6294,956,1031
6295,953,1031
6296,952,1032
6297,954,1034
6298,958,1035
6299,958,1034
6300,956,1032
6301,952,1028
6302,953,1030
6303,957,1033
6304,961,1037
6305,958,1035
6306,956,1030
6307,955,1028
6308,956,1031
6309,960,1030
6310,962,1033
6311,961,1029
6312,960,1027
6313,959,1027
6314,958,1029
6315,959,1032
6316,961,1034
6317,966,1026
6318,972,1015
6319,973,997
6320,978,981
6321,990,956
6322,1002,937
6323,1016,912
6324,1035,885
6325,1048,864
6326,1056,847
6327,1063,844
6328,1066,851
6329,1057,849
6330,1041,839
6331,1019,837
6332,1002,841
6333,998,850
6334,1003,863
6335,1021,868
6336,1041,873
6337,1063,875
6338,1093,883
6339,1119,891
6340,1140,900
6341,1155,906
6342,1152,909
6343,1142,915
6344,1119,927
6345,1099,943
6346,1082,956
6347,1063,965
6348,1040,976
6349,1019,984
6350,1002,999
6351,983,1015
6352,967,1027
6353,949,1036
6354,935,1043
6355,924,1047
6356,918,1054
6357,921,1057
6358,927,1061
6359,935,1060
6360,937,1062
6361,939,1063
6362,944,1066
6363,943,1070
6364,950,1072
6365,949,1072
6366,947,1069
6367,944,1066
6368,943,1069
6369,947,1076
6370,949,1076
6371,951,1074
6372,951,1073
6373,948,1072
6374,947,1072
6375,949,1078
6376,953,1081
6377,954,1080
6378,952,1078
6379,950,1075
6380,947,1075
6381,948,1079
6382,952,1085
6383,956,1081
6384,954,1080
6385,953,1079
6386,954,1082
6387,956,1084
6388,960,1091
6389,959,1089
6390,958,1087
6391,958,1088
6392,958,1089
6393,963,1093
6394,965,1097
6395,969,1095
6396,971,1095
6397,968,1094
6398,969,1097
6399,973,1099
6400,977,1102
6401,980,1103
6402,981,1101
6403,980,1099
6404,981,1098
6405,983,1101
6406,992,1102
6407,995,1103
6408,995,1099
6409,996,1096
6410,999,1098
6411,1002,1098
6412,1010,1102
6413,1013,1101
6414,1012,1095
6415,1015,1092
6416,1015,1086
6417,1019,1087
6418,1024,1085
6419,1028,1081
6420,1027,1074
6421,1029,1067
6422,1030,1065
6423,1035,1059
6424,1038,1060
6425,1045,1054
6426,1046,1046
6427,1045,1044
6428,1045,1040
6429,1046,1042
6430,1049,1042
6431,1050,1040
6432,1045,1035
6433,1040,1033
6434,1037,1030
6435,1036,1034
6436,1033,1037
6437,1030,1034
6438,1023,1031
6439,1015,1029
6440,1009,1031
6441,1005,1033
6442,1005,1034
6443,1004,1034
6444,997,1031
6445,994,1029
6446,990,1029
6447,989,1031
6448,990,1032
6449,988,1034
6450,986,1031
6451,981,1028
6452,979,1029
6453,980,1031
6454,983,1033
6455,984,1032
6456,980,1028
6457,978,1029
6458,976,1028
6459,978,1033
6460,980,1035
6461,981,1032
6462,978,1030
6463,975,1028
6464,975,1030
6465,977,1034
6466,979,1034
6467,982,1033
6468,980,1031
6469,977,1028
6470,973,1031
6471,978,1033
6472,978,1035
6473,981,1033
6474,977,1032
6475,975,1030
6476,977,1033
6477,976,1034
6478,981,1037
6479,983,1037
6480,983,1033
6481,980,1032
6482,979,1033
6483,981,1036
6484,983,1039
6485,984,1037
6486,983,1036
6487,981,1029
6488,980,1033
6489,982,1038
6490,984,1039
6491,986,1036
6492,982,1034
6493,980,1032
6494,980,1033
6495,981,1037
6496,985,1038
6497,985,1036
6498,983,1031
6499,979,1034
6500,978,1032
6501,982,1035
6502,983,1038
6503,985,1037
6504,984,1034
6505,978,1034
6506,978,1032
6507,981,1034
6508,983,1038
6509,984,1036
6510,983,1034
6511,979,1032
6512,978,1031
6513,980,1035
6514,984,1037
6515,982,1035
6516,980,1034
6517,977,1030
6518,979,1031
6519,977,1032
6520,981,1035
6521,981,1034
6522,980,1034
6523,979,1030
6524,977,1031
6525,976,1032
6526,980,1037
6527,979,1034
6528,982,1032
6529,980,1034
6530,977,1036
6531,977,1037
6532,982,1042
6533,982,1042
6534,981,1044
6535,980,1039
6536,979,1040
6537,980,1043
6538,988,1045
6539,991,1047
6540,989,1044
6541,988,1043
6542,987,1043
6543,986,1045
6544,987,1041
6545,993,1037
6546,992,1034
6547,991,1030
6548,992,1032
6549,994,1034
6550,1000,1033
6551,1000,1029
6552,999,1025
6553,991,1022
6554,991,1023
6555,993,1025
6556,994,1026
6557,994,1025
6558,990,1021
6559,987,1021
6560,984,1022
6561,986,1022
6562,987,1024
6563,987,1019
6564,985,1020
6565,981,1019
6566,977,1018
6567,980,1022
6568,982,1026
6569,983,1026
6570,979,1027
6571,979,1028
6572,974,1030
6573,974,1031
6574,977,1034
6575,974,1033
6576,976,1027
6577,972,1029
6578,970,1028
6579,973,1034
6580,975,1035
6581,975,1035
6582,972,1032
6583,970,1031
6584,969,1030
6585,971,1032
6586,975,1034
6587,975,1032
6588,973,1032
6589,970,1028
6590,969,1031
6591,970,1034
6592,974,1036
6593,976,1034
6594,973,1031
6595,970,1028
6596,967,1028
6597,971,1031
6598,975,1033
6599,973,1033
6600,974,1028
6601,969,1029
6602,970,1028
6603,972,1031
6604,974,1034
6605,975,1034
6606,975,1028
6607,971,1026
6608,970,1027
6609,973,1030
6610,978,1031
6611,979,1030
6612,978,1027
6613,979,1017
6614,982,1005
6615,988,985
6616,997,960
6617,1004,931
6618,1014,902
6619,1025,874
6620,1036,858
6621,1053,849
6622,1064,848
6623,1070,848
6624,1064,850
6625,1052,842
6626,1038,839
6627,1025,843
6628,1025,854
6629,1029,861
6630,1043,865
6631,1061,871
6632,1089,878
6633,1118,884
6634,1145,890
6635,1168,892
6636,1178,894
6637,1177,897
6638,1163,904
6639,1141,921
6640,1123,935
6641,1107,946
6642,1088,955
6643,1065,965
6644,1039,975
6645,1017,991
6646,994,1007
6647,971,1019
6648,952,1032
6649,935,1037
6650,925,1047
6651,921,1056
6652,928,1061
6653,935,1062
6654,942,1059
6655,948,1060
6656,953,1064
6657,956,1067
6658,962,1072
6659,962,1071
6660,962,1069
6661,958,1067
6662,959,1069
6663,960,1073
6664,962,1074
6665,965,1075
6666,963,1074
6667,961,1071
6668,961,1074
6669,962,1076
6670,963,1078
6671,965,1079
6672,967,1078
6673,962,1076
6674,963,1078
6675,966,1081
6676,965,1085
6677,969,1084
6678,969,1082
6679,967,1082
6680,965,1087
6681,969,1089
6682,968,1093
6683,972,1092
6684,969,1091
6685,972,1090
6686,972,1092
6687,973,1095
6688,979,1099
6689,980,1099
6690,980,1096
6691,980,1097
6692,980,1101
6693,983,1103
6694,986,1107
6695,989,1106
6696,990,1103
6697,988,1103
6698,987,1103
6699,991,1107
6700,997,1111
6701,1002,1107
6702,1002,1106
6703,1001,1104
6704,1004,1105
6705,1007,1108
6706,1009,1107
6707,1014,1101
6708,1016,1095
6709,1018,1093
6710,1019,1089
6711,1021,1089
6712,1025,1088
6713,1029,1077
6714,1032,1072
6715,1031,1066
6716,1034,1062
6717,1036,1059
6718,1041,1058
6719,1046,1052
6720,1047,1046
6721,1048,1041
6722,1049,1040
6723,1053,1042
6724,1053,1042
6725,1052,1040
6726,1047,1038
6727,1044,1034
6728,1038,1034
6729,1034,1038
6730,1033,1040
6731,1029,1039
6732,1023,1033
6733,1014,1032
6734,1007,1032
6735,1009,1036
6736,1009,1036
6737,1004,1035
6738,1003,1032
6739,994,1032
6740,993,1032
6741,993,1034
6742,995,1035
6743,991,1037
6744,989,1033
6745,987,1029
6746,983,1031
6747,984,1033
6748,984,1037
6749,986,1032
6750,984,1029
6751,982,1029
6752,980,1032
6753,979,1032
6754,984,1037
6755,986,1035
6756,983,1033
6757,984,1034
6758,980,1035
6759,982,1037
6760,983,1038
6761,985,1037
6762,984,1034
6763,979,1034
6764,980,1034
6765,981,1038
6766,983,1040
6767,984,1039
6768,983,1038
6769,979,1039
6770,980,1038
6771,980,1038
6772,984,1041
6773,986,1042
6774,984,1040
6775,978,1037
6776,979,1037
6777,981,1040
6778,981,1045
6779,984,1041
6780,981,1039
6781,981,1037
6782,977,1037
6783,978,1039
6784,979,1040
6785,984,1037
6786,983,1039
6787,980,1036
6788,978,1033
6789,975,1038
6790,983,1041
6791,984,1039
6792,981,1039
6793,978,1035
6794,977,1037
6795,979,1037
6796,981,1038
6797,982,1037
6798,981,1036
6799,976,1031
6800,977,1032
6801,974,1038
6802,980,1038
6803,983,1036
6804,978,1035
6805,976,1032
6806,972,1034
6807,976,1037
6808,978,1039
6809,977,1037
6810,974,1034
6811,975,1034
6812,975,1033
6813,975,1035
6814,979,1038
6815,979,1037
6816,977,1037
6817,974,1031
6818,971,1034
6819,974,1037
6820,978,1042
6821,976,1041
6822,977,1039
6823,974,1037
6824,974,1041
6825,976,1044
6826,979,1047
6827,984,1045
6828,981,1045
6829,982,1042
6830,979,1042
6831,983,1041
6832,986,1046
6833,986,1045
6834,987,1040
6835,984,1037
6836,981,1037
6837,988,1036
6838,992,1039
6839,996,1036
6840,992,1032
6841,992,1029
6842,992,1030
6843,992,1030
6844,990,1031
6845,990,1027
6846,989,1025
6847,987,1020
6848,984,1022
6849,985,1022
6850,986,1025
6851,985,1025
6852,984,1023
6853,981,1020
6854,978,1019
6855,977,1023
6856,979,1024
6857,979,1023
6858,978,1022
6859,974,1021
6860,970,1023
6861,970,1024
6862,975,1033
6863,977,1032
6864,975,1030
6865,971,1031
6866,967,1031
6867,968,1033
6868,967,1035
6869,966,1035
6870,969,1032
6871,967,1031
6872,968,1031
6873,969,1034
6874,969,1038
6875,968,1036
6876,968,1034
6877,963,1032
6878,960,1032
6879,963,1037
6880,966,1036
6881,967,1036
6882,966,1034
6883,963,1032
6884,961,1034
6885,960,1034
6886,965,1038
6887,967,1034
6888,966,1032
6889,962,1030
6890,960,1031
6891,961,1034
6892,964,1036
6893,966,1035
6894,964,1031
6895,962,1031
6896,960,1031
6897,962,1036
6898,967,1036
6899,967,1034
6900,967,1033
6901,962,1029
6902,961,1028
6903,959,1031
6904,965,1033
6905,967,1033
6906,966,1031
6907,963,1028
6908,966,1027
6909,971,1017
6910,975,1006
6911,981,982
6912,990,957
6913,994,932
6914,1003,910
6915,1013,888
6916,1029,872
6917,1042,854
6918,1046,845
6919,1050,842
6920,1048,844
6921,1041,843
6922,1030,842
6923,1017,844
6924,1010,848
6925,1010,853
6926,1021,862
6927,1044,872
6928,1069,881
6929,1097,881
6930,1119,887
6931,1137,888
6932,1151,890
6933,1158,897
6934,1153,906
6935,1140,913
6936,1118,922
6937,1096,930
6938,1078,943
6939,1061,957
6940,1047,969
6941,1024,979
6942,998,989
6943,972,999
6944,947,1011
6945,931,1026
6946,923,1041
6947,915,1047
6948,914,1051
6949,907,1053
6950,912,1057
6951,921,1061
6952,934,1066
6953,942,1065
6954,947,1066
6955,948,1063
6956,947,1065
6957,949,1071
6958,952,1073
6959,954,1073
6960,954,1071
6961,950,1073
6962,948,1071
6963,952,1075
6964,953,1080
6965,957,1079
6966,957,1078
6967,953,1075
6968,954,1076
6969,955,1080
6970,960,1082
6971,962,1082
6972,960,1079
6973,960,1078
6974,958,1078
6975,960,1081
6976,963,1083
6977,963,1084
6978,961,1084
6979,959,1081
6980,959,1082
6981,962,1087
6982,962,1090
6983,966,1090
6984,966,1088
6985,966,1088
6986,963,1091
6987,968,1093
6988,966,1096
6989,970,1098
6990,965,1096
6991,965,1094
6992,967,1098
6993,969,1100
6994,974,1105
6995,977,1102
6996,978,1102
6997,976,1099
6998,975,1103
6999,979,1106
7000,980,1108
7001,986,1109
7002,985,1105
7003,985,1103
7004,987,1106
7005,987,1104
7006,990,1106
7007,994,1107
7008,1000,1103
7009,1000,1098
7010,996,1100
7011,1002,1099
7012,1010,1102
7013,1013,1098
7014,1016,1092
7015,1016,1086
7016,1017,1087
7017,1017,1086
7018,1023,1085
7019,1024,1078
7020,1029,1069
7021,1030,1062
7022,1030,1059
7023,1034,1058
7024,1040,1057
7025,1041,1053
7026,1043,1045
7027,1041,1039
7028,1039,1039
7029,1043,1041
7030,1047,1041
7031,1046,1038
7032,1044,1034
7033,1041,1033
7034,1035,1035
7035,1035,1035
7036,1034,1038
7037,1029,1037
7038,1025,1032
7039,1016,1030
7040,1013,1031
7041,1008,1031
7042,1009,1035
7043,1005,1031
7044,1000,1030
7045,998,1028
7046,994,1030
7047,993,1032
7048,993,1035
7049,990,1033
7050,986,1031
7051,985,1029
7052,980,1031
7053,980,1031
7054,983,1034
7055,984,1033
7056,981,1031
7057,979,1029
7058,975,1032
7059,977,1030
7060,979,1029
7061,981,1030
7062,977,1026
7063,976,1027
7064,975,1029
7065,972,1032
7066,978,1035
7067,978,1032
7068,974,1031
7069,973,1029
7070,971,1031
7071,972,1034
7072,975,1037
7073,977,1036
7074,975,1035
7075,972,1031
7076,972,1032
7077,975,1036
7078,974,1039
7079,976,1039
7080,975,1033
7081,974,1033
7082,970,1035
7083,970,1038
7084,974,1041
7085,978,1039
7086,977,1038
7087,974,1035
7088,972,1035
7089,974,1040
7090,977,1041
7091,977,1041
7092,977,1036
7093,975,1034
7094,974,1036
7095,974,1037
7096,978,1039
7097,978,1038
7098,978,1037
7099,974,1036
7100,973,1037
7101,972,1037
7102,975,1040
7103,976,1040
7104,976,1037
7105,971,1034
7106,970,1039
7107,973,1037
7108,975,1039
7109,975,1037
7110,973,1035
7111,971,1033
7112,968,1035
7113,970,1036
7114,973,1038
7115,973,1038
7116,976,1035
7117,972,1033
7118,968,1034
7119,972,1035
7120,973,1035
7121,973,1035
7122,973,1033
7123,970,1030
7124,969,1031
7125,966,1032
7126,967,1036
7127,969,1034
7128,972,1034
7129,968,1031
7130,967,1032
7131,966,1034
7132,968,1036
7133,969,1035
7134,970,1033
7135,968,1031
7136,965,1032
7137,967,1034
7138,968,1035
7139,971,1035
7140,968,1034
7141,965,1033
7142,966,1035
7143,965,1037
7144,969,1043
7145,970,1041
7146,970,1039
7147,968,1038
7148,964,1040
7149,967,1041
7150,973,1043
7151,979,1043
7152,977,1041
7153,976,1041
7154,974,1040
7155,975,1040
7156,977,1039
7157,981,1038
7158,982,1034
7159,980,1028
7160,981,1026
7161,982,1029
7162,982,1031
7163,985,1029
7164,984,1027
7165,985,1024
7166,981,1024
7167,982,1025
7168,978,1027
7169,981,1023
7170,981,1022
7171,974,1019
7172,972,1018
7173,970,1021
7174,974,1023
7175,978,1023
7176,975,1020
7177,969,1019
7178,967,1020
7179,966,1022
7180,973,1023
7181,973,1022
7182,972,1017
7183,968,1018
7184,963,1017
7185,964,1023
7186,969,1030
7187,969,1028
7188,967,1029
7189,965,1027
7190,960,1028
7191,959,1032
7192,961,1035
7193,962,1035
7194,963,1031
7195,958,1029
7196,958,1031
7197,961,1030
7198,961,1034
7199,962,1030
7200,960,1030
7201,957,1028
7202,956,1031
7203,955,1032
7204,959,1034
7205,959,1034
7206,959,1030
7207,956,1028
7208,955,1030
7209,955,1033
7210,959,1036
7211,960,1033
7212,959,1033
7213,955,1031
7214,953,1030
7215,953,1033
7216,957,1034
7217,957,1033
7218,956,1032
7219,956,1029
7220,954,1029
7221,953,1031
7222,955,1034
7223,960,1033
7224,957,1030
7225,957,1029
7226,954,1028
7227,955,1032
7228,958,1031
7229,961,1031
7230,961,1028
7231,959,1026
7232,955,1029
7233,957,1031
7234,962,1031
7235,965,1024
7236,970,1013
7237,969,996
7238,972,977
7239,980,956
7240,987,936
7241,1001,911
7242,1011,883
7243,1020,864
7244,1026,850
7245,1035,844
7246,1039,846
7247,1041,846
7248,1030,840
7249,1014,836
7250,995,837
7251,989,842
7252,996,853
7253,1006,860
7254,1027,864
7255,1048,872
7256,1073,877
7257,1098,883
7258,1122,890
7259,1142,892
7260,1150,890
7261,1146,894
7262,1132,901
7263,1112,911
7264,1095,925
7265,1076,936
7266,1060,946
7267,1036,952
7268,1012,963
7269,993,976
7270,967,991
7271,947,1003
7272,928,1013
7273,913,1023
7274,900,1034
7275,899,1046
7276,899,1052
7277,907,1056
7278,914,1055
7279,918,1055
7280,925,1059
7281,934,1063
7282,938,1067
7283,942,1067
7284,945,1066
7285,944,1066
7286,941,1067
7287,943,1072
7288,948,1076
7289,950,1072
7290,949,1071
7291,949,1071
7292,947,1072
7293,947,1073
7294,949,1078
7295,951,1079
7296,953,1074
7297,948,1073
7298,948,1074
7299,949,1073
7300,950,1078
7301,956,1080
7302,956,1078
7303,953,1076
7304,951,1077
7305,953,1082
7306,953,1085
7307,960,1085
7308,958,1083
7309,955,1083
7310,952,1084
7311,955,1088
7312,958,1091
7313,962,1092
7314,964,1091
7315,961,1092
7316,960,1090
7317,962,1092
7318,966,1096
7319,971,1096
7320,969,1094
7321,969,1096
7322,970,1097
7323,972,1099
7324,976,1102
7325,979,1103
7326,979,1101
7327,980,1098
7328,978,1101
7329,982,1104
7330,987,1105
7331,992,1107
7332,990,1106
7333,991,1103
7334,990,1102
7335,994,1104
7336,1002,1108
7337,1005,1103
7338,1007,1101
7339,1007,1098
7340,1005,1096
7341,1008,1096
7342,1012,1097
7343,1019,1091
7344,1018,1082
7345,1018,1079
7346,1018,1077
7347,1023,1073
7348,1027,1069
7349,1031,1067
7350,1030,1061
7351,1030,1054
7352,1031,1050
7353,1035,1051
7354,1038,1050
7355,1043,1048
7356,1044,1043
7357,1040,1038
7358,1039,1037
7359,1036,1039
7360,1036,1039
7361,1036,1039
7362,1033,1034
7363,1025,1032
7364,1017,1033
7365,1014,1034
7366,1013,1036
7367,1012,1036
7368,1004,1034
7369,999,1030
7370,996,1032
7371,992,1035
7372,992,1035
7373,992,1035
7374,986,1032
7375,982,1030
7376,978,1029
7377,978,1032
7378,978,1033
7379,979,1034
7380,977,1030
7381,973,1027
7382,971,1029
7383,971,1032
7384,975,1034
7385,976,1035
7386,973,1031
7387,972,1029
7388,968,1028
7389,968,1032
7390,969,1034
7391,971,1034
7392,973,1033
7393,968,1030
7394,966,1032
7395,968,1034
7396,967,1035
7397,968,1033
7398,967,1030
7399,968,1031
7400,965,1032
7401,966,1034
7402,968,1039
7403,970,1038
7404,971,1033
7405,967,1033
7406,967,1035
7407,965,1038
7408,968,1041
7409,969,1040
7410,970,1036
7411,965,1034
7412,963,1037
7413,965,1039
7414,967,1041
7415,972,1041
7416,969,1037
7417,967,1034
7418,965,1033
7419,966,1038
7420,969,1042
7421,971,1041
7422,966,1037
7423,962,1037
7424,961,1036
7425,963,1038
7426,966,1039
7427,968,1036
7428,968,1037
7429,969,1034
7430,964,1036
7431,965,1040
7432,966,1040
7433,970,1040
7434,967,1039
7435,963,1036
7436,962,1035
7437,964,1038
7438,965,1040
7439,968,1037
7440,967,1037
7441,964,1034
7442,962,1033
7443,960,1036
7444,963,1039
7445,967,1036
7446,964,1034
7447,960,1033
7448,958,1031
7449,960,1035
7450,963,1037
7451,965,1034
7452,963,1034
7453,961,1033
7454,959,1032
7455,960,1032
7456,961,1037
7457,963,1038
7458,963,1034
7459,960,1032
7460,957,1033
7461,960,1035
7462,963,1035
7463,966,1038
7464,963,1035
7465,958,1036
7466,960,1037
7467,961,1041
7468,963,1044
7469,967,1044
7470,966,1042
7471,966,1039
7472,966,1042
7473,965,1044
7474,971,1045
7475,974,1046
7476,974,1044
7477,971,1040
7478,969,1038
7479,973,1036
7480,976,1036
7481,978,1035
7482,979,1033
7483,976,1029
7484,977,1030
7485,980,1030
7486,981,1033
7487,982,1030
7488,977,1028
7489,975,1023
7490,973,1024
7491,975,1025
7492,975,1027
7493,977,1024
7494,974,1022
7495,967,1020
7496,967,1019
7497,967,1023
7498,969,1025
7499,969,1024
7500,967,1022
7501,963,1022
7502,959,1019
7503,960,1023
7504,961,1026
7505,963,1027
7506,963,1031
7507,960,1026
7508,958,1030
7509,956,1034
7510,957,1036
7511,956,1034
7512,957,1032
7513,954,1029
7514,952,1031
7515,955,1034
7516,957,1036
7517,955,1035
7518,955,1032
7519,951,1029
7520,948,1029
7521,951,1035
7522,955,1034
7523,953,1036
7524,955,1032
7525,952,1030
7526,950,1033
7527,952,1035
7528,954,1037
7529,957,1036
7530,954,1034
7531,952,1031
7532,949,1030
7533,950,1031
7534,954,1037
7535,955,1035
7536,955,1033
7537,953,1032
7538,950,1031
7539,951,1032
7540,952,1037
7541,951,1036
7542,954,1031
7543,954,1030
7544,950,1029
7545,952,1031
7546,955,1032
7547,955,1032
7548,955,1031
7549,955,1028
7550,954,1029
7551,957,1032
7552,959,1033
7553,963,1025
7554,965,1009
7555,968,990
7556,970,971
7557,980,947
7558,992,925
7559,1008,901
7560,1019,878
7561,1024,859
7562,1030,847
7563,1034,847
7564,1036,847
7565,1029,846
7566,1012,840
7567,995,835
7568,984,842
7569,991,853
7570,1006,862
7571,1025,869
7572,1051,874
7573,1071,878
7574,1092,881
7575,1115,888
7576,1133,892
7577,1141,894
7578,1139,895
7579,1127,899
7580,1106,906
7581,1086,917
7582,1070,931
7583,1058,942
7584,1039,948
7585,1018,956
7586,993,966
7587,972,978
7588,952,991
7589,934,1003
7590,919,1016
7591,904,1025
7592,897,1037
7593,896,1047
7594,898,1055
7595,902,1057
7596,908,1061
7597,915,1059
7598,922,1061
7599,930,1064
7600,936,1068
7601,940,1069
7602,939,1070
7603,942,1067
7604,938,1069
7605,937,1073
7606,941,1074
7607,947,1073
7608,945,1075
7609,943,1071
7610,943,1075
7611,944,1077
7612,947,1080
7613,952,1078
7614,949,1076
7615,948,1075
7616,945,1076
7617,946,1078
7618,951,1083
7619,953,1081
7620,950,1080
7621,949,1082
7622,951,1082
7623,951,1084
7624,953,1086
7625,956,1087
7626,957,1085
7627,958,1085
7628,952,1086
7629,954,1088
7630,959,1090
7631,962,1091
7632,960,1090
7633,961,1088
7634,959,1091
7635,963,1093
7636,966,1097
7637,970,1097
7638,969,1095
7639,967,1097
7640,965,1097
7641,969,1102
7642,971,1103
7643,978,1102
7644,977,1103
7645,977,1100
7646,974,1101
7647,978,1106
7648,981,1109
7649,987,1107
7650,988,1105
7651,987,1104
7652,988,1106
7653,991,1106
7654,996,1109
7655,1002,1110
7656,1004,1105
7657,1001,1105
7658,1000,1104
7659,1005,1103
7660,1011,1104
7661,1015,1100
7662,1014,1095
7663,1012,1092
7664,1013,1089
7665,1018,1086
7666,1020,1086
7667,1026,1078
7668,1028,1074
7669,1027,1065
7670,1028,1065
7671,1033,1060
7672,1035,1058
7673,1039,1053
7674,1038,1051
7675,1036,1045
7676,1037,1043
7677,1038,1044
7678,1041,1045
7679,1042,1042
7680,1037,1040
7681,1034,1035
7682,1029,1034
7683,1026,1037
7684,1023,1040
7685,1021,1037
7686,1017,1035
7687,1007,1032
7688,1002,1032
7689,997,1035
7690,996,1038
7691,995,1036
7692,993,1034
7693,987,1029
7694,981,1030
7695,975,1032
7696,981,1034
7697,982,1035
7698,978,1034
7699,973,1031
7700,971,1030
7701,971,1033
7702,973,1037
7703,973,1034
7704,968,1031
7705,968,1028
7706,967,1030
7707,967,1033
7708,968,1033
7709,969,1031
7710,967,1034
7711,967,1030
7712,965,1031
7713,964,1031
7714,967,1036
7715,967,1035
7716,967,1034
7717,967,1033
7718,965,1033
7719,966,1038
7720,967,1037
7721,968,1038
7722,968,1037
7723,963,1033
7724,963,1034
7725,960,1037
7726,968,1040
7727,971,1040
7728,968,1039
7729,966,1035
7730,965,1037
7731,965,1039
7732,968,1045
7733,970,1041
7734,966,1039
7735,965,1038
7736,962,1041
7737,962,1041
7738,967,1041
7739,968,1041
7740,967,1038
7741,966,1039
7742,962,1037
7743,965,1039
7744,965,1043
7745,968,1041
7746,967,1039
7747,962,1038
7748,960,1037
7749,959,1040
7750,964,1042
7751,965,1041
7752,965,1039
7753,960,1036
7754,960,1036
7755,961,1039
7756,962,1039
7757,965,1039
7758,962,1036
7759,960,1035
7760,958,1037
7761,958,1035
7762,962,1039
7763,963,1038
7764,958,1038
7765,956,1035
7766,957,1034
7767,957,1034
7768,959,1040
7769,960,1038
7770,961,1036
7771,954,1035
7772,954,1032
7773,955,1035
7774,956,1038
7775,961,1038
7776,961,1036
7777,959,1035
7778,957,1033
7779,958,1034
7780,960,1038
7781,961,1038
7782,960,1036
7783,957,1039
7784,955,1040
7785,956,1041
7786,960,1044
7787,962,1042
7788,963,1042
7789,962,1039
7790,962,1041
7791,962,1044
7792,966,1047
7793,968,1047
7794,968,1046
7795,966,1041
7796,963,1042
7797,967,1037
7798,969,1038
7799,974,1036
7800,977,1034
7801,976,1030
7802,974,1030
7803,973,1030
7804,976,1031
7805,979,1030
7806,976,1026
7807,971,1022
7808,969,1021
7809,968,1024
7810,971,1027
7811,969,1026
7812,967,1023
7813,964,1021
7814,961,1022
7815,960,1022
7816,963,1026
7817,965,1027
7818,963,1026
7819,960,1025
7820,955,1026
7821,955,1032
7822,959,1033
7823,960,1033
7824,957,1035
7825,951,1033
7826,949,1033
7827,948,1035
7828,953,1037
7829,958,1035
7830,957,1034
7831,954,1031
7832,949,1035
7833,949,1035
7834,948,1037
7835,953,1036
7836,951,1035
7837,948,1032
7838,947,1035
7839,948,1035
7840,950,1037
7841,952,1036
7842,952,1036
7843,950,1034
7844,947,1034
7845,947,1037
7846,952,1039
7847,952,1039
7848,950,1034
7849,949,1034
7850,945,1035
7851,949,1035
7852,949,1037
7853,953,1036
7854,951,1035
7855,948,1032
7856,945,1031
7857,946,1031
7858,951,1032
7859,955,1031
7860,952,1030
7861,952,1031
7862,953,1026
7863,957,1015
7864,964,993
7865,973,961
7866,986,927
7867,998,895
7868,1010,870
7869,1025,850
7870,1033,845
7871,1031,845
7872,1019,841
7873,998,832
7874,975,837
7875,975,845
7876,990,857
7877,1017,865
7878,1046,871
7879,1074,876
7880,1100,879
7881,1122,884
7882,1138,893
7883,1143,895
7884,1134,898
7885,1110,904
7886,1086,914
7887,1065,927
7888,1049,940
7889,1031,952
7890,1009,961
7891,983,968
7892,956,981
7893,932,994
7894,915,1010
7895,907,1020
7896,897,1030
7897,891,1037
7898,886,1044
7899,890,1051
7900,900,1056
7901,908,1059
7902,917,1059
7903,921,1058
7904,926,1061
7905,932,1062
7906,936,1068
7907,940,1067
7908,938,1066
7909,937,1065
7910,936,1066
7911,938,1070
7912,940,1072
7913,942,1074
7914,942,1071
7915,939,1068
7916,939,1071
7917,941,1075
7918,944,1076
7919,945,1077
7920,944,1076
7921,940,1073
7922,940,1075
7923,942,1078
7924,946,1080
7925,948,1083
7926,946,1079
7927,946,1080
7928,945,1080
7929,943,1084
7930,948,1086
7931,951,1087
7932,950,1085
7933,950,1084
7934,950,1087
7935,952,1087
7936,956,1090
7937,958,1091
7938,958,1090
7939,956,1089
7940,958,1092
7941,960,1093
7942,963,1097
7943,965,1096
7944,967,1098
7945,962,1095
7946,965,1098
7947,967,1103
7948,965,1105
7949,973,1107
7950,975,1105
7951,974,1103
7952,977,1103
7953,981,1105
7954,984,1107
7955,989,1109
7956,988,1105
7957,990,1103
7958,992,1102
7959,995,1103
7960,1001,1104
7961,1004,1105
7962,1004,1099
7963,1003,1093
7964,1006,1092
7965,1010,1092
7966,1014,1092
7967,1017,1087
7968,1020,1083
7969,1021,1077
7970,1019,1073
7971,1020,1072
7972,1026,1071
7973,1031,1065
7974,1029,1058
7975,1028,1055
7976,1028,1049
7977,1031,1050
7978,1033,1047
7979,1034,1046
7980,1035,1041
7981,1029,1037
7982,1027,1036
7983,1025,1040
7984,1026,1042
7985,1023,1039
7986,1018,1036
7987,1009,1034
7988,1004,1032
7989,998,1034
7990,998,1037
7991,997,1036
7992,989,1035
7993,982,1029
7994,976,1030
7995,974,1035
7996,975,1035
7997,976,1035
7998,970,1032
7999,966,1031
8000,962,1033
8001,961,1035
8002,963,1037
8003,964,1036
8004,961,1032
8005,959,1028
8006,957,1029
8007,956,1033
8008,957,1033
8009,959,1036
8010,960,1034
8011,956,1032
8012,953,1031
8013,954,1035
8014,955,1038
8015,958,1036
8016,955,1034
8017,956,1033
8018,952,1033
8019,950,1037
8020,953,1037
8021,955,1035
8022,952,1036
8023,951,1032
8024,948,1034
8025,950,1038
8026,951,1041
8027,955,1040
8028,952,1038
8029,951,1038
8030,948,1037
8031,949,1038
8032,952,1042
8033,955,1042
8034,953,1039
8035,950,1038
8036,948,1036
8037,950,1038
8038,951,1042
8039,953,1042
8040,954,1040
8041,952,1036
8042,950,1038
8043,949,1039
8044,951,1044
8045,951,1043
8046,950,1040
8047,947,1037
8048,948,1039
8049,949,1041
8050,952,1042
8051,953,1042
8052,952,1041
8053,950,1037
8054,946,1038
8055,947,1041
8056,950,1043
8057,953,1040
8058,950,1039
8059,949,1036
8060,948,1034
8061,948,1040
8062,950,1042
8063,952,1040
8064,952,1039
8065,947,1038
8066,949,1037
8067,946,1039
8068,948,1040
8069,951,1041
8070,948,1038
8071,946,1035
8072,943,1036
8073,944,1038
8074,948,1038
8075,951,1036
8076,951,1033
8077,946,1034
8078,945,1036
8079,946,1035
8080,948,1040
8081,949,1040
8082,951,1038
8083,950,1040
8084,947,1040
8085,947,1044
8086,951,1049
8087,954,1046
8088,952,1045
8089,951,1042
8090,952,1044
8091,952,1046
8092,959,1050
8093,960,1049
8094,959,1047
8095,956,1045
8096,956,1041
8097,956,1042
8098,957,1042
8099,963,1038
8100,962,1037
8101,961,1034
8102,962,1033
8103,964,1035
8104,966,1034
8105,968,1034
8106,964,1028
8107,961,1024
8108,958,1023
8109,957,1027
8110,957,1027
8111,959,1027
8112,958,1026
8113,954,1025
8114,951,1023
8115,950,1025
8116,953,1030
8117,951,1026
8118,949,1026
8119,947,1022
8120,948,1023
8121,946,1030
8122,945,1032
8123,949,1032
8124,947,1033
8125,944,1032
8126,939,1030
8127,940,1035
8128,939,1037
8129,941,1036
8130,942,1033
8131,940,1030
8132,939,1031
8133,940,1036
8134,942,1036
8135,945,1036
8136,943,1036
8137,941,1032
8138,937,1033
8139,939,1034
8140,943,1037
8141,944,1036
8142,943,1034
8143,942,1031
8144,939,1032
8145,938,1035
8146,938,1037
8147,942,1038
8148,942,1037
8149,939,1033
8150,936,1034
8151,939,1033
8152,941,1036
8153,945,1037
8154,941,1036
8155,939,1034
8156,938,1032
8157,938,1036
8158,943,1036
8159,944,1037
8160,944,1035
8161,943,1029
8162,941,1031
8163,941,1033
8164,944,1034
8165,946,1034
8166,946,1032
8167,945,1030
8168,945,1030
8169,949,1032
8170,956,1029
8171,963,1019
8172,967,1000
8173,968,979
8174,977,954
8175,990,932
8176,1010,909
8177,1028,882
8178,1043,862
8179,1049,846
8180,1052,843
8181,1049,844
8182,1037,849
8183,1026,843
8184,1005,839
8185,992,844
8186,992,855
8187,1006,865
8188,1030,876
8189,1062,879
8190,1089,886
8191,1114,888
8192,1131,898
8193,1144,903
8194,1150,908
8195,1140,917
8196,1121,922
8197,1099,932
8198,1080,943
8199,1059,959
8200,1043,972
8201,1024,982
8202,1007,989
8203,983,996
8204,959,1005
8205,939,1018
8206,927,1035
8207,916,1042
8208,909,1052
8209,900,1054
8210,902,1055
8211,907,1061
8212,913,1065
8213,920,1068
8214,924,1066
8215,922,1064
8216,923,1067
8217,927,1069
8218,930,1072
8219,934,1075
8220,930,1074
8221,928,1072
8222,926,1072
8223,929,1074
8224,931,1078
8225,930,1079
8226,932,1078
8227,929,1075
8228,929,1076
8229,928,1080
8230,932,1081
8231,935,1081
8232,933,1079
8233,929,1078
8234,932,1082
8235,933,1085
8236,935,1086
8237,937,1087
8238,936,1086
8239,935,1084
8240,932,1083
8241,936,1089
8242,937,1092
8243,939,1094
8244,938,1093
8245,941,1092
8246,941,1093
8247,944,1095
8248,948,1099
8249,950,1099
8250,949,1099
8251,950,1099
8252,952,1100
8253,949,1101
8254,957,1106
8255,961,1106
8256,961,1107
8257,963,1102
8258,959,1105
8259,965,1107
8260,972,1109
8261,974,1110
8262,977,1106
8263,976,1104
8264,977,1106
8265,981,1104
8266,987,1108
8267,989,1106
8268,995,1104
8269,996,1101
8270,996,1098
8271,1000,1097
8272,1006,1097
8273,1009,1093
8274,1010,1091
8275,1009,1083
8276,1010,1079
8277,1015,1079
8278,1021,1074
8279,1026,1069
8280,1026,1063
8281,1026,1057
8282,1031,1053
8283,1033,1053
8284,1037,1052
8285,1043,1050
8286,1040,1044
8287,1035,1041
8288,1035,1039
8289,1032,1042
8290,1031,1043
8291,1031,1040
8292,1028,1040
8293,1020,1034
8294,1015,1036
8295,1009,1037
8296,1007,1041
8297,1003,1041
8298,1000,1037
8299,992,1035
8300,987,1035
8301,984,1039
8302,986,1039
8303,987,1037
8304,982,1035
8305,980,1034
8306,975,1033
8307,974,1033
8308,973,1038
8309,977,1038
8310,975,1034
8311,973,1032
8312,970,1033
8313,972,1034
8314,973,1035
8315,977,1037
8316,974,1034
8317,972,1030
8318,970,1031
8319,969,1034
8320,974,1036
8321,974,1036
8322,973,1033
8323,972,1032
8324,970,1033
8325,971,1036
8326,972,1038
8327,975,1037
8328,975,1035
8329,973,1034
8330,970,1032
8331,970,1034
8332,974,1036
8333,974,1040
8334,973,1038
8335,973,1035
8336,969,1035
8337,971,1037
8338,976,1037
8339,978,1038
8340,978,1035
8341,973,1034
8342,974,1035
8343,975,1038
8344,976,1039
8345,980,1039
8346,977,1036
8347,972,1036
8348,972,1034
8349,974,1041
8350,976,1041
8351,979,1040
8352,978,1039
8353,976,1037
8354,973,1035
8355,973,1037
8356,974,1038
8357,976,1037
8358,977,1034
8359,976,1035
8360,971,1035
8361,975,1038
8362,974,1039
8363,978,1038
8364,978,1036
8365,975,1033
8366,970,1032
8367,972,1037
8368,974,1036
8369,978,1037
8370,977,1035
8371,972,1032
8372,969,1036
8373,971,1036
8374,974,1038
8375,975,1038
8376,974,1037
8377,972,1034
8378,971,1036
8379,968,1037
8380,972,1040
8381,975,1040
8382,976,1037
8383,972,1034
8384,969,1035
8385,970,1037
8386,973,1038
8387,974,1039
8388,974,1037
8389,971,1035
8390,967,1040
8391,967,1041
8392,971,1043
8393,973,1045
8394,973,1047
8395,973,1043
8396,971,1041
8397,974,1044
8398,977,1047
8399,982,1047
8400,981,1047
8401,979,1047
8402,976,1047
8403,979,1044
8404,979,1045
8405,985,1043
8406,984,1040
8407,984,1037
8408,984,1033
8409,986,1033
8410,989,1032
8411,988,1031
8412,987,1030
8413,985,1028
8414,978,1026
8415,981,1028
8416,983,1029
8417,985,1028
8418,985,1025
8419,978,1026
8420,976,1024
8421,971,1025
8422,978,1028
8423,975,1028
8424,974,1025
8425,975,1023
8426,972,1023
8427,972,1025
8428,972,1027
8429,975,1029
8430,971,1030
8431,968,1030
8432,968,1031
8433,965,1034
8434,968,1034
8435,968,1034
8436,965,1033
8437,963,1031
8438,962,1033
8439,965,1035
8440,967,1037
8441,965,1037
8442,962,1034
8443,962,1033
8444,961,1034
8445,961,1034
8446,962,1036
8447,967,1038
8448,965,1035
8449,962,1032
8450,958,1033
8451,961,1034
8452,962,1036
8453,965,1037
8454,962,1032
8455,960,1030
8456,958,1030
8457,960,1034
8458,961,1036
8459,964,1036
8460,964,1034
8461,960,1028
8462,960,1028
8463,962,1032
8464,964,1034
8465,967,1036
8466,967,1033
8467,965,1029
8468,961,1030
8469,963,1032
8470,966,1036
8471,969,1034
8472,969,1032
8473,966,1025
8474,969,1018
8475,975,1008
8476,980,992
8477,989,971
8478,993,944
8479,1005,919
8480,1021,891
8481,1036,871
8482,1054,855
8483,1067,846
8484,1075,846
8485,1072,847
8486,1063,845
8487,1049,843
8488,1039,844
8489,1034,850
8490,1036,859
8491,1048,865
8492,1069,871
8493,1095,882
8494,1124,890
8495,1151,891
8496,1174,894
8497,1188,894
8498,1189,900
8499,1182,910
8500,1164,922
8501,1142,935
8502,1123,943
8503,1099,951
8504,1073,963
8505,1051,975
8506,1030,988
8507,1003,999
8508,977,1009
8509,955,1020
8510,936,1030
8511,924,1042
8512,921,1051
8513,922,1061
8514,925,1069
8515,928,1067
8516,933,1066
8517,940,1064
8518,947,1061
8519,949,1063
8520,949,1063
8521,948,1063
8522,944,1066
8523,948,1070
8524,948,1072
8525,951,1072
8526,950,1073
8527,949,1071
8528,948,1071
8529,949,1075
8530,953,1076
8531,954,1080
8532,954,1080
8533,950,1077
8534,949,1077
8535,948,1081
8536,951,1086
8537,956,1086
8538,953,1086
8539,950,1083
8540,948,1084
8541,947,1088
8542,954,1090
8543,954,1091
8544,955,1093
8545,951,1090
8546,950,1088
8547,952,1094
8548,959,1097
8549,960,1099
8550,963,1097
8551,961,1096
8552,957,1098
8553,960,1102
8554,966,1104
8555,970,1107
8556,970,1104
8557,968,1102
8558,966,1104
8559,969,1108
8560,972,1113
8561,976,1113
8562,978,1110
8563,975,1109
8564,975,1109
8565,977,1112
8566,985,1116
8567,989,1117
8568,989,1113
8569,990,1107
8570,990,1103
8571,992,1098
8572,996,1100
