'sample #','MLII','V1'
0,932,1050
1,932,1050
2,932,1050
3,932,1050
4,932,1050
5,932,1050
6,932,1050
7,932,1050
8,933,1050
9,933,1052
10,936,1052
11,937,1053
12,938,1049
13,935,1048
14,936,1047
15,937,1050
16,939,1052
17,941,1053
18,938,1052
19,937,1049
20,930,1048
21,933,1050
22,941,1051
23,939,1050
24,936,1047
25,935,1046
26,937,1046
27,937,1052
28,939,1054
29,940,1052
30,938,1049
31,936,1049
32,932,1049
33,937,1049
34,937,1053
35,941,1052
36,939,1051
37,937,1048
38,937,1048
39,937,1050
40,941,1052
41,942,1052
42,938,1046
43,937,1046
44,934,1046
45,938,1047
46,943,1048
47,942,1049
48,941,1048
49,939,1045
50,936,1046
51,938,1047
52,941,1050
53,941,1049
54,941,1047
55,937,1044
56,937,1045
57,938,1047
58,941,1051
59,943,1049
60,942,1046
61,936,1046
62,936,1045
63,939,1047
64,942,1049
65,942,1049
66,941,1046
67,939,1041
68,937,1043
69,938,1045
70,940,1049
71,944,1048
72,942,1046
73,939,1042
74,938,1044
75,938,1046
76,942,1049
77,943,1046
78,943,1045
79,941,1044
80,938,1043
81,937,1046
82,939,1051
83,945,1049
84,944,1045
85,943,1044
86,941,1045
87,942,1047
88,943,1048
89,945,1050
90,943,1044
91,941,1044
92,941,1043
93,941,1046
94,945,1049
95,945,1047
96,946,1044
97,944,1043
98,943,1044
99,944,1046
100,944,1050
101,947,1050
102,947,1048
103,943,1047
104,944,1047
105,947,1051
106,950,1054
107,955,1056
108,953,1051
109,953,1050
110,953,1049
111,956,1053
112,960,1053
113,965,1052
114,963,1047
115,960,1041
116,960,1041
117,962,1043
118,968,1043
119,969,1040
120,967,1039
121,964,1038
122,963,1039
123,963,1042
124,966,1043
125,969,1044
126,967,1042
127,963,1039
128,959,1042
129,960,1045
130,957,1045
131,957,1043
132,952,1040
133,951,1038
134,951,1038
135,952,1042
136,954,1045
137,953,1042
138,950,1041
139,953,1039
140,950,1040
141,953,1044
142,953,1047
143,953,1046
144,954,1042
145,953,1040
146,952,1040
147,952,1043
148,954,1049
149,957,1047
150,958,1043
151,957,1042
152,955,1046
153,958,1053
154,962,1059
155,962,1066
156,963,1074
157,957,1079
158,949,1078
159,944,1082
160,941,1080
161,940,1069
162,946,1053
163,954,1031
164,984,1009
165,1042,990
166,1122,978
167,1216,965
168,1302,965
169,1375,971
170,1422,987
171,1442,1011
172,1434,1023
173,1368,1032
174,1240,1030
175,1112,1025
176,984,1027
177,896,1034
178,905,1041
179,926,1045
180,932,1044
181,925,1042
182,921,1041
183,924,1044
184,931,1045
185,936,1049
186,938,1047
187,949,1045
188,955,1046
189,963,1050
190,966,1052
191,974,1050
192,974,1047
193,970,1046
194,967,1046
195,968,1048
196,973,1048
197,977,1048
198,973,1046
199,972,1044
200,973,1045
201,974,1049
202,975,1051
203,978,1050
204,978,1046
205,974,1047
206,972,1047
207,974,1048
208,979,1050
209,981,1050
210,980,1049
211,976,1044
212,977,1045
213,977,1046
214,982,1050
215,985,1046
216,984,1045
217,981,1044
218,981,1046
219,982,1047
220,985,1049
221,985,1047
222,982,1046
223,980,1045
224,981,1045
225,985,1047
226,989,1050
227,991,1048
228,987,1045
229,986,1047
230,985,1045
231,985,1045
232,989,1050
233,990,1050
234,992,1046
235,990,1043
236,986,1045
237,989,1049
238,994,1052
239,997,1049
240,996,1047
241,997,1046
242,995,1046
243,998,1047
244,1001,1050
245,1003,1047
246,1004,1047
247,1004,1045
248,1001,1045
249,1005,1047
250,1012,1051
251,1014,1047
252,1013,1047
253,1014,1042
254,1014,1043
255,1018,1048
256,1022,1046
257,1024,1050
258,1027,1046
259,1023,1043
260,1029,1043
261,1031,1045
262,1036,1044
263,1041,1044
264,1045,1043
265,1044,1040
266,1046,1042
267,1050,1045
268,1058,1045
269,1065,1046
270,1067,1042
271,1071,1041
272,1074,1042
273,1081,1043
274,1085,1046
275,1093,1045
276,1096,1042
277,1100,1038
278,1103,1039
279,1111,1042
280,1116,1043
281,1123,1041
282,1127,1041
283,1131,1037
284,1132,1038
285,1140,1038
286,1149,1040
287,1155,1038
288,1158,1034
289,1162,1035
290,1164,1036
291,1170,1040
292,1174,1040
293,1181,1041
294,1185,1038
295,1184,1038
296,1183,1036
297,1185,1042
298,1186,1043
299,1182,1043
300,1176,1043
301,1168,1039
302,1159,1041
303,1150,1042
304,1140,1046
305,1134,1045
306,1120,1046
307,1108,1043
308,1091,1045
309,1081,1048
310,1070,1050
311,1058,1051
312,1045,1046
313,1032,1044
314,1016,1043
315,1009,1045
316,1004,1047
317,997,1045
318,988,1047
319,978,1045
320,972,1044
321,969,1047
322,968,1048
323,970,1047
324,965,1045
325,959,1043
326,953,1043
327,954,1045
328,954,1047
329,954,1048
330,950,1047
331,946,1043
332,945,1044
333,946,1046
334,948,1046
335,947,1048
336,948,1044
337,942,1046
338,942,1044
339,941,1050
340,942,1049
341,946,1047
342,945,1048
343,942,1044
344,939,1045
345,941,1048
346,944,1051
347,947,1048
348,945,1048
349,942,1046
350,940,1043
351,943,1047
352,944,1051
353,946,1050
354,944,1047
355,943,1045
356,939,1047
357,938,1048
358,945,1052
359,945,1051
360,944,1048
361,939,1047
362,940,1046
363,939,1050
364,944,1053
365,945,1050
366,945,1050
367,943,1048
368,940,1048
369,940,1051
370,940,1054
371,943,1050
372,942,1049
373,942,1047
374,938,1047
375,940,1051
376,943,1052
377,944,1052
378,940,1049
379,939,1048
380,937,1050
381,938,1052
382,940,1051
383,944,1054
384,942,1052
385,936,1050
386,936,1050
387,938,1053
388,940,1054
389,938,1054
390,936,1052
391,933,1048
392,933,1049
393,933,1051
394,937,1055
395,939,1054
396,936,1050
397,933,1049
398,931,1051
399,933,1054
400,935,1057
401,938,1055
402,933,1051
403,930,1050
404,930,1052
405,931,1055
406,932,1056
407,934,1054
408,932,1053
409,933,1052
410,931,1051
411,932,1055
412,932,1059
413,934,1057
414,933,1055
415,930,1054
416,928,1053
417,928,1056
418,932,1057
419,934,1059
420,934,1055
421,931,1054
422,930,1055
423,930,1059
424,933,1061
425,936,1062
426,934,1057
427,932,1055
428,930,1056
429,932,1058
430,933,1059
431,932,1059
432,934,1060
433,931,1055
434,928,1058
435,931,1061
436,935,1063
437,935,1063
438,933,1061
439,929,1058
440,931,1061
441,930,1063
442,935,1066
443,934,1063
444,933,1062
445,931,1062
446,929,1061
447,934,1066
448,933,1067
449,937,1066
450,933,1065
451,929,1064
452,930,1067
453,932,1066
454,932,1070
455,934,1069
456,936,1068
457,930,1066
458,934,1065
459,933,1069
460,937,1072
461,938,1072
462,938,1070
463,935,1067
464,935,1070
465,933,1070
466,938,1074
467,940,1075
468,939,1072
469,934,1068
470,935,1070
471,935,1074
472,939,1075
473,939,1077
474,935,1073
475,938,1071
476,932,1074
477,937,1076
478,936,1078
479,938,1078
480,937,1075
481,935,1073
482,935,1077
483,937,1076
484,937,1080
485,938,1079
486,939,1077
487,934,1076
488,935,1076
489,938,1080
490,939,1081
491,940,1082
492,939,1080
493,937,1078
494,937,1078
495,937,1082
496,940,1084
497,943,1084
498,939,1083
499,937,1080
500,936,1079
501,939,1084
502,942,1087
503,944,1083
504,944,1084
505,941,1081
506,939,1086
507,940,1087
508,943,1089
509,944,1089
510,941,1089
511,941,1086
512,940,1087
513,940,1087
514,943,1093
515,946,1094
516,943,1093
517,941,1094
518,943,1095
519,943,1100
520,948,1102
521,952,1102
522,953,1098
523,952,1095
524,952,1095
525,957,1097
526,957,1099
527,959,1096
528,959,1093
529,960,1087
530,961,1088
531,962,1089
532,963,1093
533,963,1094
534,963,1093
535,959,1093
536,955,1095
537,958,1097
538,962,1100
539,961,1098
540,958,1097
541,954,1098
542,949,1101
543,950,1102
544,949,1102
545,950,1100
546,951,1097
547,949,1099
548,945,1098
549,947,1101
550,950,1106
551,954,1104
552,951,1101
553,949,1103
554,947,1103
555,952,1105
556,951,1107
557,952,1105
558,954,1105
559,951,1104
560,951,1106
561,953,1110
562,955,1112
563,958,1113
564,959,1114
565,957,1116
566,957,1122
567,959,1131
568,958,1143
569,959,1149
570,953,1152
571,945,1152
572,937,1149
573,933,1143
574,938,1132
575,952,1112
576,976,1090
577,1024,1066
578,1096,1047
579,1194,1036
580,1292,1038
581,1370,1045
582,1424,1060
583,1446,1077
584,1427,1094
585,1365,1107
586,1237,1110
587,1109,1107
588,981,1105
589,892,1112
590,903,1118
591,925,1124
592,934,1130
593,931,1128
594,924,1124
595,925,1125
596,928,1126
597,936,1132
598,948,1134
599,961,1134
600,967,1130
601,970,1131
602,971,1130
603,972,1133
604,976,1137
605,976,1136
606,977,1134
607,970,1134
608,973,1136
609,973,1136
610,976,1140
611,979,1138
612,980,1136
613,977,1134
614,977,1134
615,978,1140
616,983,1141
617,982,1140
618,984,1138
619,981,1137
620,978,1138
621,981,1140
622,984,1143
623,984,1142
624,984,1141
625,982,1138
626,986,1142
627,986,1142
628,987,1149
629,990,1145
630,992,1142
631,989,1142
632,988,1139
633,993,1144
634,995,1148
635,996,1146
636,996,1147
637,991,1144
638,994,1145
639,991,1147
640,996,1149
641,998,1150
642,999,1145
643,996,1145
644,995,1147
645,997,1150
646,998,1153
647,1002,1151
648,1002,1145
649,1003,1144
650,1004,1145
651,1004,1150
652,1010,1152
653,1014,1151
654,1015,1149
655,1013,1147
656,1012,1148
657,1017,1153
658,1020,1155
659,1025,1155
660,1026,1151
661,1025,1149
662,1025,1151
663,1027,1154
664,1035,1157
665,1035,1154
666,1039,1152
667,1040,1148
668,1042,1151
669,1048,1155
670,1051,1156
671,1059,1154
672,1061,1153
673,1062,1150
674,1062,1152
675,1066,1155
676,1075,1154
677,1079,1154
678,1086,1152
679,1087,1152
680,1092,1149
681,1098,1153
682,1107,1156
683,1114,1155
684,1119,1153
685,1125,1151
686,1129,1152
687,1134,1154
688,1145,1155
689,1152,1153
690,1157,1152
691,1160,1150
692,1162,1151
693,1168,1154
694,1178,1154
695,1183,1155
696,1185,1153
697,1189,1152
698,1192,1151
699,1195,1154
700,1200,1159
701,1203,1159
702,1196,1158
703,1191,1157
704,1188,1157
705,1182,1159
706,1176,1162
707,1169,1165
708,1157,1162
709,1143,1160
710,1127,1163
711,1115,1164
712,1103,1166
713,1092,1164
714,1080,1164
715,1065,1162
716,1049,1163
717,1041,1165
718,1034,1167
719,1025,1169
720,1011,1166
721,1003,1165
722,997,1163
723,993,1168
724,990,1168
725,989,1168
726,982,1167
727,976,1165
728,973,1166
729,973,1168
730,973,1171
731,971,1169
732,968,1168
733,964,1163
734,963,1166
735,966,1169
736,967,1168
737,966,1169
738,963,1168
739,963,1169
740,957,1166
741,960,1167
742,963,1172
743,964,1170
744,966,1168
745,961,1167
746,961,1167
747,961,1168
748,963,1173
749,965,1170
750,963,1166
751,962,1166
752,961,1169
753,962,1170
754,965,1175
755,966,1175
756,964,1169
757,963,1167
758,963,1168
759,962,1170
760,966,1172
761,969,1172
762,966,1168
763,963,1168
764,962,1170
765,966,1170
766,970,1176
767,969,1173
768,967,1170
769,965,1170
770,963,1166
771,966,1174
772,968,1176
773,969,1175
774,968,1171
775,963,1169
776,963,1168
777,966,1169
778,964,1172
779,968,1173
780,967,1171
781,965,1169
782,964,1169
783,966,1168
784,966,1171
785,970,1168
786,965,1167
787,962,1165
788,960,1166
789,962,1169
790,965,1173
791,969,1173
792,966,1171
793,964,1169
794,959,1168
795,962,1168
796,963,1172
797,965,1169
798,965,1168
799,962,1164
800,961,1168
801,961,1169
802,965,1171
803,966,1167
804,965,1168
805,962,1167
806,960,1167
807,959,1169
808,964,1170
809,964,1170
810,964,1168
811,962,1165
812,960,1167
813,963,1168
814,963,1170
815,965,1167
816,965,1167
817,963,1164
818,962,1167
819,962,1166
820,963,1170
821,964,1169
822,965,1166
823,963,1163
824,963,1163
825,964,1167
826,968,1168
827,968,1169
828,967,1165
829,965,1163
830,965,1163
831,964,1164
832,969,1168
833,965,1167
834,968,1163
835,964,1162
836,963,1162
837,965,1164
838,969,1167
839,968,1165
840,971,1162
841,967,1161
842,963,1161
843,966,1166
844,967,1167
845,972,1167
846,969,1163
847,968,1162
848,967,1161
849,969,1162
850,971,1165
851,970,1164
852,970,1164
853,965,1161
854,966,1160
855,965,1163
856,971,1165
857,973,1161
858,973,1159
859,967,1157
860,967,1157
861,967,1161
862,972,1162
863,973,1162
864,973,1160
865,970,1159
866,967,1157
867,970,1159
868,974,1163
869,972,1161
870,973,1160
871,970,1158
872,967,1158
873,971,1158
874,974,1164
875,976,1159
876,975,1160
877,970,1157
878,971,1158
879,973,1158
880,976,1163
881,978,1160
882,977,1156
883,973,1155
884,970,1155
885,973,1159
886,974,1159
887,980,1160
888,977,1155
889,971,1154
890,974,1156
891,972,1156
892,976,1158
893,979,1157
894,979,1154
895,977,1156
896,976,1156
897,977,1154
898,978,1158
899,979,1155
900,979,1154
901,976,1151
902,975,1152
903,977,1154
904,980,1159
905,981,1156
906,980,1154
907,980,1156
908,979,1156
909,980,1163
910,985,1163
911,989,1159
912,989,1158
913,988,1152
914,988,1151
915,989,1154
916,990,1153
917,994,1151
918,994,1147
919,996,1143
920,995,1144
921,994,1149
922,998,1149
923,998,1150
924,997,1146
925,997,1146
926,994,1143
927,994,1148
928,993,1148
929,993,1148
930,990,1144
931,985,1140
932,981,1144
933,982,1146
934,987,1147
935,988,1146
936,985,1146
937,982,1142
938,980,1143
939,982,1147
940,988,1148
941,990,1146
942,987,1144
943,983,1142
944,983,1143
945,984,1146
946,988,1147
947,989,1148
948,988,1147
949,987,1143
950,988,1146
951,992,1155
952,996,1168
953,995,1173
954,992,1176
955,979,1177
956,972,1175
957,965,1172
958,966,1165
959,972,1146
960,991,1125
961,1030,1101
962,1102,1082
963,1199,1069
964,1301,1067
965,1383,1076
966,1434,1093
967,1446,1115
968,1406,1129
969,1302,1139
970,1174,1137
971,1046,1136
972,918,1136
973,926,1138
974,950,1141
975,958,1143
976,960,1146
977,956,1143
978,956,1141
979,958,1140
980,963,1140
981,976,1144
982,992,1146
983,1000,1144
984,1004,1143
985,1003,1138
986,1000,1140
987,1003,1142
988,1005,1143
989,1009,1144
990,1007,1138
991,1004,1138
992,1004,1139
993,1003,1139
994,1010,1142
995,1011,1140
996,1012,1140
997,1008,1137
998,1005,1137
999,1013,1143
1000,1016,1139
1001,1016,1137
1002,1013,1133
1003,1012,1136
1004,1012,1140
1005,1016,1140
1006,1018,1140
1007,1018,1136
1008,1016,1132
1009,1011,1132
1010,1016,1134
1011,1019,1136
1012,1019,1134
1013,1021,1134
1014,1020,1134
1015,1019,1134
1016,1022,1136
1017,1024,1138
1018,1028,1137
1019,1025,1132
1020,1024,1131
1021,1025,1131
1022,1027,1132
1023,1030,1135
1024,1033,1134
1025,1036,1132
1026,1031,1129
1027,1028,1128
1028,1031,1133
1029,1035,1132
1030,1036,1130
1031,1034,1127
1032,1035,1127
1033,1036,1129
1034,1039,1130
1035,1042,1132
1036,1044,1128
1037,1045,1125
1038,1045,1125
1039,1044,1126
1040,1047,1128
1041,1054,1128
1042,1056,1127
1043,1057,1123
1044,1058,1123
1045,1058,1122
1046,1060,1123
1047,1066,1124
1048,1070,1124
1049,1075,1119
1050,1074,1118
1051,1074,1118
1052,1078,1122
1053,1084,1124
1054,1092,1123
1055,1093,1119
1056,1094,1116
1057,1094,1115
1058,1101,1118
1059,1106,1121
1060,1114,1118
1061,1116,1112
1062,1119,1110
1063,1123,1112
1064,1130,1114
1065,1137,1114
1066,1142,1113
1067,1147,1111
1068,1149,1107
1069,1153,1106
1070,1159,1108
1071,1165,1111
1072,1171,1109
1073,1175,1107
1074,1177,1102
1075,1184,1103
1076,1186,1105
1077,1193,1106
1078,1200,1106
1079,1200,1103
1080,1203,1102
1081,1204,1103
1082,1208,1105
1083,1212,1108
1084,1212,1107
1085,1210,1108
1086,1203,1107
1087,1194,1108
1088,1188,1111
1089,1183,1114
1090,1175,1115
1091,1163,1114
1092,1149,1111
1093,1134,1112
1094,1126,1113
1095,1114,1116
1096,1104,1115
1097,1089,1113
1098,1078,1110
1099,1065,1111
1100,1052,1115
1101,1047,1113
1102,1042,1112
1103,1030,1110
1104,1021,1109
1105,1015,1112
1106,1010,1111
1107,1007,1113
1108,1005,1110
1109,999,1110
1110,992,1108
1111,989,1107
1112,987,1111
1113,986,1114
1114,985,1111
1115,983,1108
1116,978,1107
1117,974,1108
1118,974,1111
1119,978,1113
1120,977,1111
1121,976,1108
1122,974,1106
1123,973,1106
1124,971,1108
1125,975,1112
1126,977,1108
1127,976,1105
1128,971,1103
1129,970,1104
1130,971,1106
1131,975,1109
1132,976,1105
1133,976,1103
1134,973,1099
1135,971,1102
1136,972,1104
1137,976,1107
1138,976,1104
1139,973,1101
1140,969,1101
1141,972,1102
1142,970,1103
1143,973,1105
1144,973,1104
1145,971,1104
1146,972,1098
1147,972,1100
1148,972,1102
1149,974,1106
1150,977,1101
1151,975,1101
1152,971,1097
1153,971,1100
1154,973,1103
1155,973,1104
1156,974,1102
1157,974,1097
1158,971,1099
1159,972,1096
1160,971,1102
1161,973,1102
1162,974,1101
1163,974,1098
1164,971,1094
1165,971,1098
1166,970,1098
1167,972,1099
1168,972,1096
1169,972,1096
1170,970,1094
1171,966,1095
1172,969,1097
1173,970,1101
1174,971,1098
1175,969,1094
1176,966,1092
1177,964,1091
1178,963,1094
1179,965,1096
1180,967,1095
1181,967,1094
1182,962,1092
1183,962,1092
1184,962,1094
1185,964,1096
1186,964,1094
1187,965,1093
1188,962,1090
1189,960,1089
1190,960,1093
1191,963,1095
1192,963,1093
1193,961,1090
1194,956,1090
1195,956,1088
1196,954,1091
1197,958,1093
1198,959,1091
1199,956,1089
1200,952,1087
1201,952,1087
1202,955,1089
1203,957,1091
1204,957,1089
1205,958,1088
1206,955,1085
1207,954,1084
1208,954,1088
1209,955,1088
1210,955,1088
1211,954,1085
1212,954,1081
1213,953,1081
1214,955,1087
1215,957,1087
1216,960,1086
1217,956,1084
1218,953,1081
1219,951,1082
1220,950,1084
1221,953,1086
1222,954,1085
1223,955,1083
1224,954,1078
1225,952,1080
1226,947,1083
1227,952,1084
1228,956,1085
1229,951,1081
1230,950,1079
1231,952,1078
1232,951,1082
1233,951,1084
1234,955,1082
1235,950,1078
1236,950,1079
1237,948,1080
1238,949,1082
1239,951,1082
1240,953,1081
1241,953,1078
1242,948,1075
1243,948,1075
1244,951,1076
1245,952,1079
1246,953,1080
1247,950,1079
1248,950,1075
1249,948,1075
1250,949,1079
1251,951,1079
1252,952,1078
1253,951,1075
1254,945,1074
1255,946,1074
1256,948,1077
1257,947,1079
1258,951,1075
1259,950,1074
1260,948,1072
1261,945,1074
1262,947,1074
1263,949,1077
1264,951,1077
1265,950,1079
1266,950,1075
1267,947,1077
1268,949,1082
1269,956,1083
1270,957,1081
1271,960,1077
1272,959,1073
1273,957,1071
1274,957,1071
1275,959,1071
1276,966,1067
1277,966,1064
1278,965,1063
1279,961,1063
1280,960,1068
1281,962,1070
1282,962,1068
1283,961,1067
1284,958,1064
1285,954,1067
1286,952,1068
1287,952,1072
1288,952,1068
1289,945,1064
1290,941,1065
1291,936,1063
1292,939,1068
1293,940,1070
1294,944,1068
1295,943,1067
1296,937,1064
1297,938,1063
1298,939,1065
1299,944,1066
1300,944,1066
1301,945,1064
1302,940,1062
1303,939,1061
1304,941,1063
1305,944,1065
1306,944,1063
1307,944,1064
1308,942,1064
1309,943,1067
1310,946,1073
1311,947,1081
1312,948,1090
1313,942,1094
1314,937,1098
1315,926,1098
1316,923,1100
1317,922,1094
1318,922,1080
1319,930,1059
1320,953,1036
1321,1004,1014
1322,1083,992
1323,1178,980
1324,1272,978
1325,1353,983
1326,1398,1000
1327,1414,1023
1328,1394,1040
1329,1322,1053
1330,1194,1052
1331,1066,1049
1332,938,1050
1333,861,1056
1334,884,1064
1335,908,1067
1336,909,1066
1337,899,1064
1338,896,1058
1339,900,1060
1340,909,1066
1341,919,1070
1342,931,1069
1343,939,1066
1344,945,1063
1345,944,1062
1346,945,1065
1347,946,1066
1348,947,1063
1349,947,1063
1350,945,1061
1351,943,1059
1352,942,1061
1353,945,1063
1354,948,1063
1355,948,1060
1356,944,1061
1357,944,1061
1358,945,1061
1359,947,1064
1360,951,1064
1361,949,1059
1362,943,1057
1363,944,1058
1364,947,1058
1365,946,1063
1366,949,1059
1367,948,1059
1368,949,1056
1369,946,1057
1370,949,1057
1371,952,1059
1372,951,1057
1373,953,1056
1374,947,1053
1375,951,1055
1376,951,1057
1377,952,1059
1378,957,1056
1379,953,1056
1380,954,1054
1381,951,1055
1382,955,1056
1383,957,1060
1384,957,1057
1385,955,1057
1386,955,1053
1387,954,1053
1388,954,1053
1389,958,1057
1390,962,1055
1391,962,1053
1392,958,1050
1393,958,1050
1394,961,1053
1395,965,1054
1396,966,1054
1397,968,1051
1398,966,1049
1399,966,1050
1400,968,1051
1401,971,1054
1402,976,1053
1403,977,1048
1404,975,1048
1405,976,1050
1406,979,1048
1407,985,1053
1408,986,1048
1409,990,1051
1410,989,1047
1411,988,1045
1412,993,1050
1413,997,1052
1414,1004,1052
1415,1004,1046
1416,1006,1047
1417,1008,1045
1418,1012,1047
1419,1021,1048
1420,1026,1047
1421,1029,1045
1422,1030,1042
1423,1033,1042
1424,1042,1046
1425,1047,1048
1426,1055,1048
1427,1060,1043
1428,1060,1041
1429,1062,1041
1430,1070,1042
1431,1077,1045
1432,1084,1043
1433,1089,1039
1434,1091,1039
1435,1094,1038
1436,1102,1039
1437,1113,1040
1438,1116,1038
1439,1118,1036
1440,1122,1034
1441,1123,1034
1442,1130,1036
1443,1136,1039
1444,1144,1037
1445,1142,1033
1446,1143,1033
1447,1141,1036
1448,1143,1038
1449,1142,1041
1450,1140,1042
1451,1130,1041
1452,1121,1039
1453,1109,1042
1454,1100,1043
1455,1091,1045
1456,1080,1044
1457,1063,1043
1458,1048,1041
1459,1034,1042
1460,1022,1043
1461,1010,1047
1462,999,1042
1463,988,1044
1464,972,1042
1465,961,1040
1466,951,1041
1467,947,1044
1468,944,1045
1469,937,1043
1470,924,1040
1471,919,1040
1472,917,1042
1473,916,1045
1474,914,1041
1475,910,1040
1476,905,1036
1477,902,1038
1478,898,1041
1479,900,1042
1480,899,1040
1481,898,1037
1482,895,1036
1483,892,1037
1484,891,1039
1485,894,1043
1486,896,1040
1487,892,1038
1488,890,1035
1489,885,1035
1490,888,1039
1491,890,1040
1492,891,1038
1493,888,1038
1494,884,1036
1495,885,1036
1496,883,1039
1497,888,1041
1498,888,1038
1499,886,1037
1500,883,1033
1501,885,1034
1502,887,1038
1503,889,1042
1504,891,1038
1505,892,1035
1506,889,1033
1507,887,1033
1508,887,1035
1509,891,1039
1510,891,1039
1511,888,1034
1512,886,1034
1513,884,1032
1514,886,1035
1515,888,1039
1516,888,1036
1517,888,1035
1518,888,1034
1519,886,1034
1520,885,1034
1521,888,1037
1522,891,1035
1523,890,1034
1524,887,1032
1525,885,1031
1526,882,1034
1527,884,1034
1528,886,1033
1529,888,1033
1530,883,1030
1531,880,1033
1532,880,1031
1533,883,1036
1534,887,1033
1535,884,1032
1536,881,1029
1537,881,1031
1538,881,1031
1539,883,1035
1540,883,1030
1541,883,1029
1542,880,1027
1543,878,1029
1544,877,1033
1545,880,1034
1546,881,1031
1547,879,1027
1548,878,1027
1549,877,1028
1550,876,1029
1551,880,1033
1552,880,1028
1553,879,1026
1554,874,1025
1555,873,1027
1556,874,1030
1557,878,1032
1558,878,1028
1559,878,1027
1560,870,1025
1561,873,1026
1562,872,1026
1563,875,1030
1564,874,1030
1565,876,1028
1566,872,1024
1567,869,1024
1568,873,1025
1569,877,1027
1570,879,1028
1571,878,1025
1572,874,1021
1573,872,1023
1574,874,1025
1575,878,1026
1576,879,1026
1577,878,1025
1578,874,1022
1579,871,1023
1580,873,1027
1581,876,1025
1582,879,1027
1583,877,1025
1584,872,1022
1585,872,1022
1586,876,1025
1587,876,1026
1588,877,1026
1589,874,1022
1590,873,1020
1591,873,1024
1592,873,1024
1593,876,1025
1594,875,1025
1595,874,1022
1596,873,1020
1597,873,1024
1598,873,1023
1599,874,1027
1600,876,1023
1601,873,1022
1602,876,1020
1603,873,1021
1604,872,1023
1605,876,1027
1606,879,1023
1607,876,1021
1608,874,1021
1609,875,1019
1610,874,1021
1611,877,1025
1612,877,1023
1613,876,1020
1614,872,1018
1615,872,1019
1616,876,1022
1617,879,1025
1618,879,1023
1619,880,1021
1620,876,1020
1621,875,1021
1622,875,1022
1623,880,1023
1624,881,1022
1625,877,1021
1626,875,1018
1627,875,1019
1628,876,1022
1629,879,1022
1630,879,1021
1631,878,1019
1632,876,1018
1633,877,1020
1634,878,1022
1635,881,1023
1636,882,1021
1637,881,1019
1638,879,1017
1639,875,1019
1640,877,1020
1641,881,1022
1642,882,1023
1643,882,1020
1644,880,1021
1645,881,1022
1646,881,1027
1647,885,1033
1648,890,1030
1649,887,1027
1650,886,1023
1651,890,1019
1652,892,1022
1653,895,1024
1654,895,1020
1655,895,1013
1656,896,1010
1657,897,1010
1658,894,1016
1659,898,1015
1660,899,1018
1661,899,1013
1662,896,1013
1663,894,1013
1664,895,1017
1665,892,1019
1666,892,1017
1667,888,1013
1668,882,1013
1669,881,1012
1670,882,1015
1671,884,1015
1672,887,1015
1673,884,1014
1674,884,1014
1675,881,1013
1676,885,1014
1677,886,1018
1678,886,1015
1679,884,1013
1680,884,1011
1681,882,1012
1682,884,1014
1683,889,1018
1684,892,1019
1685,890,1016
1686,888,1014
1687,889,1017
1688,892,1025
1689,895,1034
1690,894,1043
1691,890,1047
1692,883,1053
1693,875,1053
1694,869,1052
1695,870,1045
1696,875,1031
1697,884,1008
1698,911,982
1699,967,956
1700,1058,936
1701,1162,923
1702,1264,923
1703,1342,939
1704,1384,956
1705,1384,982
1706,1325,999
1707,1197,1004
1708,1069,999
1709,941,998
1710,814,1002
1711,832,1011
1712,856,1017
1713,864,1021
1714,860,1015
1715,857,1011
1716,856,1013
1717,862,1015
1718,870,1018
1719,883,1022
1720,893,1019
1721,896,1016
1722,897,1013
1723,895,1013
1724,899,1016
1725,900,1021
1726,904,1020
1727,900,1014
1728,900,1012
1729,900,1012
1730,903,1019
1731,907,1019
1732,907,1017
1733,905,1014
1734,903,1011
1735,904,1013
1736,905,1015
1737,911,1019
1738,908,1016
1739,908,1014
1740,907,1011
1741,906,1014
1742,910,1014
1743,914,1018
1744,915,1015
1745,915,1011
1746,911,1010
1747,912,1011
1748,913,1013
1749,919,1014
1750,917,1016
1751,919,1011
1752,915,1009
1753,914,1011
1754,917,1013
1755,921,1016
1756,923,1012
1757,924,1012
1758,924,1007
1759,922,1010
1760,926,1012
1761,929,1013
1762,932,1012
1763,933,1010
1764,932,1009
1765,932,1009
1766,936,1009
1767,940,1011
1768,944,1010
1769,943,1008
1770,945,1007
1771,946,1007
1772,949,1011
1773,955,1011
1774,958,1009
1775,959,1006
1776,961,1003
1777,964,1004
1778,968,1007
1779,970,1008
1780,980,1006
1781,984,1005
1782,987,1003
1783,989,1003
1784,996,1006
1785,1006,1007
1786,1011,1006
1787,1013,1002
1788,1017,1000
1789,1022,1001
1790,1027,1002
1791,1039,1003
1792,1047,1000
1793,1050,1000
1794,1053,997
1795,1059,998
1796,1067,1000
1797,1076,1001
1798,1081,998
1799,1086,995
1800,1087,995
1801,1090,995
1802,1100,1000
1803,1106,1001
1804,1114,997
1805,1117,994
1806,1120,993
1807,1121,993
1808,1126,996
1809,1130,1000
1810,1132,999
1811,1127,998
1812,1120,997
1813,1116,999
1814,1110,1006
1815,1103,1007
1816,1093,1006
1817,1080,1002
1818,1065,1003
1819,1052,1004
1820,1039,1004
1821,1029,1007
1822,1016,1006
1823,1002,1004
1824,987,1002
1825,975,1002
1826,963,1006
1827,956,1007
1828,947,1006
1829,940,1005
1830,929,1001
1831,921,1002
1832,915,1003
1833,914,1009
1834,912,1007
1835,907,1002
1836,903,1001
1837,898,1002
1838,896,1005
1839,897,1010
1840,897,1006
1841,894,1002
1842,891,1002
1843,888,1002
1844,887,1006
1845,889,1006
1846,891,1005
1847,890,998
1848,887,1000
1849,882,1001
1850,885,1005
1851,888,1006
1852,889,1004
1853,888,1003
1854,883,1001
1855,881,1003
1856,883,1005
1857,888,1008
1858,887,1006
1859,886,1002
1860,886,999
1861,882,1001
1862,883,1003
1863,887,1005
1864,889,1005
1865,888,1002
1866,886,1000
1867,883,1002
1868,885,1005
1869,892,1005
1870,891,1006
1871,889,1003
1872,888,1000
1873,886,1000
1874,888,1004
1875,893,1006
1876,895,1003
1877,891,1001
1878,890,1000
1879,884,999
1880,890,1004
1881,893,1007
1882,895,1002
1883,894,1001
1884,890,998
1885,889,1000
1886,889,1003
1887,892,1004
1888,895,1001
1889,892,999
1890,891,999
1891,888,1001
1892,889,1003
1893,892,1003
1894,895,1002
1895,893,1001
1896,893,998
1897,890,1000
1898,891,1001
1899,895,1004
1900,895,1002
1901,895,998
1902,892,1001
1903,887,1001
1904,890,1001
1905,894,1004
1906,896,1002
1907,894,999
1908,889,998
1909,891,999
1910,892,1001
1911,893,1004
1912,894,1004
1913,893,1000
1914,890,996
1915,887,999
1916,888,999
1917,892,1003
1918,893,999
1919,892,997
1920,890,995
1921,890,999
1922,891,1001
1923,891,1002
1924,891,1000
1925,892,1001
1926,890,997
1927,887,996
1928,890,999
1929,894,1001
1930,896,999
1931,892,997
1932,891,999
1933,889,996
1934,892,1000
1935,893,1002
1936,895,1001
1937,894,999
1938,890,996
1939,892,996
1940,894,998
1941,896,1001
1942,894,1000
1943,894,999
1944,892,995
1945,889,997
1946,893,998
1947,897,1002
1948,898,999
1949,897,998
1950,893,995
1951,891,996
1952,892,996
1953,897,1001
1954,898,998
1955,897,999
1956,893,995
1957,895,996
1958,899,997
1959,899,1000
1960,902,999
1961,898,996
1962,896,993
1963,895,994
1964,897,996
1965,898,1000
1966,902,999
1967,902,998
1968,900,995
1969,898,995
1970,900,998
1971,900,997
1972,901,998
1973,903,997
1974,900,994
1975,897,994
1976,900,997
1977,903,1001
1978,906,999
1979,904,995
1980,897,996
1981,899,996
1982,902,998
1983,904,1000
1984,905,998
1985,903,997
1986,903,995
1987,902,995
1988,904,1001
1989,906,1001
1990,905,999
1991,904,997
1992,901,994
1993,901,995
1994,902,998
1995,908,1001
1996,911,998
1997,908,997
1998,904,995
1999,905,995
2000,907,999
2001,908,1000
2002,910,999
2003,910,995
2004,905,993
2005,907,996
2006,908,998
2007,910,1000
2008,910,1000
2009,909,997
2010,909,994
2011,905,995
2012,907,998
2013,912,1001
2014,913,997
2015,910,996
2016,908,995
2017,908,998
2018,909,998
2019,909,999
2020,913,998
2021,912,1000
2022,908,997
2023,910,994
2024,910,997
2025,913,1001
2026,916,999
2027,915,997
2028,912,998
2029,912,1000
2030,916,1004
2031,919,1009
2032,922,1009
2033,921,1006
2034,919,1003
2035,922,1002
2036,927,1002
2037,930,1003
2038,933,1002
2039,929,997
2040,928,994
2041,929,991
2042,932,992
2043,936,995
2044,935,994
2045,933,992
2046,928,993
2047,927,995
2048,930,998
2049,931,999
2050,935,998
2051,927,994
2052,924,996
2053,922,995
2054,921,999
2055,924,1000
2056,921,999
2057,920,996
2058,918,994
2059,918,996
2060,920,999
2061,923,999
2062,926,997
2063,921,997
2064,922,996
2065,919,996
2066,921,999
2067,926,1001
2068,925,1000
2069,925,998
2070,923,994
2071,921,996
2072,927,1001
2073,928,1004
2074,932,1002
2075,931,1004
2076,929,1008
2077,927,1015
2078,930,1026
2079,931,1039
2080,925,1042
2081,920,1041
2082,910,1036
2083,906,1032
2084,907,1023
2085,915,1014
2086,930,992
2087,959,970
2088,1008,947
2089,1083,926
2090,1177,915
2091,1276,915
2092,1355,926
2093,1412,938
2094,1431,956
2095,1418,973
2096,1356,985
2097,1238,989
2098,1110,989
2099,982,984
2100,872,985
2101,869,995
2102,891,1001
2103,902,1006
2104,903,1004
2105,898,999
2106,896,998
2107,901,1001
2108,902,1004
2109,914,1008
2110,924,1007
2111,936,1006
2112,940,1003
2113,939,1004
2114,942,1009
2115,944,1009
2116,945,1005
2117,944,1007
2118,942,1003
2119,943,1005
2120,944,1008
2121,947,1011
2122,951,1010
2123,948,1004
2124,947,1005
2125,947,1005
2126,948,1007
2127,952,1012
2128,953,1009
2129,952,1008
2130,948,1005
2131,950,1005
2132,952,1009
2133,956,1010
2134,955,1010
2135,956,1006
2136,954,1004
2137,952,1005
2138,956,1008
2139,959,1010
2140,962,1008
2141,960,1005
2142,956,1005
2143,957,1007
2144,958,1007
2145,962,1009
2146,962,1009
2147,962,1007
2148,959,1005
2149,958,1007
2150,961,1008
2151,967,1012
2152,966,1010
2153,966,1008
2154,965,1007
2155,963,1006
2156,967,1007
2157,971,1008
2158,973,1006
2159,974,1004
2160,970,1003
2161,968,1005
2162,971,1007
2163,976,1011
2164,978,1010
2165,978,1008
2166,977,1003
2167,974,1004
2168,979,1007
2169,984,1008
2170,985,1010
2171,984,1005
2172,983,1004
2173,982,1005
2174,986,1006
2175,991,1010
2176,995,1008
2177,997,1005
2178,993,1004
2179,996,1003
2180,1000,1005
2181,1006,1010
2182,1009,1008
2183,1009,1005
2184,1008,1004
2185,1011,1003
2186,1016,1006
2187,1021,1008
2188,1026,1006
2189,1027,1004
2190,1029,1002
2191,1032,1003
2192,1038,1006
2193,1044,1007
2194,1051,1004
2195,1054,1004
2196,1058,1003
2197,1060,1001
2198,1068,1003
2199,1077,1007
2200,1084,1005
2201,1088,1001
2202,1090,1000
2203,1091,1000
2204,1097,1003
2205,1106,1004
2206,1115,1003
2207,1118,1002
2208,1123,997
2209,1127,1000
2210,1133,1001
2211,1143,1003
2212,1151,1001
2213,1154,998
2214,1155,998
2215,1156,999
2216,1164,1002
2217,1169,1003
2218,1175,1003
2219,1176,1002
2220,1171,1000
2221,1166,1002
2222,1167,1005
2223,1166,1010
2224,1158,1009
2225,1148,1007
2226,1139,1003
2227,1128,1008
2228,1117,1009
2229,1106,1010
2230,1099,1009
2231,1086,1010
2232,1072,1006
2233,1055,1007
2234,1042,1010
2235,1037,1011
2236,1026,1012
2237,1012,1011
2238,1000,1009
2239,989,1011
2240,982,1011
2241,977,1016
2242,970,1013
2243,966,1010
2244,956,1009
2245,952,1009
2246,949,1012
2247,948,1014
2248,946,1013
2249,940,1010
2250,939,1009
2251,935,1007
2252,935,1014
2253,936,1016
2254,937,1012
2255,934,1012
2256,929,1009
2257,924,1009
2258,927,1012
2259,929,1016
2260,928,1013
2261,928,1010
2262,925,1008
2263,924,1010
2264,927,1014
2265,929,1015
2266,929,1013
2267,928,1013
2268,925,1011
2269,923,1010
2270,924,1012
2271,929,1017
2272,930,1014
2273,927,1012
2274,924,1013
2275,926,1012
2276,927,1012
2277,929,1017
2278,928,1013
2279,930,1013
2280,927,1011
2281,927,1011
2282,928,1016
2283,931,1019
2284,932,1018
2285,929,1015
2286,929,1013
2287,926,1013
2288,931,1016
2289,931,1017
2290,932,1016
2291,932,1014
2292,929,1009
2293,927,1012
2294,929,1013
2295,933,1017
2296,934,1013
2297,932,1011
2298,931,1009
2299,927,1011
2300,930,1015
2301,932,1017
2302,933,1016
2303,933,1015
2304,929,1013
2305,929,1012
2306,927,1015
2307,931,1015
2308,934,1015
2309,932,1013
2310,928,1010
2311,925,1012
2312,928,1015
2313,931,1016
2314,933,1013
2315,927,1014
2316,926,1011
2317,925,1015
2318,928,1015
2319,930,1016
2320,930,1017
2321,930,1015
2322,925,1014
2323,923,1015
2324,923,1016
2325,928,1017
2326,929,1015
2327,930,1013
2328,927,1012
2329,923,1011
2330,926,1016
2331,927,1019
2332,928,1018
2333,928,1014
2334,925,1012
2335,922,1012
2336,924,1017
2337,926,1018
2338,928,1018
2339,926,1013
2340,926,1014
2341,925,1015
2342,929,1018
2343,929,1017
2344,930,1016
2345,928,1016
2346,925,1013
2347,924,1015
2348,926,1014
2349,930,1020
2350,928,1017
2351,931,1015
2352,928,1013
2353,926,1013
2354,927,1014
2355,930,1019
2356,930,1017
2357,928,1014
2358,927,1015
2359,927,1014
2360,928,1017
2361,931,1018
2362,933,1018
2363,933,1016
2364,929,1013
2365,928,1015
2366,929,1016
2367,933,1019
2368,934,1019
2369,929,1016
2370,929,1015
2371,926,1014
2372,928,1014
2373,932,1020
2374,934,1019
2375,932,1014
2376,928,1013
2377,926,1014
2378,930,1014
2379,935,1019
2380,936,1019
2381,935,1015
2382,931,1014
2383,930,1015
2384,930,1017
2385,932,1018
2386,936,1017
2387,936,1016
2388,934,1016
2389,931,1016
2390,931,1017
2391,936,1019
2392,936,1019
2393,932,1019
2394,932,1015
2395,931,1014
2396,933,1017
2397,938,1018
2398,938,1020
2399,937,1015
2400,933,1012
2401,930,1016
2402,937,1016
2403,939,1018
2404,942,1019
2405,941,1016
2406,935,1013
2407,934,1014
2408,935,1016
2409,938,1018
2410,941,1017
2411,941,1015
2412,937,1013
2413,934,1017
2414,937,1019
2415,940,1020
2416,942,1020
2417,943,1016
2418,939,1016
2419,938,1018
2420,938,1020
2421,940,1023
2422,943,1023
2423,943,1019
2424,941,1018
2425,941,1013
2426,941,1017
2427,942,1018
2428,947,1017
2429,946,1015
2430,942,1014
2431,939,1015
2432,942,1019
2433,943,1021
2434,943,1021
2435,944,1016
2436,939,1016
2437,939,1018
2438,943,1019
2439,944,1021
2440,943,1023
2441,945,1020
2442,944,1022
2443,944,1023
2444,945,1027
2445,951,1030
2446,953,1026
2447,953,1024
2448,950,1023
2449,950,1023
2450,956,1024
2451,960,1026
2452,961,1020
2453,959,1020
2454,955,1018
2455,953,1014
2456,958,1017
2457,960,1017
2458,968,1014
2459,965,1014
2460,960,1013
2461,957,1014
2462,960,1018
2463,964,1020
2464,965,1020
2465,961,1018
2466,958,1019
2467,954,1018
2468,955,1022
2469,956,1022
2470,956,1020
2471,953,1018
2472,949,1017
2473,947,1017
2474,949,1022
2475,950,1020
2476,953,1021
2477,952,1017
2478,949,1017
2479,950,1019
2480,950,1022
2481,953,1024
2482,952,1023
2483,953,1021
2484,951,1017
2485,948,1019
2486,949,1022
2487,954,1025
2488,954,1022
2489,958,1022
2490,955,1022
2491,955,1021
2492,956,1027
2493,961,1032
2494,960,1037
2495,962,1041
2496,957,1046
2497,953,1056
2498,950,1065
2499,945,1068
2500,943,1064
2501,937,1057
2502,934,1046
2503,939,1032
2504,961,1012
2505,1006,995
2506,1081,972
2507,1174,952
2508,1269,943
2509,1353,952
2510,1414,968
2511,1439,991
2512,1427,1007
2513,1358,1016
2514,1233,1016
2515,1105,1016
2516,977,1016
2517,901,1022
2518,901,1023
2519,918,1026
2520,924,1027
2521,922,1028
2522,921,1029
2523,922,1030
2524,924,1029
2525,929,1027
2526,930,1025
2527,936,1028
2528,946,1029
2529,958,1031
2530,968,1032
2531,972,1030
2532,967,1027
2533,969,1029
2534,968,1031
2535,970,1032
2536,975,1031
2537,974,1025
2538,973,1025
2539,972,1024
2540,974,1028
2541,978,1030
2542,980,1030
2543,976,1028
2544,978,1024
2545,975,1023
2546,978,1028
2547,982,1030
2548,984,1028
2549,984,1028
2550,981,1026
2551,981,1026
2552,982,1031
2553,987,1031
2554,988,1030
2555,987,1028
2556,983,1027
2557,983,1026
2558,986,1028
2559,990,1033
2560,992,1031
2561,991,1031
2562,988,1026
2563,988,1029
2564,991,1031
2565,993,1031
2566,997,1028
2567,994,1027
2568,994,1024
2569,993,1025
2570,993,1028
2571,995,1031
2572,998,1029
2573,995,1030
2574,994,1027
2575,995,1028
2576,1000,1028
2577,1003,1032
2578,1005,1030
2579,1002,1026
2580,1004,1025
2581,1001,1028
2582,1006,1028
2583,1009,1032
2584,1012,1029
2585,1012,1026
2586,1012,1025
2587,1010,1023
2588,1017,1028
2589,1022,1030
2590,1023,1029
2591,1023,1027
2592,1026,1026
2593,1026,1024
2594,1029,1028
2595,1033,1028
2596,1035,1029
2597,1036,1024
2598,1037,1025
2599,1038,1024
2600,1044,1027
2601,1051,1028
2602,1055,1027
2603,1058,1025
2604,1056,1025
2605,1063,1023
2606,1067,1025
2607,1076,1028
2608,1081,1023
2609,1084,1023
2610,1086,1020
2611,1086,1022
2612,1097,1022
2613,1106,1023
2614,1113,1023
2615,1115,1018
2616,1119,1019
2617,1125,1020
2618,1132,1020
2619,1140,1021
2620,1147,1020
2621,1150,1019
2622,1153,1017
2623,1157,1015
2624,1165,1017
2625,1174,1019
2626,1178,1018
2627,1183,1018
2628,1184,1012
2629,1187,1013
2630,1194,1018
2631,1200,1020
2632,1202,1019
2633,1203,1019
2634,1200,1018
2635,1197,1019
2636,1195,1023
2637,1195,1025
2638,1191,1026
2639,1180,1025
2640,1168,1024
2641,1158,1026
2642,1146,1028
2643,1140,1031
2644,1127,1031
2645,1114,1027
2646,1095,1029
2647,1081,1028
2648,1069,1032
2649,1059,1032
2650,1047,1032
2651,1035,1030
2652,1023,1029
2653,1012,1030
2654,1004,1033
2655,1003,1034
2656,997,1034
2657,990,1032
2658,983,1030
2659,976,1031
2660,973,1035
2661,975,1036
2662,974,1035
2663,971,1031
2664,966,1031
2665,964,1031
2666,964,1032
2667,965,1037
2668,966,1034
2669,963,1031
2670,959,1029
2671,957,1031
2672,959,1031
2673,961,1036
2674,961,1032
2675,961,1032
2676,958,1031
2677,957,1033
2678,954,1036
2679,960,1037
2680,960,1034
2681,961,1033
2682,957,1030
2683,956,1030
2684,955,1035
2685,959,1036
2686,961,1037
2687,961,1032
2688,959,1030
2689,959,1031
2690,959,1034
2691,961,1038
2692,962,1036
2693,963,1032
2694,959,1031
2695,959,1033
2696,960,1034
2697,961,1037
2698,963,1038
2699,963,1033
2700,959,1031
2701,960,1030
2702,962,1031
2703,964,1038
2704,966,1036
2705,963,1033
2706,961,1031
2707,960,1030
2708,963,1035
2709,964,1037
2710,967,1035
2711,966,1031
2712,962,1029
2713,962,1032
2714,962,1034
2715,964,1037
2716,967,1035
2717,965,1032
2718,962,1030
2719,963,1031
2720,960,1034
2721,964,1036
2722,965,1035
2723,962,1032
2724,956,1033
2725,958,1032
2726,959,1034
2727,961,1035
2728,964,1034
2729,963,1032
2730,962,1030
2731,957,1030
2732,960,1033
2733,962,1038
2734,962,1034
2735,962,1033
2736,957,1029
2737,957,1030
2738,955,1034
2739,959,1036
2740,963,1035
2741,960,1031
2742,956,1028
2743,956,1032
2744,956,1034
2745,959,1037
2746,959,1034
2747,957,1030
2748,958,1029
2749,956,1031
2750,958,1034
2751,958,1033
2752,960,1033
2753,960,1031
2754,956,1026
2755,957,1030
2756,958,1032
2757,961,1035
2758,962,1033
2759,959,1031
2760,956,1031
2761,953,1030
2762,955,1031
2763,957,1036
2764,959,1033
2765,959,1029
2766,959,1030
2767,956,1032
2768,958,1034
2769,963,1035
2770,963,1033
2771,959,1029
2772,955,1028
2773,955,1030
2774,956,1030
2775,960,1034
2776,959,1032
2777,957,1030
2778,955,1028
2779,958,1028
2780,956,1033
2781,958,1036
2782,961,1035
2783,960,1031
2784,959,1031
2785,960,1032
2786,961,1030
2787,961,1032
2788,964,1033
2789,963,1029
2790,960,1028
2791,961,1029
2792,962,1033
2793,964,1035
2794,962,1033
2795,963,1033
2796,959,1030
2797,958,1030
2798,961,1032
2799,962,1035
2800,966,1033
2801,965,1033
2802,963,1030
2803,960,1030
2804,963,1034
2805,965,1035
2806,965,1037
2807,966,1035
2808,963,1038
2809,966,1039
2810,970,1043
2811,973,1044
2812,975,1045
2813,977,1040
2814,973,1038
2815,976,1036
2816,975,1036
2817,979,1039
2818,982,1036
2819,981,1030
2820,979,1026
2821,979,1029
2822,983,1030
2823,990,1031
2824,987,1030
2825,985,1027
2826,981,1027
2827,978,1028
2828,981,1030
2829,982,1034
2830,980,1032
2831,975,1030
2832,971,1028
2833,967,1030
2834,969,1033
2835,969,1033
2836,970,1032
2837,968,1028
2838,963,1029
2839,961,1031
2840,965,1031
2841,967,1034
2842,969,1032
2843,968,1031
2844,966,1031
2845,962,1030
2846,966,1033
2847,969,1035
2848,970,1032
2849,969,1030
2850,967,1030
2851,967,1029
2852,968,1033
2853,970,1037
2854,974,1037
2855,974,1037
2856,974,1038
2857,972,1050
2858,974,1059
2859,975,1071
2860,970,1078
2861,962,1079
2862,953,1075
2863,945,1068
2864,947,1057
2865,956,1043
2866,978,1020
2867,1020,995
2868,1091,973
2869,1192,952
2870,1302,948
2871,1394,962
2872,1454,982
2873,1471,1000
2874,1428,1015
2875,1320,1023
2876,1192,1026
2877,1064,1027
2878,936,1031
2879,908,1036
2880,931,1037
2881,943,1041
2882,940,1042
2883,940,1040
2884,940,1038
2885,944,1036
2886,948,1036
2887,957,1039
2888,970,1041
2889,979,1041
2890,982,1040
2891,979,1038
2892,976,1037
2893,975,1036
2894,981,1040
2895,983,1039
2896,985,1038
2897,984,1035
2898,981,1037
2899,983,1037
2900,986,1041
2901,988,1040
2902,989,1036
2903,989,1037
2904,984,1035
2905,984,1033
2906,990,1038
2907,991,1038
2908,992,1036
2909,990,1034
2910,988,1033
2911,990,1034
2912,989,1038
2913,995,1038
2914,997,1040
2915,995,1037
2916,993,1034
2917,994,1032
2918,994,1036
2919,995,1038
2920,1000,1038
2921,998,1036
2922,997,1033
2923,997,1035
2924,1000,1035
2925,1003,1036
2926,1003,1038
2927,1004,1034
2928,1002,1032
2929,1000,1034
2930,1004,1036
2931,1010,1039
2932,1011,1035
2933,1014,1033
2934,1012,1032
2935,1010,1032
2936,1016,1033
2937,1018,1035
2938,1020,1034
2939,1022,1033
2940,1023,1030
2941,1022,1035
2942,1024,1034
2943,1030,1037
2944,1034,1036
2945,1035,1032
2946,1037,1029
2947,1038,1030
2948,1043,1035
2949,1048,1038
2950,1053,1036
2951,1054,1032
2952,1058,1028
2953,1061,1029
2954,1066,1030
2955,1073,1034
2956,1078,1032
2957,1079,1030
2958,1084,1027
2959,1085,1030
2960,1092,1034
2961,1101,1033
2962,1110,1030
2963,1112,1025
2964,1119,1023
2965,1124,1025
2966,1132,1026
2967,1141,1030
2968,1147,1029
2969,1150,1023
2970,1154,1025
2971,1158,1024
2972,1166,1024
2973,1174,1028
2974,1183,1028
2975,1187,1025
2976,1191,1021
2977,1194,1021
2978,1200,1025
2979,1208,1026
2980,1210,1027
2981,1211,1025
2982,1207,1024
2983,1205,1026
2984,1204,1029
2985,1201,1032
2986,1195,1031
2987,1184,1030
2988,1170,1029
2989,1156,1030
2990,1145,1034
2991,1132,1036
2992,1120,1034
2993,1108,1032
2994,1093,1032
2995,1075,1032
2996,1063,1035
2997,1055,1039
2998,1044,1037
2999,1032,1034
3000,1022,1031
3001,1009,1031
3002,1004,1034
3003,1001,1036
3004,995,1036
3005,989,1032
3006,979,1029
3007,977,1033
3008,976,1034
3009,975,1035
3010,975,1034
3011,970,1032
3012,965,1030
3013,962,1032
3014,960,1031
3015,962,1036
3016,963,1034
3017,957,1032
3018,956,1030
3019,956,1031
3020,956,1032
3021,956,1035
3022,958,1036
3023,958,1033
3024,954,1033
3025,954,1034
3026,956,1035
3027,955,1037
3028,959,1034
3029,958,1033
3030,954,1032
3031,954,1034
3032,953,1037
3033,954,1038
3034,957,1035
3035,957,1034
3036,953,1030
3037,951,1034
3038,955,1034
3039,957,1038
3040,960,1038
3041,956,1035
3042,956,1033
3043,953,1034
3044,955,1036
3045,959,1037
3046,958,1036
3047,954,1032
3048,957,1032
3049,957,1034
3050,957,1035
3051,958,1036
3052,958,1037
3053,957,1036
3054,956,1032
3055,951,1032
3056,952,1036
3057,958,1037
3058,960,1035
3059,958,1035
3060,955,1032
3061,953,1030
3062,956,1036
3063,955,1036
3064,958,1034
3065,958,1034
3066,953,1031
3067,953,1035
3068,950,1037
3069,955,1038
3070,956,1038
3071,955,1035
3072,951,1033
3073,951,1033
3074,953,1035
3075,955,1038
3076,953,1038
3077,950,1034
3078,947,1032
3079,945,1033
3080,948,1035
3081,951,1038
3082,952,1037
3083,947,1035
3084,946,1034
3085,944,1034
3086,948,1036
3087,951,1037
3088,949,1036
3089,947,1034
3090,944,1031
3091,943,1031
3092,942,1036
3093,947,1037
3094,950,1036
3095,949,1034
3096,944,1033
3097,941,1034
3098,943,1038
3099,944,1039
3100,948,1038
3101,947,1036
3102,943,1034
3103,942,1036
3104,941,1037
3105,947,1040
3106,946,1038
3107,946,1037
3108,943,1033
3109,942,1035
3110,942,1036
3111,947,1039
3112,946,1037
3113,945,1037
3114,941,1034
3115,941,1034
3116,940,1039
3117,945,1041
3118,943,1040
3119,943,1035
3120,939,1034
3121,939,1036
3122,942,1038
3123,943,1042
3124,942,1040
3125,941,1036
3126,941,1035
3127,937,1037
3128,936,1040
3129,941,1043
3130,942,1041
3131,942,1038
3132,935,1035
3133,936,1036
3134,936,1041
3135,939,1041
3136,943,1042
3137,941,1038
3138,939,1036
3139,939,1037
3140,938,1040
3141,941,1044
3142,944,1041
3143,943,1039
3144,940,1039
3145,938,1038
3146,939,1041
3147,943,1043
3148,943,1041
3149,941,1041
3150,937,1037
3151,934,1039
3152,938,1041
3153,939,1043
3154,939,1041
3155,939,1039
3156,935,1038
3157,935,1040
3158,936,1041
3159,938,1045
3160,941,1044
3161,938,1040
3162,935,1038
3163,934,1040
3164,936,1042
3165,940,1046
3166,942,1044
3167,936,1041
3168,931,1039
3169,935,1042
3170,937,1044
3171,941,1044
3172,939,1045
3173,940,1043
3174,937,1040
3175,932,1042
3176,937,1043
3177,939,1046
3178,940,1046
3179,939,1042
3180,936,1042
3181,935,1043
3182,934,1045
3183,935,1046
3184,939,1044
3185,935,1045
3186,935,1043
3187,933,1045
3188,933,1047
3189,938,1050
3190,935,1049
3191,935,1047
3192,933,1050
3193,935,1053
3194,939,1057
3195,943,1060
3196,944,1060
3197,945,1052
3198,943,1047
3199,943,1051
3200,943,1049
3201,947,1048
3202,948,1043
3203,952,1041
3204,949,1039
3205,947,1043
3206,948,1046
3207,950,1050
3208,948,1048
3209,950,1049
3210,947,1044
3211,941,1048
3212,942,1052
3213,943,1055
3214,942,1050
3215,937,1047
3216,932,1044
3217,932,1046
3218,932,1051
3219,936,1053
3220,936,1051
3221,933,1048
3222,932,1047
3223,932,1049
3224,933,1052
3225,937,1054
3226,938,1054
3227,937,1048
3228,932,1050
3229,933,1051
3230,932,1055
3231,937,1056
3232,939,1055
3233,939,1057
3234,934,1055
3235,936,1057
3236,938,1068
3237,942,1079
3238,940,1087
3239,935,1093
3240,925,1095
3241,917,1094
3242,912,1087
3243,916,1076
3244,927,1050
3245,961,1024
3246,1022,999
3247,1111,977
3248,1226,972
3249,1326,977
3250,1392,993
3251,1426,1009
3252,1420,1027
3253,1367,1040
3254,1258,1046
3255,1130,1046
3256,1002,1046
3257,874,1049
3258,870,1056
3259,890,1061
3260,900,1064
3261,906,1066
3262,901,1063
3263,901,1060
3264,902,1061
3265,909,1064
3266,920,1068
3267,931,1069
3268,936,1068
3269,940,1062
3270,936,1063
3271,933,1064
3272,937,1067
3273,941,1068
3274,939,1071
3275,939,1065
3276,937,1065
3277,935,1064
3278,939,1069
3279,940,1072
3280,943,1071
3281,941,1069
3282,939,1066
3283,940,1069
3284,941,1069
3285,945,1072
3286,942,1072
3287,943,1069
3288,943,1068
3289,940,1069
3290,942,1070
3291,947,1071
3292,946,1071
3293,944,1067
3294,942,1067
3295,942,1070
3296,943,1073
3297,949,1075
3298,950,1073
3299,947,1070
3300,948,1069
3301,945,1068
3302,948,1071
3303,951,1073
3304,952,1072
3305,949,1070
3306,947,1068
3307,947,1069
3308,948,1072
3309,954,1075
3310,955,1073
3311,954,1070
3312,954,1068
3313,955,1069
3314,958,1071
3315,959,1075
3316,961,1073
3317,960,1070
3318,959,1068
3319,959,1070
3320,963,1072
3321,965,1075
3322,965,1072
3323,968,1072
3324,967,1069
3325,969,1071
3326,970,1071
3327,976,1076
3328,978,1075
3329,978,1072
3330,977,1069
3331,975,1071
3332,981,1072
3333,989,1076
3334,991,1074
3335,993,1072
3336,991,1070
3337,994,1070
3338,1001,1072
3339,1005,1074
3340,1008,1073
3341,1011,1069
3342,1012,1068
3343,1013,1068
3344,1022,1070
3345,1031,1072
3346,1034,1074
3347,1038,1069
3348,1041,1068
3349,1047,1068
3350,1052,1071
3351,1061,1072
3352,1068,1072
3353,1075,1067
3354,1078,1065
3355,1080,1068
3356,1087,1069
3357,1097,1072
3358,1104,1070
3359,1109,1067
3360,1111,1065
3361,1116,1067
3362,1125,1068
3363,1130,1068
3364,1135,1068
3365,1139,1063
3366,1142,1065
3367,1146,1067
3368,1151,1069
3369,1153,1071
3370,1154,1072
3371,1148,1070
3372,1140,1068
3373,1137,1072
3374,1130,1075
3375,1122,1075
3376,1112,1074
3377,1098,1074
3378,1081,1073
3379,1067,1072
3380,1056,1076
3381,1045,1078
3382,1034,1079
3383,1017,1074
3384,1006,1076
3385,990,1074
3386,981,1077
3387,972,1081
3388,967,1081
3389,958,1078
3390,947,1075
3391,941,1078
3392,938,1079
3393,934,1080
3394,934,1078
3395,929,1075
3396,925,1074
3397,920,1076
3398,923,1080
3399,923,1080
3400,921,1080
3401,919,1076
3402,916,1074
3403,913,1077
3404,913,1080
3405,915,1081
3406,914,1079
3407,914,1079
3408,911,1075
3409,910,1075
3410,913,1079
3411,912,1080
3412,914,1080
3413,914,1076
3414,908,1076
3415,908,1076
3416,909,1081
3417,913,1083
3418,910,1080
3419,912,1076
3420,908,1077
3421,910,1081
3422,911,1080
3423,912,1084
3424,912,1082
3425,910,1082
3426,910,1077
3427,909,1078
3428,910,1082
3429,913,1083
3430,914,1083
3431,914,1079
3432,909,1079
3433,908,1080
3434,912,1081
3435,914,1084
3436,917,1083
3437,916,1080
3438,910,1080
3439,908,1080
3440,912,1081
3441,916,1084
3442,917,1084
3443,914,1079
3444,913,1080
3445,912,1079
3446,912,1084
3447,913,1085
3448,915,1083
3449,916,1080
3450,914,1078
3451,912,1079
3452,913,1081
3453,912,1084
3454,913,1082
3455,914,1080
3456,910,1080
3457,908,1080
3458,911,1081
3459,913,1085
3460,915,1083
3461,912,1077
3462,907,1076
3463,909,1080
3464,910,1082
3465,914,1083
3466,913,1081
3467,910,1080
3468,908,1078
3469,905,1078
3470,908,1081
3471,912,1085
3472,911,1081
3473,910,1080
3474,906,1079
3475,904,1078
3476,909,1079
3477,911,1081
3478,910,1082
3479,908,1080
3480,905,1077
3481,904,1079
3482,906,1080
3483,909,1082
3484,909,1080
3485,909,1077
3486,906,1075
3487,906,1078
3488,908,1079
3489,907,1083
3490,910,1079
3491,909,1080
3492,906,1076
3493,907,1079
3494,908,1080
3495,910,1083
3496,909,1080
3497,913,1080
3498,909,1076
3499,908,1078
3500,909,1080
3501,911,1082
3502,913,1080
3503,911,1080
3504,910,1077
3505,908,1077
3506,908,1081
3507,911,1082
3508,914,1079
3509,913,1076
3510,909,1076
3511,907,1075
3512,907,1079
3513,910,1082
3514,911,1080
3515,908,1077
3516,907,1076
3517,908,1075
3518,911,1081
3519,911,1080
3520,913,1079
3521,911,1078
3522,909,1077
3523,910,1078
3524,912,1080
3525,913,1080
3526,914,1079
3527,910,1075
3528,910,1075
3529,911,1078
3530,908,1080
3531,914,1082
3532,914,1080
3533,914,1078
3534,911,1076
3535,908,1077
3536,911,1080
3537,915,1083
3538,917,1081
3539,915,1077
3540,913,1077
3541,910,1080
3542,913,1079
3543,917,1083
3544,918,1081
3545,915,1078
3546,912,1075
3547,913,1076
3548,913,1078
3549,919,1078
3550,919,1078
3551,914,1079
3552,914,1075
3553,915,1075
3554,917,1080
3555,921,1081
3556,921,1078
3557,920,1077
3558,916,1074
3559,915,1077
3560,915,1078
3561,921,1078
3562,923,1078
3563,921,1077
3564,917,1072
3565,916,1075
3566,918,1078
3567,922,1081
3568,923,1078
3569,919,1077
3570,920,1075
3571,920,1075
3572,920,1078
3573,923,1082
3574,922,1081
3575,924,1078
3576,921,1074
3577,923,1075
3578,923,1078
3579,923,1083
3580,923,1077
3581,923,1077
3582,920,1076
3583,919,1076
3584,924,1078
3585,929,1083
3586,930,1083
3587,928,1082
3588,929,1084
3589,929,1082
3590,932,1086
3591,937,1086
3592,938,1083
3593,938,1081
3594,937,1077
3595,937,1078
3596,934,1075
3597,940,1075
3598,944,1073
3599,944,1069
3600,940,1069
3601,939,1071
3602,937,1075
3603,943,1077
3604,946,1075
3605,945,1074
3606,940,1073
3607,936,1075
3608,937,1076
3609,938,1078
3610,936,1077
3611,934,1073
3612,931,1072
3613,930,1073
3614,934,1076
3615,937,1080
3616,934,1076
3617,934,1074
3618,932,1071
3619,930,1073
3620,932,1073
3621,937,1077
3622,938,1077
3623,936,1074
3624,935,1073
3625,934,1075
3626,937,1078
3627,941,1079
3628,942,1080
3629,942,1079
3630,942,1083
3631,939,1092
3632,941,1104
3633,942,1115
3634,938,1119
3635,929,1115
3636,918,1111
3637,915,1105
3638,920,1092
3639,936,1076
3640,966,1050
3641,1021,1026
3642,1099,1002
3643,1205,985
3644,1308,987
3645,1389,1001
3646,1435,1020
3647,1446,1038
3648,1413,1051
3649,1324,1062
3650,1196,1064
3651,1068,1063
3652,940,1063
3653,883,1065
3654,893,1070
3655,908,1076
3656,913,1078
3657,914,1080
3658,911,1080
3659,911,1077
3660,915,1076
3661,923,1079
3662,932,1080
3663,946,1083
3664,951,1080
3665,953,1077
3666,951,1074
3667,950,1079
3668,954,1080
3669,954,1080
3670,960,1080
3671,959,1076
3672,956,1076
3673,956,1079
3674,956,1080
3675,961,1084
3676,961,1079
3677,961,1078
3678,960,1076
3679,957,1077
3680,960,1082
3681,964,1082
3682,965,1077
3683,963,1076
3684,962,1074
3685,960,1076
3686,962,1076
3687,967,1080
3688,970,1079
3689,967,1076
3690,967,1073
3691,966,1075
3692,965,1078
3693,970,1078
3694,970,1077
3695,971,1073
3696,968,1072
3697,965,1075
3698,971,1078
3699,974,1078
3700,978,1077
3701,975,1071
3702,973,1072
3703,974,1072
3704,975,1076
3705,977,1076
3706,979,1075
3707,979,1070
3708,977,1069
3709,981,1072
3710,983,1073
3711,985,1076
3712,985,1074
3713,987,1071
3714,985,1069
3715,985,1070
3716,989,1072
3717,992,1075
3718,995,1074
3719,994,1070
3720,993,1069
3721,993,1069
3722,996,1071
3723,1003,1071
3724,1005,1073
3725,1005,1071
3726,1003,1067
3727,1003,1070
3728,1008,1069
3729,1012,1072
3730,1015,1072
3731,1016,1068
3732,1018,1067
3733,1016,1067
3734,1022,1069
3735,1028,1070
3736,1032,1071
3737,1035,1070
3738,1032,1064
3739,1036,1065
3740,1042,1068
3741,1049,1071
3742,1054,1067
3743,1057,1064
3744,1059,1062
3745,1063,1065
3746,1068,1066
3747,1074,1068
3748,1081,1064
3749,1087,1062
3750,1089,1059
3751,1092,1060
3752,1103,1062
3753,1112,1063
3754,1119,1061
3755,1123,1060
3756,1127,1056
3757,1132,1061
3758,1140,1061
3759,1149,1064
3760,1158,1060
3761,1160,1059
3762,1164,1058
3763,1168,1055
3764,1170,1059
3765,1177,1062
3766,1186,1060
3767,1182,1056
3768,1184,1055
3769,1180,1056
3770,1182,1060
3771,1180,1064
3772,1173,1062
3773,1167,1063
3774,1156,1060
3775,1140,1063
3776,1133,1066
3777,1123,1067
3778,1110,1065
3779,1095,1062
3780,1083,1061
3781,1068,1063
3782,1057,1066
3783,1046,1068
3784,1036,1068
3785,1021,1063
3786,1007,1062
3787,1000,1062
3788,994,1066
3789,991,1066
3790,987,1066
3791,978,1063
3792,972,1062
3793,967,1063
3794,966,1066
3795,965,1067
3796,961,1068
3797,958,1064
3798,955,1060
3799,951,1059
3800,954,1062
3801,955,1064
3802,954,1063
3803,953,1062
3804,950,1059
3805,947,1061
3806,946,1063
3807,952,1065
3808,950,1065
3809,950,1061
3810,944,1060
3811,946,1063
3812,945,1064
3813,947,1067
3814,948,1066
3815,948,1064
3816,946,1059
3817,945,1060
3818,947,1065
3819,949,1065
3820,951,1066
3821,949,1059
3822,947,1061
3823,945,1059
3824,948,1064
3825,948,1067
3826,947,1062
3827,950,1060
3828,947,1058
3829,948,1061
3830,949,1066
3831,951,1066
3832,951,1063
3833,951,1060
3834,946,1059
3835,947,1058
3836,950,1060
3837,953,1064
3838,954,1064
3839,953,1059
3840,949,1058
3841,948,1059
3842,949,1061
3843,951,1064
3844,952,1062
3845,952,1060
3846,950,1060
3847,949,1061
3848,951,1062
3849,952,1063
3850,953,1060
3851,951,1056
3852,948,1056
3853,947,1058
3854,949,1059
3855,953,1060
3856,952,1061
3857,950,1059
3858,948,1057
3859,948,1057
3860,950,1059
3861,952,1059
3862,951,1059
3863,950,1055
3864,944,1055
3865,943,1056
3866,944,1058
3867,948,1061
3868,950,1060
3869,949,1056
3870,946,1055
3871,947,1052
3872,947,1057
3873,952,1059
3874,950,1060
3875,948,1056
3876,945,1053
3877,948,1055
3878,951,1059
3879,953,1059
3880,952,1058
3881,951,1056
3882,949,1055
3883,947,1055
3884,950,1057
3885,951,1059
3886,953,1056
3887,950,1052
3888,948,1052
3889,946,1054
3890,948,1057
3891,949,1058
3892,953,1058
3893,948,1055
3894,946,1052
3895,947,1054
3896,949,1054
3897,953,1058
3898,951,1055
3899,951,1053
3900,948,1049
3901,950,1051
3902,950,1054
3903,953,1057
3904,951,1056
3905,954,1052
3906,951,1050
3907,948,1052
3908,952,1053
3909,954,1053
3910,956,1054
3911,953,1050
3912,952,1048
3913,952,1049
3914,955,1054
3915,955,1054
3916,957,1052
3917,956,1050
3918,953,1050
3919,950,1049
3920,953,1051
3921,958,1052
3922,958,1050
3923,953,1047
3924,952,1049
3925,954,1050
3926,957,1053
3927,959,1053
3928,959,1050
3929,958,1050
3930,956,1047
3931,953,1049
3932,958,1050
3933,959,1052
3934,959,1053
3935,960,1048
3936,954,1047
3937,957,1048
3938,959,1051
3939,961,1052
3940,963,1051
3941,961,1047
3942,960,1047
3943,954,1048
3944,958,1050
3945,963,1051
3946,963,1050
3947,960,1049
3948,958,1047
3949,961,1048
3950,963,1050
3951,967,1052
3952,967,1056
3953,967,1055
3954,966,1056
3955,967,1056
3956,968,1058
3957,972,1059
3958,975,1056
3959,976,1051
3960,974,1046
3961,973,1047
3962,974,1049
3963,979,1049
3964,981,1047
3965,981,1041
3966,982,1036
3967,980,1038
3968,979,1045
3969,981,1048
3970,982,1048
3971,980,1047
3972,976,1042
3973,976,1046
3974,974,1048
3975,978,1051
3976,975,1051
3977,973,1047
3978,968,1043
3979,966,1043
3980,966,1045
3981,970,1047
3982,970,1047
3983,971,1044
3984,967,1044
3985,969,1044
3986,971,1044
3987,972,1051
3988,974,1048
3989,972,1048
3990,970,1045
3991,966,1043
3992,971,1046
3993,975,1047
3994,976,1051
3995,974,1047
3996,970,1045
3997,974,1048
3998,977,1050
3999,980,1058
4000,981,1067
4001,980,1068
4002,973,1074
4003,968,1082
4004,962,1087
4005,961,1086
4006,957,1082
4007,954,1071
4008,957,1055
4009,972,1036
4010,1010,1019
4011,1072,1000
4012,1160,982
4013,1253,970
4014,1337,971
4015,1399,980
4016,1439,1001
4017,1449,1019
4018,1411,1034
4019,1309,1037
4020,1181,1034
4021,1053,1038
4022,925,1040
4023,917,1044
4024,939,1046
4025,952,1049
4026,947,1045
4027,939,1048
4028,943,1047
4029,949,1049
4030,950,1051
4031,955,1047
4032,958,1048
4033,966,1052
4034,979,1052
4035,985,1052
4036,992,1050
4037,988,1048
4038,986,1047
4039,986,1050
4040,986,1053
4041,991,1052
4042,994,1051
4043,990,1049
4044,989,1044
4045,991,1045
4046,993,1049
4047,997,1048
4048,998,1049
4049,998,1048
4050,994,1048
4051,993,1047
4052,998,1047
4053,1001,1050
4054,1001,1048
4055,998,1046
4056,999,1047
4057,995,1045
4058,997,1048
4059,1002,1050
4060,1001,1049
4061,1003,1047
4062,1000,1044
4063,999,1046
4064,1002,1049
4065,1007,1050
4066,1007,1048
4067,1008,1047
4068,1002,1046
4069,1004,1044
4070,1006,1049
4071,1009,1048
4072,1009,1047
4073,1008,1045
4074,1006,1043
4075,1007,1043
4076,1012,1049
4077,1013,1049
4078,1016,1049
4079,1015,1046
4080,1013,1045
4081,1013,1042
4082,1016,1046
4083,1020,1049
4084,1019,1048
4085,1021,1043
4086,1020,1042
4087,1018,1043
4088,1021,1046
4089,1023,1048
4090,1027,1045
4091,1027,1043
4092,1027,1042
4093,1027,1043
4094,1027,1046
4095,1035,1049
4096,1038,1046
4097,1037,1043
4098,1037,1041
4099,1037,1045
4100,1042,1045
4101,1045,1047
4102,1052,1047
4103,1048,1042
4104,1051,1040
4105,1048,1042
4106,1055,1043
4107,1057,1047
4108,1062,1044
4109,1064,1043
4110,1063,1040
4111,1064,1040
4112,1074,1044
4113,1077,1045
4114,1083,1043
4115,1084,1041
4116,1089,1038
4117,1093,1040
4118,1101,1042
4119,1107,1041
4120,1112,1041
4121,1120,1039
4122,1121,1038
4123,1124,1037
4124,1132,1039
4125,1140,1040
4126,1147,1039
4127,1152,1036
4128,1154,1036
4129,1158,1034
4130,1165,1038
4131,1171,1037
4132,1178,1037
4133,1180,1033
4134,1183,1030
4135,1185,1031
4136,1191,1033
4137,1199,1036
4138,1207,1034
4139,1209,1035
4140,1208,1031
4141,1206,1033
4142,1209,1038
4143,1210,1042
4144,1204,1040
4145,1195,1042
4146,1190,1041
4147,1178,1041
4148,1171,1044
4149,1164,1048
4150,1154,1046
4151,1141,1045
4152,1125,1044
4153,1112,1044
4154,1103,1047
4155,1092,1048
4156,1078,1051
4157,1064,1048
4158,1051,1048
4159,1039,1048
4160,1031,1050
4161,1025,1053
4162,1020,1052
4163,1011,1048
4164,1002,1044
4165,996,1047
4166,994,1050
4167,992,1050
4168,988,1052
4169,982,1049
4170,977,1047
4171,976,1048
4172,975,1050
4173,977,1055
4174,976,1053
4175,974,1051
4176,968,1052
4177,969,1049
4178,970,1052
4179,972,1055
4180,971,1057
4181,968,1052
4182,965,1051
4183,965,1051
4184,967,1056
4185,968,1057
4186,967,1055
4187,967,1053
4188,963,1052
4189,963,1054
4190,963,1054
4191,966,1058
4192,967,1055
4193,965,1053
4194,963,1053
4195,961,1055
4196,964,1054
4197,967,1057
4198,970,1056
4199,966,1056
4200,965,1053
4201,964,1056
4202,963,1057
4203,967,1059
4204,969,1056
4205,969,1055
4206,966,1053
4207,966,1053
4208,966,1059
4209,969,1058
4210,970,1059
4211,967,1058
4212,963,1055
4213,966,1055
4214,968,1059
4215,970,1063
4216,967,1061
4217,968,1058
4218,964,1056
4219,965,1058
4220,966,1062
4221,970,1062
4222,969,1060
4223,967,1060
4224,963,1061
4225,963,1062
4226,964,1064
4227,968,1065
4228,968,1065
4229,965,1062
4230,960,1062
4231,959,1062
4232,962,1062
4233,964,1066
4234,965,1067
4235,963,1062
4236,962,1061
4237,960,1063
4238,959,1066
4239,960,1070
4240,961,1066
4241,961,1066
4242,960,1063
4243,955,1063
4244,960,1067
4245,961,1070
4246,961,1068
4247,959,1065
4248,957,1065
4249,956,1065
4250,958,1067
4251,962,1069
4252,957,1069
4253,957,1068
4254,954,1065
4255,953,1068
4256,957,1067
4257,957,1073
4258,960,1072
4259,958,1068
4260,955,1067
4261,954,1067
4262,955,1070
4263,957,1073
4264,958,1075
4265,956,1071
4266,954,1068
4267,956,1068
4268,953,1074
4269,958,1076
4270,958,1076
4271,956,1073
4272,954,1072
4273,952,1072
4274,956,1077
4275,956,1077
4276,956,1077
4277,957,1073
4278,952,1072
4279,952,1074
4280,953,1077
4281,957,1083
4282,959,1083
4283,956,1081
4284,954,1082
4285,956,1085
4286,963,1089
4287,966,1093
4288,970,1089
4289,968,1083
4290,966,1080
4291,966,1079
4292,967,1079
4293,972,1078
4294,976,1076
4295,976,1074
4296,976,1074
4297,978,1076
4298,979,1080
4299,982,1082
4300,982,1078
4301,976,1078
4302,966,1075
4303,966,1082
4304,967,1081
4305,968,1086
4306,971,1083
4307,969,1082
4308,964,1078
4309,960,1078
4310,960,1079
4311,960,1082
4312,960,1082
4313,953,1079
4314,952,1080
4315,956,1081
4316,956,1083
4317,958,1087
4318,956,1085
4319,957,1083
4320,955,1081
4321,955,1082
4322,957,1085
4323,960,1087
4324,958,1087
4325,958,1085
4326,956,1082
4327,955,1084
4328,957,1089
4329,960,1091
4330,962,1089
4331,961,1090
4332,958,1089
4333,959,1094
4334,963,1101
4335,964,1107
4336,963,1114
4337,960,1121
4338,954,1122
4339,945,1127
4340,939,1128
4341,936,1125
4342,938,1114
4343,946,1097
4344,965,1077
4345,1009,1059
4346,1075,1039
4347,1166,1026
4348,1256,1016
4349,1334,1016
4350,1390,1022
4351,1428,1040
4352,1440,1058
4353,1419,1078
4354,1339,1086
4355,1211,1085
4356,1083,1081
4357,955,1083
4358,892,1092
4359,905,1098
4360,924,1103
4361,926,1101
4362,917,1098
4363,918,1099
4364,922,1101
4365,928,1103
4366,930,1103
4367,934,1100
4368,943,1101
4369,952,1102
4370,959,1105
4371,966,1109
4372,964,1107
4373,964,1104
4374,962,1101
4375,958,1102
4376,963,1105
4377,966,1106
4378,965,1104
4379,966,1104
4380,964,1103
4381,967,1102
4382,967,1105
4383,970,1110
4384,971,1107
4385,967,1101
4386,965,1102
4387,967,1103
4388,970,1108
4389,969,1108
4390,971,1109
4391,971,1105
4392,967,1104
4393,967,1106
4394,972,1107
4395,975,1108
4396,978,1108
4397,976,1104
4398,971,1104
4399,974,1105
4400,972,1109
4401,977,1109
4402,977,1110
4403,979,1107
4404,975,1105
4405,974,1107
4406,977,1109
4407,980,1111
4408,981,1108
4409,983,1107
4410,982,1106
4411,980,1106
4412,983,1109
4413,986,1110
4414,988,1111
4415,990,1108
4416,984,1107
4417,987,1110
4418,987,1109
4419,992,1111
4420,994,1111
4421,994,1108
4422,993,1106
4423,993,1108
4424,996,1111
4425,1001,1111
4426,1004,1111
4427,1001,1107
4428,1000,1107
4429,1000,1107
4430,1001,1110
4431,1007,1112
4432,1011,1113
4433,1011,1110
4434,1011,1108
4435,1012,1109
4436,1015,1111
4437,1020,1110
4438,1024,1112
4439,1023,1109
4440,1026,1107
4441,1027,1110
4442,1031,1112
4443,1034,1114
4444,1038,1111
4445,1040,1109
4446,1042,1107
4447,1046,1106
4448,1051,1107
4449,1057,1113
4450,1062,1110
4451,1066,1108
4452,1066,1108
4453,1073,1108
4454,1078,1110
4455,1086,1109
4456,1092,1108
4457,1100,1107
4458,1101,1104
4459,1105,1105
4460,1111,1110
4461,1118,1113
4462,1130,1108
4463,1136,1104
4464,1138,1102
4465,1145,1103
4466,1153,1107
4467,1160,1111
4468,1167,1108
4469,1171,1104
4470,1171,1103
4471,1175,1103
4472,1184,1106
4473,1189,1108
4474,1196,1109
4475,1193,1105
4476,1193,1107
4477,1190,1108
4478,1187,1112
4479,1186,1115
4480,1180,1115
4481,1168,1113
4482,1155,1110
4483,1143,1115
4484,1129,1116
4485,1119,1122
4486,1105,1118
4487,1090,1118
4488,1073,1117
4489,1057,1118
4490,1046,1121
4491,1036,1122
4492,1027,1122
4493,1015,1120
4494,1005,1117
4495,996,1119
4496,987,1121
4497,986,1122
4498,980,1122
4499,974,1118
4500,966,1113
4501,961,1114
4502,961,1121
4503,960,1122
4504,959,1120
4505,957,1114
4506,949,1113
4507,950,1116
4508,950,1117
4509,949,1120
4510,950,1119
4511,949,1116
4512,945,1114
4513,945,1114
4514,946,1120
4515,945,1121
4516,946,1121
4517,947,1116
4518,944,1115
4519,942,1113
4520,944,1117
4521,947,1120
4522,949,1118
4523,947,1117
4524,946,1116
4525,943,1119
4526,944,1118
4527,949,1119
4528,948,1121
4529,945,1116
4530,947,1116
4531,946,1117
4532,947,1118
4533,948,1120
4534,950,1121
4535,948,1118
4536,947,1118
4537,946,1117
4538,949,1120
4539,950,1123
4540,952,1120
4541,946,1116
4542,946,1116
4543,945,1119
4544,949,1120
4545,951,1122
4546,952,1119
4547,950,1119
4548,948,1117
4549,950,1115
4550,949,1118
4551,952,1121
4552,953,1119
4553,950,1115
4554,949,1117
4555,947,1115
4556,947,1116
4557,953,1120
4558,951,1121
4559,948,1119
4560,943,1113
4561,946,1117
4562,946,1120
4563,949,1123
4564,947,1121
4565,946,1114
4566,943,1114
4567,946,1114
4568,946,1121
4569,945,1119
4570,948,1118
4571,946,1113
4572,943,1114
4573,943,1113
4574,945,1118
4575,947,1120
4576,947,1117
4577,947,1117
4578,943,1112
4579,940,1115
4580,941,1116
4581,947,1120
4582,949,1117
4583,946,1115
4584,942,1113
4585,937,1111
4586,941,1115
4587,942,1116
4588,947,1114
4589,946,1111
4590,942,1111
4591,942,1111
4592,944,1114
4593,946,1115
4594,945,1114
4595,941,1111
4596,938,1111
4597,939,1110
4598,940,1113
4599,944,1113
4600,945,1113
4601,943,1113
4602,940,1109
4603,941,1110
4604,939,1111
4605,944,1115
4606,944,1114
4607,944,1109
4608,942,1107
4609,939,1110
4610,945,1110
4611,943,1112
4612,947,1113
4613,946,1108
4614,944,1107
4615,941,1106
4616,945,1109
4617,946,1111
4618,947,1110
4619,945,1109
4620,940,1105
4621,940,1107
4622,943,1109
4623,943,1112
4624,944,1111
4625,942,1107
4626,942,1103
4627,946,1105
4628,945,1110
4629,946,1112
4630,947,1110
4631,944,1108
4632,945,1107
4633,945,1111
4634,947,1114
4635,953,1118
4636,956,1119
4637,956,1116
4638,957,1115
4639,958,1112
4640,958,1112
4641,959,1113
4642,960,1111
4643,963,1105
4644,962,1102
4645,966,1103
4646,965,1106
4647,970,1106
4648,974,1105
4649,971,1103
4650,967,1100
4651,967,1099
4652,967,1104
4653,966,1106
4654,965,1103
4655,961,1101
4656,957,1099
4657,957,1098
4658,952,1100
4659,954,1104
4660,953,1101
4661,952,1098
4662,946,1097
4663,943,1098
4664,948,1101
4665,950,1102
4666,949,1101
4667,946,1099
4668,944,1099
4669,947,1100
4670,950,1101
4671,951,1101
4672,951,1101
4673,950,1101
4674,948,1097
4675,949,1100
4676,952,1101
4677,954,1104
4678,954,1100
4679,950,1098
4680,952,1097
4681,954,1100
4682,956,1103
4683,961,1111
4684,961,1119
4685,959,1123
4686,954,1129
4687,948,1134
4688,946,1140
4689,942,1141
4690,939,1135
4691,938,1121
4692,943,1102
4693,965,1081
4694,1012,1061
4695,1086,1039
4696,1189,1016
4697,1291,1008
4698,1374,1017
4699,1428,1037
4700,1450,1063
4701,1422,1083
4702,1326,1089
4703,1198,1087
4704,1070,1083
4705,942,1089
4706,888,1094
4707,916,1102
4708,930,1102
4709,928,1100
4710,922,1095
4711,922,1098
4712,928,1100
4713,939,1104
4714,946,1103
4715,954,1099
4716,960,1098
4717,967,1097
4718,967,1101
4719,970,1103
4720,969,1101
4721,971,1099
4722,967,1097
4723,967,1097
4724,965,1100
4725,972,1101
4726,974,1101
4727,972,1097
4728,970,1094
4729,972,1097
4730,972,1097
4731,976,1098
4732,976,1098
4733,975,1096
4734,976,1094
4735,975,1094
4736,977,1097
4737,979,1101
4738,979,1097
4739,975,1095
4740,976,1091
4741,977,1094
4742,976,1093
4743,979,1095
4744,982,1094
4745,981,1093
4746,980,1090
4747,978,1092
4748,980,1092
4749,983,1094
4750,986,1093
4751,985,1090
4752,983,1089
4753,981,1088
4754,986,1093
4755,988,1093
4756,991,1095
4757,987,1089
4758,988,1087
4759,988,1087
4760,990,1090
4761,992,1091
4762,996,1090
4763,993,1088
4764,993,1085
4765,992,1086
4766,996,1090
4767,1000,1091
4768,1002,1087
4769,1002,1085
4770,998,1082
4771,998,1084
4772,1003,1087
4773,1008,1087
4774,1009,1085
4775,1008,1086
4776,1009,1083
4777,1009,1083
4778,1014,1085
4779,1019,1085
4780,1021,1083
4781,1022,1080
4782,1022,1078
4783,1025,1080
4784,1029,1080
4785,1034,1082
4786,1037,1081
4787,1038,1078
4788,1039,1078
4789,1040,1078
4790,1045,1080
4791,1050,1082
4792,1052,1080
4793,1057,1075
4794,1059,1074
4795,1060,1076
4796,1067,1076
4797,1074,1078
4798,1079,1076
4799,1084,1074
4800,1086,1071
4801,1089,1071
4802,1098,1075
4803,1106,1075
4804,1113,1072
4805,1118,1073
4806,1120,1071
4807,1127,1070
4808,1131,1072
4809,1139,1071
4810,1149,1074
4811,1151,1070
4812,1152,1066
4813,1158,1067
4814,1164,1069
4815,1170,1069
4816,1177,1069
4817,1182,1066
4818,1179,1064
4819,1185,1065
4820,1189,1069
4821,1193,1070
4822,1194,1070
4823,1190,1069
4824,1184,1066
4825,1178,1070
4826,1175,1072
4827,1168,1074
4828,1161,1073
4829,1148,1070
4830,1135,1071
4831,1123,1074
4832,1109,1074
4833,1101,1079
4834,1088,1074
4835,1073,1072
4836,1058,1069
4837,1048,1072
4838,1034,1074
4839,1031,1077
4840,1021,1076
4841,1011,1073
4842,1001,1071
4843,995,1071
4844,990,1073
4845,989,1075
4846,982,1072
4847,977,1071
4848,971,1068
4849,969,1071
4850,965,1072
4851,966,1074
4852,965,1072
4853,961,1070
4854,959,1066
4855,955,1067
4856,957,1068
4857,958,1073
4858,958,1074
4859,956,1067
4860,952,1064
4861,952,1066
4862,952,1069
4863,955,1071
4864,954,1072
4865,953,1067
4866,951,1064
4867,947,1065
4868,949,1068
4869,956,1070
4870,954,1070
4871,953,1067
4872,953,1062
4873,949,1065
4874,954,1067
4875,954,1069
4876,956,1068
4877,954,1065
4878,954,1064
4879,950,1064
4880,956,1067
4881,957,1068
4882,957,1067
4883,958,1066
4884,954,1063
4885,956,1066
4886,956,1065
4887,958,1069
4888,959,1065
4889,956,1064
4890,952,1062
4891,953,1064
4892,953,1068
4893,958,1068
4894,958,1065
4895,956,1064
4896,954,1063
4897,953,1065
4898,957,1065
4899,959,1068
4900,960,1065
4901,956,1063
4902,952,1063
4903,954,1064
4904,957,1064
4905,959,1064
4906,959,1064
4907,957,1061
4908,955,1059
4909,954,1061
4910,956,1062
4911,956,1062
4912,958,1060
4913,954,1060
4914,951,1057
4915,951,1060
4916,952,1063
4917,953,1064
4918,954,1061
4919,952,1059
4920,952,1058
4921,950,1059
4922,951,1062
4923,951,1064
4924,951,1060
4925,952,1058
4926,952,1054
4927,950,1056
4928,950,1060
4929,953,1063
4930,949,1059
4931,949,1056
4932,948,1054
4933,946,1054
4934,949,1059
4935,952,1058
4936,954,1059
4937,951,1054
4938,950,1053
4939,947,1054
4940,948,1055
4941,953,1058
4942,951,1056
4943,951,1053
4944,949,1050
4945,945,1054
4946,947,1056
4947,948,1055
4948,952,1055
4949,951,1054
4950,949,1051
4951,947,1052
4952,945,1054
4953,947,1054
4954,952,1055
4955,948,1051
4956,946,1048
4957,947,1050
4958,949,1053
4959,950,1056
4960,949,1055
4961,946,1051
4962,947,1046
4963,946,1049
4964,948,1051
4965,951,1052
4966,953,1053
4967,948,1050
4968,948,1047
4969,946,1048
4970,949,1049
4971,950,1052
4972,952,1048
4973,949,1047
4974,950,1044
4975,948,1050
4976,949,1049
4977,951,1052
4978,952,1048
4979,949,1047
4980,947,1044
4981,946,1046
4982,949,1049
4983,952,1050
4984,952,1049
4985,952,1045
4986,950,1043
4987,948,1043
4988,949,1047
4989,951,1048
4990,952,1048
4991,951,1044
4992,950,1044
4993,948,1043
4994,950,1047
4995,952,1046
4996,956,1047
4997,952,1044
4998,946,1041
4999,946,1043
5000,950,1046
5001,950,1047
5002,952,1045
5003,951,1043
5004,948,1042
5005,950,1042
5006,952,1045
5007,953,1046
5008,954,1045
5009,950,1044
5010,946,1040
5011,947,1043
5012,949,1044
5013,954,1045
5014,955,1045
5015,954,1041
5016,952,1041
5017,951,1040
5018,954,1043
5019,956,1046
5020,957,1045
5021,957,1043
5022,953,1040
5023,951,1045
5024,957,1046
5025,959,1050
5026,962,1050
5027,961,1049
5028,959,1044
5029,962,1045
5030,966,1044
5031,972,1045
5032,970,1042
5033,967,1039
5034,966,1034
5035,968,1034
5036,973,1034
5037,976,1037
5038,974,1036
5039,969,1034
5040,967,1031
5041,966,1035
5042,967,1037
5043,973,1039
5044,970,1037
5045,969,1035
5046,961,1034
5047,960,1035
5048,959,1039
5049,963,1038
5050,960,1037
5051,958,1034
5052,956,1033
5053,956,1030
5054,956,1035
5055,959,1038
5056,961,1035
5057,959,1036
5058,958,1032
5059,956,1034
5060,959,1036
5061,960,1037
5062,962,1037
5063,962,1034
5064,958,1031
5065,958,1032
5066,960,1035
5067,965,1038
5068,965,1038
5069,965,1036
5070,964,1041
5071,965,1049
5072,966,1063
5073,964,1071
5074,955,1077
5075,949,1073
5076,942,1064
5077,942,1048
5078,953,1033
5079,986,1005
5080,1054,973
5081,1151,946
5082,1261,934
5083,1357,944
5084,1425,964
5085,1452,990
5086,1423,1012
5087,1331,1018
5088,1203,1015
5089,1075,1013
5090,947,1023
5091,899,1029
5092,928,1035
5093,941,1032
5094,935,1030
5095,930,1029
5096,932,1032
5097,939,1034
5098,947,1034
5099,955,1036
5100,960,1032
5101,968,1033
5102,974,1034
5103,976,1040
5104,975,1036
5105,974,1032
5106,968,1030
5107,971,1030
5108,973,1034
5109,975,1037
5110,979,1034
5111,977,1030
5112,976,1029
5113,976,1031
5114,979,1034
5115,980,1033
5116,982,1033
5117,979,1031
5118,978,1028
5119,977,1030
5120,981,1033
5121,981,1033
5122,984,1030
5123,984,1029
5124,981,1026
5125,981,1028
5126,982,1031
5127,983,1033
5128,987,1033
5129,984,1029
5130,983,1027
5131,982,1027
5132,985,1029
5133,986,1032
5134,990,1031
5135,988,1027
5136,988,1026
5137,985,1025
5138,989,1030
5139,994,1030
5140,995,1029
5141,992,1026
5142,990,1024
5143,990,1027
5144,994,1028
5145,996,1031
5146,999,1027
5147,998,1025
5148,995,1024
5149,996,1025
5150,999,1028
5151,1002,1031
5152,1003,1027
5153,1004,1024
5154,1000,1022
5155,1003,1024
5156,1005,1024
5157,1009,1028
5158,1008,1027
5159,1011,1025
5160,1011,1022
5161,1010,1023
5162,1014,1027
5163,1020,1026
5164,1020,1026
5165,1021,1021
5166,1021,1023
5167,1022,1021
5168,1026,1024
5169,1029,1025
5170,1033,1022
5171,1032,1020
5172,1033,1017
5173,1035,1019
5174,1041,1020
5175,1048,1023
5176,1050,1022
5177,1051,1018
5178,1048,1015
5179,1052,1018
5180,1061,1020
5181,1068,1021
5182,1071,1018
5183,1074,1015
5184,1077,1015
5185,1084,1014
5186,1091,1017
5187,1099,1020
5188,1105,1016
5189,1109,1014
5190,1113,1013
5191,1115,1012
5192,1126,1015
5193,1133,1018
5194,1140,1014
5195,1145,1011
5196,1147,1010
5197,1154,1011
5198,1162,1012
5199,1168,1011
5200,1174,1011
5201,1175,1009
5202,1176,1008
5203,1181,1008
5204,1184,1010
5205,1191,1012
5206,1194,1011
5207,1192,1010
5208,1185,1008
5209,1183,1013
5210,1174,1014
5211,1176,1017
5212,1168,1016
5213,1157,1015
5214,1140,1015
5215,1131,1016
5216,1120,1018
5217,1108,1021
5218,1095,1021
5219,1081,1018
5220,1061,1017
5221,1049,1017
5222,1039,1018
5223,1030,1019
5224,1020,1019
5225,1007,1017
5226,997,1013
5227,991,1017
5228,988,1016
5229,985,1019
5230,983,1018
5231,975,1015
5232,969,1014
5233,966,1016
5234,963,1019
5235,966,1019
5236,967,1017
5237,964,1017
5238,959,1012
5239,957,1012
5240,957,1016
5241,957,1016
5242,960,1016
5243,956,1014
5244,954,1012
5245,953,1013
5246,956,1016
5247,955,1018
5248,957,1016
5249,952,1012
5250,952,1013
5251,952,1010
5252,953,1015
5253,955,1021
5254,953,1019
5255,954,1016
5256,951,1012
5257,950,1012
5258,951,1015
5259,958,1018
5260,956,1015
5261,953,1014
5262,951,1010
5263,952,1011
5264,950,1016
5265,953,1018
5266,951,1018
5267,953,1015
5268,952,1011
5269,952,1013
5270,952,1015
5271,955,1016
5272,956,1016
5273,952,1011
5274,951,1013
5275,949,1014
5276,952,1015
5277,955,1017
5278,957,1016
5279,954,1014
5280,950,1012
5281,949,1012
5282,954,1014
5283,952,1016
5284,955,1014
5285,953,1016
5286,948,1010
5287,949,1013
5288,953,1013
5289,952,1014
5290,956,1013
5291,952,1011
5292,950,1009
5293,948,1010
5294,950,1012
5295,954,1012
5296,952,1009
5297,950,1008
5298,945,1007
5299,943,1010
5300,949,1010
5301,952,1013
5302,954,1009
5303,950,1008
5304,948,1007
5305,946,1010
5306,949,1011
5307,952,1011
5308,951,1010
5309,949,1006
5310,948,1009
5311,944,1006
5312,949,1010
5313,949,1011
5314,950,1009
5315,946,1006
5316,943,1006
5317,942,1008
5318,944,1010
5319,948,1013
5320,951,1010
5321,947,1006
5322,947,1002
5323,944,1006
5324,945,1009
5325,948,1011
5326,948,1009
5327,947,1007
5328,940,1002
5329,942,1003
5330,944,1007
5331,947,1008
5332,947,1009
5333,945,1004
5334,945,1004
5335,942,1006
5336,946,1010
5337,947,1010
5338,949,1009
5339,947,1006
5340,944,1004
5341,943,1006
5342,946,1008
5343,946,1012
5344,947,1011
5345,946,1005
5346,942,1004
5347,940,1007
5348,943,1007
5349,946,1009
5350,945,1009
5351,942,1005
5352,941,1004
5353,943,1005
5354,942,1007
5355,946,1007
5356,946,1006
5357,944,1005
5358,942,1003
5359,940,1005
5360,941,1007
5361,946,1007
5362,949,1007
5363,948,1006
5364,945,1003
5365,947,1003
5366,948,1004
5367,950,1007
5368,949,1008
5369,949,1004
5370,944,1002
5371,944,1002
5372,946,1003
5373,949,1005
5374,947,1004
5375,946,1003
5376,944,1003
5377,945,1004
5378,947,1009
5379,947,1009
5380,949,1007
5381,946,1004
5382,940,1003
5383,945,1003
5384,945,1003
5385,950,1005
5386,949,1007
5387,949,1006
5388,944,1003
5389,945,1006
5390,947,1009
5391,952,1015
5392,952,1011
5393,953,1011
5394,953,1009
5395,951,1011
5396,959,1010
5397,960,1012
5398,962,1010
5399,963,1007
5400,959,1003
5401,960,1004
5402,962,1003
5403,968,1001
5404,967,1001
5405,966,997
5406,961,999
5407,961,1000
5408,962,1002
5409,965,1004
5410,967,1002
5411,963,998
5412,957,999
5413,956,1002
5414,957,1002
5415,956,1006
5416,955,1004
5417,953,999
5418,952,999
5419,949,1000
5420,950,1001
5421,953,1004
5422,956,1002
5423,953,1003
5424,950,1000
5425,949,1001
5426,949,1003
5427,953,1005
5428,956,1004
5429,953,1003
5430,950,1002
5431,946,1002
5432,952,1003
5433,953,1008
5434,957,1006
5435,957,1007
5436,956,1006
5437,957,1014
5438,959,1023
5439,961,1031
5440,957,1039
5441,948,1042
5442,937,1039
5443,932,1034
5444,932,1027
5445,942,1018
5446,962,996
5447,999,970
5448,1062,949
5449,1155,928
5450,1259,924
5451,1348,931
5452,1408,945
5453,1429,963
5454,1413,979
5455,1348,993
5456,1226,997
5457,1098,999
5458,970,999
5459,892,998
5460,897,998
5461,917,1003
5462,925,1005
5463,925,1010
5464,923,1007
5465,919,1005
5466,922,1001
5467,925,1005
5468,934,1007
5469,946,1012
5470,959,1009
5471,964,1005
5472,964,1003
5473,963,1004
5474,963,1006
5475,966,1009
5476,967,1009
5477,967,1004
5478,966,1002
5479,964,1008
5480,966,1006
5481,971,1011
5482,972,1006
5483,970,1006
5484,972,1004
5485,970,1006
5486,972,1009
5487,974,1009
5488,978,1007
5489,978,1002
5490,976,1001
5491,974,1003
5492,976,1006
5493,982,1007
5494,982,1007
5495,981,1004
5496,979,1002
5497,978,1006
5498,981,1006
5499,982,1009
5500,981,1006
5501,979,1001
5502,982,1000
5503,982,1004
5504,986,1004
5505,987,1006
5506,986,1005
5507,986,1002
5508,987,998
5509,985,1000
5510,989,1004
5511,992,1007
5512,991,1004
5513,991,1004
5514,992,1000
5515,993,1000
5516,995,1003
5517,997,1007
5518,997,1002
5519,999,1000
5520,1000,1000
5521,998,1000
5522,1003,1004
5523,1005,1004
5524,1007,1002
5525,1009,999
5526,1008,998
5527,1008,1001
5528,1012,1002
5529,1017,1003
5530,1021,1000
5531,1020,998
5532,1021,997
5533,1024,997
5534,1029,1001
5535,1032,1004
5536,1038,1001
5537,1037,997
5538,1039,995
5539,1043,998
5540,1050,1001
5541,1054,1002
5542,1060,997
5543,1063,995
5544,1063,993
5545,1068,993
5546,1077,998
5547,1086,998
5548,1090,994
5549,1097,992
5550,1099,989
5551,1104,993
5552,1110,995
5553,1119,996
5554,1128,993
5555,1133,990
5556,1135,989
5557,1140,987
5558,1147,992
5559,1155,993
5560,1161,991
5561,1166,987
5562,1168,985
5563,1173,987
5564,1177,989
5565,1184,992
5566,1186,991
5567,1184,991
5568,1182,991
5569,1178,995
5570,1175,997
5571,1170,1001
5572,1162,999
5573,1151,997
5574,1133,997
5575,1123,1000
5576,1110,1002
5577,1099,1006
5578,1083,1003
5579,1066,1001
5580,1053,1001
5581,1038,1002
5582,1024,1005
5583,1017,1007
5584,1008,1005
5585,998,1002
5586,988,1001
5587,978,1001
5588,976,1003
5589,975,1007
5590,974,1006
5591,967,1004
5592,963,1001
5593,959,1002
5594,960,1003
5595,960,1005
5596,960,1004
5597,952,1003
5598,948,1001
5599,950,1004
5600,948,1007
5601,950,1007
5602,952,1005
5603,950,1002
5604,948,1000
5605,946,1003
5606,948,1005
5607,951,1006
5608,952,1006
5609,949,1003
5610,949,1000
5611,945,1001
5612,946,1005
5613,949,1006
5614,949,1006
5615,948,1003
5616,946,999
5617,946,1004
5618,945,1004
5619,953,1006
5620,953,1005
5621,952,1004
5622,948,1003
5623,948,1003
5624,952,1006
5625,954,1007
5626,957,1005
5627,953,1001
5628,952,1002
5629,950,1005
5630,954,1008
5631,955,1005
5632,956,1005
5633,954,1003
5634,952,999
5635,950,1001
5636,953,1005
5637,956,1006
5638,957,1004
5639,956,1004
5640,952,1003
5641,950,1002
5642,948,1005
5643,952,1008
5644,955,1006
5645,953,1004
5646,948,1001
5647,949,1003
5648,949,1004
5649,951,1009
5650,952,1007
5651,950,1005
5652,946,1002
5653,945,1001
5654,947,1003
5655,951,1004
5656,952,1003
5657,948,1002
5658,946,999
5659,946,1002
5660,946,1006
5661,951,1008
5662,952,1005
5663,951,1001
5664,949,1001
5665,946,1001
5666,949,1002
5667,950,1006
5668,951,1004
5669,947,1002
5670,945,1000
5671,944,999
5672,947,1001
5673,949,1005
5674,947,1004
5675,949,1001
5676,945,1000
5677,946,1001
5678,945,1005
5679,948,1006
5680,949,1003
5681,942,1000
5682,943,998
5683,944,999
5684,947,1001
5685,949,1004
5686,948,1004
5687,946,1002
5688,944,999
5689,944,1002
5690,946,1002
5691,949,1004
5692,947,1004
5693,947,1000
5694,944,999
5695,945,1001
5696,946,1003
5697,950,1004
5698,950,1001
5699,947,997
5700,943,998
5701,944,999
5702,948,1001
5703,949,1005
5704,948,1004
5705,950,1002
5706,943,999
5707,942,1000
5708,946,1004
5709,951,1007
5710,953,1008
5711,953,1010
5712,951,1009
5713,952,1013
5714,956,1014
5715,962,1014
5716,964,1008
5717,961,1002
5718,959,1002
5719,960,1001
5720,963,1000
5721,967,1002
5722,970,1000
5723,970,999
5724,969,996
5725,966,999
5726,969,1000
5727,966,1004
5728,966,1001
5729,960,1000
5730,956,999
5731,957,1000
5732,957,1003
5733,958,1004
5734,956,1000
5735,952,998
5736,947,995
5737,948,997
5738,944,1000
5739,948,1002
5740,946,1001
5741,946,998
5742,947,999
5743,942,998
5744,945,1001
5745,951,1003
5746,951,1001
5747,950,999
5748,948,997
5749,947,997
5750,949,1001
5751,951,1002
5752,953,1001
5753,951,998
5754,948,997
5755,952,1000
5756,953,1005
5757,957,1009
5758,956,1016
5759,959,1020
5760,952,1027
5761,945,1036
5762,941,1043
5763,937,1044
5764,932,1037
5765,932,1026
5766,934,1009
5767,953,992
5768,996,973
5769,1067,954
5770,1167,930
5771,1267,920
5772,1352,924
5773,1406,942
5774,1431,963
5775,1408,983
5776,1316,994
5777,1188,990
5778,1060,987
5779,932,992
5780,884,1002
5781,913,1008
5782,930,1009
5783,927,1007
5784,918,1004
5785,917,1005
5786,922,1006
5787,931,1009
5788,941,1010
5789,949,1008
5790,955,1004
5791,960,1006
5792,963,1009
5793,964,1008
5794,965,1008
5795,965,1005
5796,962,1004
5797,961,1004
5798,961,1008
5799,968,1009
5800,970,1005
5801,968,1006
5802,964,1003
5803,965,1006
5804,966,1007
5805,971,1007
5806,972,1006
5807,970,1006
5808,967,1005
5809,967,1004
5810,969,1007
5811,974,1013
5812,975,1009
5813,975,1007
5814,973,1004
5815,973,1004
5816,971,1007
5817,977,1010
5818,979,1009
5819,975,1006
5820,977,1006
5821,977,1008
5822,978,1007
5823,980,1009
5824,985,1009
5825,984,1006
5826,983,1005
5827,980,1004
5828,982,1010
5829,984,1009
5830,986,1007
5831,986,1004
5832,983,1003
5833,986,1008
5834,986,1007
5835,990,1008
5836,993,1007
5837,993,1003
5838,990,1003
5839,991,1004
5840,993,1005
5841,998,1010
5842,1000,1009
5843,1002,1006
5844,995,1003
5845,999,1005
5846,1005,1005
5847,1008,1007
5848,1010,1008
5849,1010,1004
5850,1009,1003
5851,1012,1005
5852,1017,1004
5853,1024,1007
5854,1025,1003
5855,1027,1004
5856,1028,1002
5857,1032,1001
5858,1036,1004
5859,1043,1007
5860,1044,1003
5861,1051,1001
5862,1051,999
5863,1053,999
5864,1063,1003
5865,1069,1003
5866,1076,1002
5867,1083,999
5868,1082,995
5869,1089,996
5870,1101,999
5871,1108,1001
5872,1113,999
5873,1116,995
5874,1119,992
5875,1127,994
5876,1135,995
5877,1145,996
5878,1148,995
5879,1154,993
5880,1157,990
5881,1161,991
5882,1168,994
5883,1177,994
5884,1179,993
5885,1180,990
5886,1181,991
5887,1180,994
5888,1182,996
5889,1179,996
5890,1174,997
5891,1165,996
5892,1154,996
5893,1143,998
5894,1134,1002
5895,1122,1005
5896,1111,1004
5897,1096,1004
5898,1079,999
5899,1066,1001
5900,1053,1006
5901,1045,1007
5902,1035,1006
5903,1020,1004
5904,1011,1003
5905,1000,1003
5906,993,1009
5907,989,1008
5908,984,1004
5909,978,1002
5910,970,1000
5911,964,1002
5912,963,1006
5913,963,1008
5914,959,1006
5915,956,1003
5916,950,1003
5917,949,1002
5918,949,1005
5919,952,1006
5920,951,1003
5921,949,1001
5922,947,1002
5923,943,1003
5924,946,1005
5925,947,1008
5926,947,1007
5927,943,1005
5928,942,1002
5929,941,1004
5930,942,1006
5931,945,1009
5932,945,1009
5933,943,1006
5934,942,1005
5935,942,1005
5936,945,1007
5937,944,1010
5938,947,1006
5939,947,1006
5940,945,1003
5941,942,1006
5942,945,1008
5943,949,1009
5944,947,1008
5945,949,1006
5946,945,1005
5947,943,1006
5948,947,1007
5949,949,1011
5950,952,1010
5951,949,1007
5952,948,1003
5953,947,1008
5954,948,1008
5955,948,1011
5956,949,1007
5957,947,1005
5958,945,1005
5959,945,1006
5960,944,1009
5961,949,1010
5962,951,1008
5963,950,1005
5964,946,1003
5965,946,1005
5966,945,1008
5967,946,1009
5968,949,1008
5969,947,1006
5970,942,1004
5971,943,1005
5972,943,1007
5973,944,1011
5974,945,1007
5975,947,1005
5976,942,1004
5977,944,1005
5978,943,1008
5979,946,1009
5980,946,1007
5981,948,1002
5982,943,1004
5983,944,1006
5984,943,1007
5985,947,1010
5986,946,1009
5987,945,1006
5988,943,1004
5989,941,1006
5990,942,1010
5991,944,1009
5992,946,1008
5993,943,1006
5994,939,1004
5995,941,1005
5996,940,1008
5997,944,1010
5998,944,1009
5999,941,1005
6000,940,1007
6001,940,1005
6002,941,1011
6003,945,1011
6004,945,1009
6005,942,1008
6006,941,1003
6007,941,1007
6008,944,1010
6009,947,1010
6010,945,1009
6011,944,1006
6012,942,1005
6013,939,1005
6014,942,1008
6015,944,1011
6016,941,1010
6017,941,1008
6018,938,1004
6019,937,1007
6020,940,1008
6021,941,1011
6022,942,1010
6023,942,1007
6024,937,1005
6025,938,1007
6026,941,1008
6027,942,1010
6028,944,1009
6029,942,1006
6030,941,1005
6031,941,1004
6032,943,1010
6033,946,1012
6034,946,1011
6035,940,1006
6036,941,1004
6037,941,1005
6038,942,1008
6039,941,1009
6040,941,1008
6041,945,1005
6042,943,1005
6043,943,1004
6044,943,1009
6045,942,1010
6046,947,1006
6047,945,1005
6048,944,1004
6049,941,1007
6050,941,1008
6051,946,1009
6052,947,1011
6053,944,1004
6054,943,1004
6055,941,1007
6056,943,1008
6057,943,1011
6058,944,1009
6059,944,1005
6060,941,1003
6061,936,1003
6062,941,1009
6063,944,1012
6064,946,1008
6065,940,1007
6066,941,1004
6067,942,1003
6068,944,1006
6069,943,1008
6070,945,1008
6071,943,1005
6072,942,1002
6073,939,1004
6074,942,1005
6075,945,1009
6076,946,1008
6077,945,1005
6078,944,1004
6079,944,1005
6080,943,1008
6081,943,1010
6082,947,1008
6083,942,1004
6084,944,1005
6085,941,1006
6086,943,1007
6087,946,1010
6088,947,1009
6089,944,1006
6090,943,1004
6091,944,1008
6092,945,1007
6093,948,1009
6094,950,1011
6095,949,1009
6096,947,1008
6097,947,1012
6098,950,1016
6099,957,1018
6100,958,1014
6101,958,1009
6102,959,1006
6103,957,1007
6104,956,1004
6105,960,1004
6106,963,1002
6107,961,999
6108,957,999
6109,955,1002
6110,956,1005
6111,961,1008
6112,965,1005
6113,959,1004
6114,955,1004
6115,953,1005
6116,951,1007
6117,952,1009
6118,950,1008
6119,948,1006
6120,947,1001
6121,945,1003
6122,947,1008
6123,948,1010
6124,949,1008
6125,949,1007
6126,946,1001
6127,948,1006
6128,949,1008
6129,951,1010
6130,954,1010
6131,954,1009
6132,950,1006
6133,950,1006
6134,951,1010
6135,956,1015
6136,957,1012
6137,956,1016
6138,951,1022
6139,953,1030
6140,951,1042
6141,952,1052
6142,943,1054
6143,934,1047
6144,929,1038
6145,930,1024
6146,950,1006
6147,987,984
6148,1051,956
6149,1134,932
6150,1232,919
6151,1324,924
6152,1394,944
6153,1426,966
6154,1417,983
6155,1347,994
6156,1219,992
6157,1091,992
6158,963,997
6159,880,1005
6160,903,1011
6161,924,1012
6162,922,1007
6163,919,1010
6164,917,1012
6165,923,1016
6166,933,1015
6167,938,1016
6168,948,1013
6169,955,1013
6170,960,1017
6171,961,1016
6172,962,1016
6173,959,1014
6174,957,1013
6175,957,1014
6176,959,1017
6177,963,1016
6178,965,1016
6179,963,1015
6180,958,1013
6181,957,1016
6182,961,1016
6183,963,1019
6184,964,1016
6185,961,1017
6186,961,1014
6187,963,1015
6188,965,1016
6189,968,1019
6190,969,1016
6191,963,1015
6192,965,1011
6193,965,1014
6194,965,1016
6195,969,1017
6196,970,1016
6197,967,1010
6198,966,1012
6199,966,1014
6200,968,1017
6201,974,1016
6202,975,1018
6203,974,1013
6204,971,1013
6205,973,1013
6206,975,1013
6207,980,1019
6208,979,1017
6209,978,1015
6210,974,1012
6211,975,1015
6212,980,1016
6213,984,1017
6214,986,1014
6215,981,1012
6216,981,1012
6217,982,1014
6218,986,1015
6219,991,1017
6220,991,1016
6221,990,1013
6222,986,1012
6223,988,1013
6224,989,1017
6225,997,1019
6226,996,1016
6227,999,1014
6228,996,1011
6229,996,1014
6230,1003,1017
6231,1004,1017
6232,1008,1015
6233,1008,1012
6234,1010,1012
6235,1008,1012
6236,1016,1014
6237,1020,1014
6238,1024,1015
6239,1025,1012
6240,1024,1011
6241,1028,1010
6242,1032,1012
6243,1040,1015
6244,1044,1014
6245,1046,1011
6246,1046,1010
6247,1049,1011
6248,1058,1014
6249,1063,1013
6250,1069,1016
6251,1072,1011
6252,1076,1010
6253,1078,1009
6254,1085,1010
6255,1093,1014
6256,1099,1010
6257,1103,1007
6258,1106,1006
6259,1110,1008
6260,1117,1009
6261,1127,1011
6262,1132,1008
6263,1133,1004
6264,1137,1003
6265,1138,1004
6266,1145,1005
6267,1155,1009
6268,1160,1007
6269,1162,1005
6270,1164,1003
6271,1164,1004
6272,1168,1008
6273,1171,1011
6274,1177,1009
6275,1173,1007
6276,1167,1005
6277,1161,1011
6278,1154,1011
6279,1151,1014
6280,1145,1013
6281,1134,1011
6282,1120,1010
6283,1110,1012
6284,1098,1014
6285,1090,1015
6286,1077,1016
6287,1064,1015
6288,1047,1011
6289,1036,1013
6290,1029,1017
6291,1020,1019
6292,1012,1015
6293,1003,1013
6294,993,1013
6295,981,1013
6296,978,1014
6297,976,1019
6298,971,1016
6299,967,1012
6300,961,1012
6301,957,1012
6302,954,1016
6303,954,1019
6304,950,1017
6305,948,1015
6306,944,1011
6307,942,1012
6308,943,1012
6309,945,1016
6310,942,1013
6311,940,1012
6312,938,1012
6313,936,1013
6314,938,1014
6315,940,1017
6316,939,1017
6317,935,1012
6318,933,1012
6319,936,1012
6320,938,1015
6321,940,1018
6322,940,1016
6323,939,1013
6324,934,1011
6325,934,1015
6326,938,1017
6327,938,1018
6328,939,1014
6329,937,1013
6330,934,1011
6331,935,1014
6332,935,1016
6333,937,1017
6334,938,1019
6335,935,1013
6336,934,1013
6337,935,1015
6338,938,1018
6339,938,1020
6340,938,1018
6341,936,1013
6342,935,1014
6343,935,1012
6344,936,1017
6345,938,1018
6346,938,1017
6347,937,1013
6348,933,1013
6349,935,1014
6350,937,1016
6351,939,1019
6352,941,1016
6353,937,1014
6354,933,1013
6355,931,1014
6356,935,1017
6357,937,1018
6358,937,1016
6359,936,1013
6360,934,1012
6361,934,1012
6362,935,1015
6363,936,1019
6364,936,1015
6365,935,1011
6366,929,1011
6367,930,1013
6368,933,1016
6369,934,1016
6370,934,1016
6371,935,1012
6372,928,1011
6373,928,1010
6374,931,1016
6375,931,1014
6376,933,1015
6377,929,1012
6378,927,1012
6379,927,1013
6380,930,1016
6381,932,1017
6382,932,1017
6383,932,1012
6384,931,1012
6385,932,1012
6386,931,1014
6387,933,1013
6388,934,1015
6389,934,1012
6390,929,1011
6391,927,1012
6392,931,1015
6393,933,1015
6394,933,1012
6395,930,1011
6396,927,1011
6397,929,1011
6398,929,1015
6399,932,1015
6400,933,1014
6401,928,1011
6402,926,1008
6403,928,1010
6404,930,1012
6405,931,1015
6406,931,1010
6407,932,1011
6408,930,1009
6409,929,1011
6410,929,1012
6411,933,1016
6412,933,1013
6413,930,1012
6414,927,1008
6415,930,1010
6416,928,1013
6417,933,1014
6418,933,1012
6419,931,1010
6420,928,1008
6421,928,1012
6422,930,1014
6423,930,1016
6424,932,1014
6425,930,1011
6426,927,1010
6427,927,1011
6428,929,1011
6429,932,1016
6430,932,1014
6431,931,1011
6432,928,1010
6433,924,1013
6434,929,1012
6435,929,1014
6436,929,1012
6437,929,1011
6438,929,1009
6439,931,1011
6440,931,1012
6441,933,1013
6442,933,1015
6443,931,1011
6444,928,1008
6445,928,1011
6446,929,1015
6447,929,1015
6448,930,1014
6449,931,1011
6450,930,1011
6451,928,1011
6452,931,1013
6453,934,1015
6454,933,1016
6455,933,1013
6456,931,1011
6457,932,1013
6458,933,1015
6459,936,1016
6460,935,1013
6461,935,1012
6462,931,1011
6463,933,1013
6464,931,1014
6465,935,1016
6466,935,1014
6467,934,1013
6468,932,1008
6469,929,1010
6470,933,1014
6471,936,1017
6472,936,1016
6473,933,1012
6474,929,1011
6475,929,1011
6476,930,1014
6477,935,1017
6478,934,1016
6479,935,1013
6480,931,1010
6481,929,1014
6482,933,1014
6483,936,1015
6484,936,1015
6485,934,1013
6486,934,1011
6487,930,1012
6488,935,1015
6489,938,1015
6490,937,1016
6491,933,1013
6492,933,1014
6493,931,1013
6494,936,1017
6495,937,1015
6496,938,1014
6497,936,1012
6498,932,1011
6499,933,1013
6500,937,1014
6501,939,1014
6502,937,1016
6503,936,1012
6504,930,1014
6505,932,1014
6506,935,1015
6507,939,1016
6508,939,1017
6509,936,1012
6510,933,1011
6511,931,1012
6512,936,1019
6513,937,1017
6514,938,1019
6515,940,1017
6516,936,1014
6517,935,1018
6518,940,1020
6519,942,1027
6520,943,1025
6521,945,1023
6522,944,1020
6523,946,1019
6524,949,1022
6525,951,1023
6526,953,1021
6527,952,1016
6528,949,1013
6529,949,1012
6530,952,1012
6531,952,1012
6532,954,1011
6533,955,1007
6534,951,1009
6535,946,1011
6536,950,1013
6537,956,1015
6538,957,1016
6539,952,1011
6540,950,1012
6541,946,1011
6542,949,1015
6543,951,1017
6544,948,1016
6545,944,1012
6546,939,1012
6547,939,1012
6548,942,1015
6549,944,1018
6550,943,1018
6551,941,1013
6552,941,1012
6553,940,1014
6554,942,1017
6555,946,1020
6556,947,1016
6557,945,1011
6558,944,1014
6559,940,1014
6560,948,1016
6561,948,1020
6562,949,1018
6563,948,1016
6564,945,1015
6565,945,1014
6566,948,1023
6567,953,1027
6568,954,1032
6569,952,1039
6570,945,1046
6571,941,1057
6572,935,1061
6573,932,1065
6574,927,1058
6575,927,1048
6576,928,1033
6577,944,1015
6578,976,996
6579,1031,978
6580,1113,956
6581,1203,937
6582,1290,929
6583,1368,939
6584,1419,956
6585,1444,976
6586,1431,994
6587,1368,1001
6588,1256,1004
6589,1128,1002
6590,1000,1005
6591,903,1009
6592,896,1013
6593,909,1014
6594,915,1016
6595,910,1019
6596,911,1023
6597,914,1024
6598,921,1022
6599,920,1022
6600,926,1020
6601,934,1027
6602,945,1027
6603,955,1029
6604,959,1026
6605,962,1023
6606,958,1023
6607,959,1023
6608,960,1028
6609,963,1028
6610,965,1028
6611,962,1024
6612,964,1021
6613,960,1024
6614,966,1024
6615,969,1028
6616,967,1026
6617,964,1022
6618,966,1022
6619,964,1024
6620,964,1025
6621,970,1029
6622,971,1027
6623,971,1024
6624,966,1023
6625,966,1026
6626,970,1026
6627,972,1029
6628,973,1028
6629,970,1026
6630,970,1023
6631,972,1024
6632,972,1026
6633,977,1030
6634,977,1027
6635,976,1026
6636,973,1023
6637,973,1025
6638,978,1029
6639,980,1028
6640,978,1027
6641,978,1023
6642,978,1023
6643,978,1025
6644,980,1028
6645,982,1027
6646,984,1028
6647,983,1025
6648,981,1023
6649,981,1024
6650,987,1026
6651,987,1028
6652,989,1027
6653,987,1024
6654,986,1022
6655,989,1024
6656,992,1026
6657,995,1028
6658,997,1026
6659,994,1023
6660,993,1022
6661,993,1023
6662,995,1027
6663,1000,1028
6664,1003,1025
6665,1001,1021
6666,1002,1021
6667,1005,1024
6668,1009,1025
6669,1013,1028
6670,1014,1027
6671,1014,1025
6672,1013,1024
6673,1015,1025
6674,1018,1025
6675,1021,1028
6676,1026,1026
6677,1029,1022
6678,1030,1021
6679,1030,1023
6680,1034,1026
6681,1038,1026
6682,1043,1025
6683,1045,1024
6684,1050,1022
6685,1055,1022
6686,1061,1024
6687,1069,1024
6688,1072,1026
6689,1076,1019
6690,1079,1018
6691,1083,1022
6692,1090,1023
6693,1098,1024
6694,1103,1022
6695,1106,1018
6696,1109,1016
6697,1115,1018
6698,1121,1019
6699,1127,1024
6700,1135,1020
6701,1140,1018
6702,1143,1017
6703,1148,1018
6704,1150,1018
6705,1158,1021
6706,1164,1019
6707,1170,1016
6708,1172,1016
6709,1176,1015
6710,1178,1021
6711,1183,1020
6712,1187,1021
6713,1186,1022
6714,1181,1020
6715,1179,1018
6716,1178,1022
6717,1175,1025
6718,1169,1024
6719,1158,1023
6720,1146,1023
6721,1136,1021
6722,1127,1026
6723,1116,1030
6724,1106,1029
6725,1091,1025
6726,1075,1024
6727,1060,1025
6728,1053,1029
6729,1045,1030
6730,1032,1029
6731,1019,1028
6732,1008,1025
6733,999,1028
6734,996,1029
6735,993,1031
6736,984,1028
6737,975,1027
6738,969,1024
6739,965,1026
6740,965,1027
6741,966,1030
6742,959,1029
6743,957,1028
6744,953,1024
6745,950,1025
6746,949,1027
6747,950,1027
6748,952,1026
6749,947,1024
6750,944,1023
6751,939,1024
6752,944,1026
6753,945,1027
6754,947,1030
6755,941,1026
6756,941,1024
6757,939,1024
6758,942,1029
6759,944,1029
6760,945,1028
6761,943,1026
6762,939,1024
6763,937,1029
6764,939,1028
6765,943,1028
6766,943,1027
6767,943,1025
6768,938,1024
6769,939,1027
6770,941,1028
6771,944,1027
6772,944,1027
6773,942,1025
6774,940,1021
6775,937,1023
6776,938,1025
6777,946,1029
6778,944,1028
6779,945,1027
6780,943,1024
6781,942,1023
6782,942,1027
6783,942,1029
6784,944,1027
6785,944,1025
6786,941,1021
6787,939,1024
6788,942,1027
6789,945,1030
6790,944,1026
6791,943,1025
6792,941,1023
6793,939,1027
6794,943,1026
6795,944,1029
6796,946,1029
6797,944,1026
6798,940,1022
6799,941,1024
6800,940,1025
6801,943,1027
6802,945,1025
6803,942,1023
6804,936,1023
6805,935,1024
6806,941,1028
6807,944,1030
6808,943,1025
6809,941,1023
6810,940,1021
6811,936,1024
6812,940,1022
6813,940,1026
6814,942,1026
6815,938,1022
6816,935,1022
6817,935,1022
6818,938,1024
6819,941,1026
6820,941,1024
6821,938,1022
6822,937,1018
6823,937,1021
6824,936,1024
6825,939,1024
6826,937,1027
6827,939,1021
6828,936,1020
6829,936,1022
6830,936,1025
6831,939,1026
6832,937,1024
6833,935,1022
6834,930,1019
6835,933,1022
6836,934,1025
6837,933,1025
6838,938,1023
6839,935,1022
6840,933,1021
6841,934,1020
6842,938,1024
6843,940,1026
6844,937,1024
6845,938,1020
6846,934,1021
6847,933,1022
6848,937,1024
6849,939,1024
6850,939,1024
6851,936,1021
6852,933,1021
6853,933,1022
6854,937,1023
6855,938,1025
6856,937,1024
6857,935,1021
6858,935,1017
6859,933,1019
6860,936,1019
6861,937,1024
6862,938,1022
6863,935,1019
6864,933,1019
6865,931,1020
6866,934,1023
6867,938,1024
6868,938,1025
6869,938,1023
6870,933,1021
6871,933,1019
6872,937,1020
6873,939,1024
6874,938,1021
6875,936,1020
6876,935,1018
6877,935,1018
6878,936,1023
6879,940,1024
6880,938,1023
6881,937,1020
6882,935,1018
6883,935,1019
6884,938,1020
6885,941,1025
6886,939,1021
6887,937,1020
6888,935,1017
6889,937,1021
6890,937,1021
6891,942,1025
6892,941,1019
6893,938,1020
6894,936,1020
6895,938,1020
6896,940,1022
6897,941,1023
6898,940,1017
6899,942,1018
6900,939,1018
6901,939,1020
6902,939,1022
6903,942,1025
6904,944,1022
6905,943,1018
6906,938,1017
6907,938,1019
6908,939,1021
6909,943,1026
6910,945,1024
6911,941,1021
6912,938,1020
6913,941,1022
6914,942,1029
6915,948,1029
6916,949,1029
6917,945,1025
6918,944,1023
6919,947,1025
6920,951,1027
6921,955,1024
6922,957,1024
6923,956,1022
6924,953,1016
6925,957,1015
6926,960,1016
6927,964,1017
6928,960,1015
6929,956,1014
6930,957,1014
6931,959,1016
6932,961,1016
6933,964,1019
6934,964,1019
6935,959,1016
6936,954,1017
6937,951,1018
6938,952,1019
6939,952,1021
6940,951,1017
6941,947,1015
6942,944,1014
6943,946,1016
6944,947,1019
6945,949,1022
6946,947,1019
6947,948,1018
6948,947,1016
6949,947,1018
6950,950,1021
6951,952,1021
6952,951,1019
6953,952,1016
6954,949,1014
6955,947,1017
6956,951,1023
6957,954,1019
6958,955,1020
6959,953,1022
6960,952,1020
6961,950,1026
6962,955,1032
6963,957,1043
6964,956,1049
6965,950,1055
6966,938,1058
6967,933,1060
6968,931,1059
6969,933,1050
6970,939,1035
6971,955,1012
6972,993,989
6973,1061,969
6974,1157,951
6975,1259,946
6976,1341,948
6977,1393,958
6978,1413,976
6979,1396,993
6980,1332,1009
6981,1222,1013
6982,1094,1011
6983,966,1010
6984,894,1009
6985,897,1016
6986,917,1022
6987,928,1028
6988,925,1026
6989,921,1023
6990,918,1020
6991,923,1019
6992,924,1023
6993,936,1026
6994,944,1023
6995,954,1020
6996,959,1021
6997,964,1023
6998,966,1027
6999,970,1026
7000,968,1025
7001,970,1021
7002,969,1018
7003,967,1020
7004,968,1025
7005,972,1025
7006,973,1023
7007,973,1021
7008,971,1019
7009,971,1021
7010,975,1025
7011,976,1024
7012,977,1021
7013,975,1021
7014,973,1016
7015,974,1019
7016,975,1020
7017,978,1025
7018,979,1024
7019,979,1021
7020,978,1016
7021,979,1020
7022,981,1023
7023,982,1023
7024,984,1022
7025,981,1020
7026,981,1019
7027,977,1021
7028,982,1021
7029,985,1022
7030,984,1020
7031,982,1020
7032,983,1018
7033,985,1017
7034,986,1020
7035,991,1024
7036,990,1022
7037,990,1021
7038,988,1017
7039,989,1019
7040,989,1022
7041,996,1023
7042,996,1023
7043,992,1020
7044,991,1018
7045,993,1018
7046,999,1018
7047,1003,1021
7048,1004,1020
7049,1001,1017
7050,1001,1015
7051,1001,1017
7052,1004,1020
7053,1009,1024
7054,1011,1020
7055,1011,1019
7056,1014,1018
7057,1014,1018
7058,1015,1019
7059,1019,1021
7060,1023,1018
7061,1021,1015
7062,1022,1014
7063,1024,1015
7064,1026,1017
7065,1031,1018
7066,1034,1019
7067,1036,1015
7068,1040,1012
7069,1040,1015
7070,1046,1017
7071,1054,1019
7072,1055,1017
7073,1058,1016
7074,1058,1011
7075,1062,1017
7076,1072,1016
7077,1076,1019
7078,1083,1017
7079,1086,1011
7080,1088,1011
7081,1093,1010
7082,1098,1012
7083,1105,1014
7084,1113,1013
7085,1116,1009
7086,1121,1008
7087,1128,1007
7088,1134,1010
7089,1143,1012
7090,1148,1011
7091,1150,1006
7092,1152,1003
7093,1157,1005
7094,1165,1009
7095,1170,1011
7096,1177,1009
7097,1178,1005
7098,1178,1006
7099,1180,1006
7100,1182,1012
7101,1185,1015
7102,1183,1013
7103,1174,1010
7104,1165,1011
7105,1158,1013
7106,1152,1016
7107,1141,1018
7108,1130,1017
7109,1115,1017
7110,1100,1016
7111,1085,1020
7112,1075,1023
7113,1063,1023
7114,1052,1021
7115,1039,1021
7116,1025,1019
7117,1016,1019
7118,1008,1021
7119,1003,1025
7120,997,1023
7121,988,1020
7122,980,1016
7123,973,1021
7124,972,1024
7125,970,1024
7126,971,1023
7127,969,1021
7128,962,1020
7129,960,1020
7130,958,1022
7131,964,1024
7132,962,1023
7133,960,1020
7134,956,1016
7135,954,1021
7136,956,1023
7137,956,1025
7138,956,1022
7139,954,1018
7140,952,1015
7141,952,1019
7142,952,1024
7143,955,1024
7144,954,1023
7145,952,1021
7146,947,1019
7147,950,1021
7148,951,1023
7149,956,1023
7150,957,1023
7151,956,1019
7152,955,1020
7153,955,1021
7154,956,1023
7155,958,1026
7156,957,1021
7157,958,1020
7158,957,1019
7159,955,1022
7160,959,1025
7161,960,1027
7162,961,1023
7163,960,1024
7164,958,1021
7165,957,1021
7166,958,1024
7167,961,1026
7168,960,1024
7169,960,1021
7170,954,1019
7171,955,1021
7172,957,1025
7173,958,1025
7174,960,1025
7175,960,1020
7176,954,1018
7177,955,1021
7178,957,1023
7179,959,1024
7180,960,1024
7181,959,1023
7182,953,1020
7183,953,1023
7184,952,1026
7185,958,1026
7186,956,1024
7187,952,1021
7188,949,1021
7189,952,1022
7190,954,1023
7191,954,1025
7192,953,1024
7193,953,1021
7194,950,1021
7195,950,1020
7196,953,1024
7197,954,1026
7198,954,1024
7199,950,1021
7200,946,1020
7201,948,1022
7202,949,1025
7203,952,1025
7204,950,1024
7205,952,1022
7206,949,1023
7207,946,1023
7208,947,1026
7209,948,1027
7210,948,1024
7211,948,1023
7212,944,1017
7213,944,1020
7214,947,1022
7215,949,1028
7216,950,1024
7217,949,1022
7218,946,1020
7219,949,1021
7220,949,1025
7221,949,1027
7222,948,1027
7223,948,1024
7224,946,1021
7225,946,1021
7226,948,1023
7227,950,1027
7228,951,1028
7229,950,1024
7230,947,1022
7231,948,1022
7232,949,1027
7233,949,1028
7234,951,1026
7235,948,1026
7236,947,1024
7237,946,1024
7238,952,1027
7239,952,1029
7240,951,1027
7241,952,1025
7242,950,1023
7243,947,1023
7244,950,1027
7245,953,1030
7246,950,1027
7247,950,1024
7248,950,1024
7249,949,1024
7250,950,1027
7251,950,1030
7252,953,1027
7253,952,1025
7254,950,1024
7255,948,1025
7256,947,1027
7257,953,1031
7258,954,1028
7259,952,1026
7260,949,1025
7261,949,1028
7262,952,1030
7263,955,1032
7264,955,1032
7265,954,1031
7266,954,1035
7267,952,1036
7268,959,1039
7269,962,1039
7270,966,1037
7271,966,1031
7272,964,1027
7273,961,1028
7274,962,1028
7275,963,1029
7276,966,1027
7277,969,1024
7278,965,1021
7279,964,1024
7280,964,1028
7281,969,1029
7282,967,1027
7283,967,1027
7284,964,1024
7285,964,1026
7286,962,1028
7287,963,1030
7288,960,1029
7289,955,1026
7290,951,1026
7291,946,1026
7292,949,1030
7293,951,1031
7294,950,1029
7295,949,1026
7296,947,1027
7297,949,1028
7298,950,1029
7299,953,1032
7300,952,1030
7301,951,1027
7302,950,1025
7303,949,1027
7304,954,1032
7305,953,1033
7306,954,1032
7307,955,1030
7308,951,1027
7309,951,1030
7310,951,1033
7311,958,1039
7312,958,1042
7313,956,1047
7314,954,1051
7315,948,1062
7316,948,1069
7317,945,1073
7318,940,1073
7319,934,1067
7320,932,1055
7321,937,1043
7322,957,1030
7323,992,1013
7324,1053,991
7325,1135,968
7326,1221,953
7327,1308,953
7328,1377,963
7329,1417,981
7330,1420,1001
7331,1377,1018
7332,1274,1022
7333,1146,1024
7334,1018,1024
7335,890,1030
7336,885,1035
7337,909,1041
7338,920,1038
7339,919,1039
7340,917,1041
7341,919,1043
7342,924,1039
7343,927,1041
7344,933,1039
7345,942,1041
7346,951,1042
7347,960,1047
7348,960,1044
7349,957,1041
7350,955,1041
7351,953,1041
7352,959,1045
7353,960,1045
7354,962,1044
7355,959,1044
7356,955,1043
7357,959,1042
7358,962,1044
7359,964,1045
7360,965,1045
7361,962,1043
7362,959,1042
7363,957,1044
7364,961,1046
7365,964,1049
7366,965,1047
7367,962,1045
7368,962,1041
7369,963,1045
7370,964,1046
7371,967,1050
7372,967,1050
7373,962,1045
7374,962,1046
7375,961,1047
7376,964,1050
7377,966,1049
7378,970,1047
7379,964,1046
7380,965,1048
7381,964,1046
7382,966,1051
7383,969,1050
7384,971,1052
7385,970,1048
7386,969,1048
7387,970,1048
7388,971,1049
7389,977,1053
7390,977,1050
7391,971,1049
7392,973,1049
7393,972,1048
7394,975,1050
7395,979,1054
7396,982,1054
7397,980,1049
7398,977,1050
7399,978,1050
7400,981,1053
7401,987,1057
7402,985,1055
7403,982,1051
7404,982,1049
7405,984,1051
7406,989,1055
7407,993,1057
7408,996,1055
7409,994,1052
7410,994,1052
7411,995,1054
7412,1001,1056
7413,1004,1056
7414,1009,1057
7415,1008,1053
7416,1010,1052
7417,1011,1055
7418,1017,1055
7419,1023,1058
7420,1026,1056
7421,1023,1053
7422,1028,1055
7423,1032,1055
7424,1037,1058
7425,1046,1058
7426,1047,1057
7427,1052,1055
7428,1053,1052
7429,1056,1054
7430,1066,1057
7431,1074,1059
7432,1077,1057
7433,1078,1054
7434,1080,1052
7435,1085,1053
7436,1093,1057
7437,1101,1055
7438,1108,1055
7439,1111,1053
7440,1116,1050
7441,1121,1053
7442,1126,1057
7443,1135,1056
7444,1138,1054
7445,1141,1053
7446,1142,1051
7447,1147,1053
7448,1153,1057
7449,1157,1060
7450,1160,1058
7451,1155,1058
7452,1155,1057
7453,1153,1059
7454,1151,1062
7455,1150,1064
7456,1139,1063
7457,1127,1063
7458,1113,1061
7459,1102,1065
7460,1093,1070
7461,1082,1070
7462,1066,1068
7463,1053,1068
7464,1039,1065
7465,1025,1069
7466,1018,1072
7467,1006,1074
7468,999,1072
7469,989,1070
7470,973,1069
7471,968,1072
7472,962,1073
7473,960,1076
7474,956,1073
7475,948,1070
7476,941,1070
7477,939,1073
7478,939,1074
7479,937,1077
7480,933,1077
7481,931,1072
7482,924,1071
7483,924,1073
7484,925,1077
7485,927,1077
7486,926,1074
7487,924,1072
7488,922,1071
7489,920,1075
7490,922,1076
7491,923,1077
7492,920,1076
7493,919,1073
7494,913,1075
7495,916,1076
7496,919,1080
7497,921,1081
7498,920,1079
7499,919,1078
7500,917,1076
7501,917,1078
7502,919,1081
7503,920,1084
7504,919,1079
7505,918,1078
7506,915,1078
7507,916,1078
7508,919,1083
7509,921,1081
7510,921,1084
7511,920,1082
7512,914,1080
7513,919,1082
7514,918,1085
7515,921,1087
7516,920,1087
7517,922,1083
7518,916,1083
7519,920,1085
7520,921,1088
7521,923,1091
7522,925,1089
7523,922,1086
7524,919,1085
7525,920,1087
7526,920,1089
7527,923,1093
7528,921,1091
7529,919,1088
7530,918,1086
7531,916,1089
7532,917,1092
7533,921,1093
7534,920,1091
7535,918,1089
7536,919,1089
7537,916,1089
7538,920,1092
7539,923,1095
7540,921,1093
7541,919,1091
7542,918,1090
7543,917,1089
7544,919,1095
7545,920,1096
7546,922,1095
7547,920,1092
7548,914,1094
7549,915,1095
7550,916,1095
7551,921,1096
7552,920,1095
7553,917,1092
7554,914,1093
7555,914,1094
7556,916,1095
7557,918,1099
7558,918,1097
7559,917,1095
7560,914,1095
7561,914,1096
7562,914,1097
7563,915,1098
7564,919,1098
7565,917,1095
7566,912,1095
7567,913,1097
7568,918,1099
7569,919,1098
7570,917,1098
7571,917,1098
7572,914,1095
7573,912,1096
7574,916,1101
7575,919,1102
7576,920,1101
7577,918,1100
7578,913,1098
7579,913,1097
7580,915,1100
7581,917,1102
7582,916,1102
7583,917,1100
7584,915,1097
7585,914,1101
7586,915,1103
7587,918,1105
7588,920,1103
7589,914,1100
7590,913,1099
7591,915,1100
7592,914,1104
7593,920,1106
7594,919,1103
7595,915,1102
7596,914,1101
7597,914,1101
7598,916,1105
7599,919,1107
7600,920,1103
7601,919,1103
7602,917,1100
7603,917,1105
7604,918,1106
7605,921,1106
7606,923,1105
7607,921,1105
7608,915,1103
7609,916,1104
7610,918,1105
7611,923,1108
7612,925,1108
7613,922,1104
7614,919,1105
7615,920,1105
7616,918,1109
7617,923,1111
7618,924,1107
7619,923,1105
7620,920,1106
7621,919,1107
7622,923,1109
7623,922,1111
7624,920,1109
7625,922,1107
7626,919,1107
7627,918,1109
7628,921,1114
7629,924,1112
7630,925,1108
7631,923,1106
7632,920,1104
7633,921,1108
7634,924,1110
7635,924,1112
7636,925,1110
7637,921,1109
7638,923,1108
7639,922,1112
7640,924,1112
7641,927,1113
7642,928,1109
7643,929,1109
7644,923,1107
7645,925,1112
7646,930,1114
7647,930,1113
7648,929,1113
7649,927,1112
7650,924,1113
7651,925,1112
7652,927,1116
7653,931,1116
7654,930,1114
7655,930,1111
7656,926,1111
7657,924,1113
7658,930,1117
7659,933,1115
7660,933,1114
7661,929,1111
7662,930,1111
7663,930,1112
7664,929,1115
7665,934,1117
7666,932,1117
7667,932,1114
7668,934,1117
7669,935,1120
7670,939,1123
7671,945,1125
7672,947,1123
7673,948,1118
7674,945,1115
7675,945,1116
7676,948,1117
7677,950,1118
7678,952,1111
7679,952,1110
7680,952,1106
7681,951,1107
7682,950,1110
7683,954,1112
7684,954,1113
7685,952,1112
7686,954,1110
7687,954,1111
7688,951,1114
7689,950,1118
7690,950,1115
7691,948,1112
7692,943,1111
7693,942,1112
7694,942,1114
7695,947,1116
7696,943,1114
7697,941,1112
7698,939,1110
7699,941,1111
7700,944,1114
7701,946,1116
7702,949,1114
7703,946,1112
7704,944,1110
7705,945,1111
7706,950,1115
7707,952,1118
7708,953,1115
7709,951,1113
7710,950,1111
7711,948,1115
7712,953,1120
7713,958,1124
7714,957,1128
7715,955,1136
7716,949,1141
7717,946,1149
7718,943,1154
7719,939,1153
7720,935,1147
7721,932,1138
7722,940,1124
7723,960,1105
7724,998,1088
7725,1061,1067
7726,1145,1042
7727,1238,1028
7728,1323,1025
7729,1390,1039
7730,1433,1058
7731,1433,1081
7732,1391,1097
7733,1287,1100
7734,1159,1101
7735,1031,1099
7736,903,1106
7737,897,1111
7738,919,1116
7739,933,1115
7740,928,1114
7741,921,1115
7742,928,1117
7743,934,1119
7744,939,1118
7745,945,1119
7746,954,1117
7747,961,1118
7748,968,1120
7749,970,1122
7750,972,1120
7751,970,1118
7752,967,1116
7753,969,1119
7754,970,1120
7755,974,1122
7756,977,1120
7757,975,1117
7758,973,1117
7759,974,1119
7760,977,1121
7761,980,1120
7762,979,1120
7763,979,1115
7764,979,1114
7765,977,1118
7766,982,1120
7767,984,1121
7768,984,1120
7769,981,1115
7770,979,1113
7771,980,1114
7772,980,1118
7773,984,1121
7774,985,1118
7775,985,1114
7776,983,1113
7777,983,1118
7778,987,1118
7779,989,1119
7780,991,1117
7781,991,1115
7782,990,1111
7783,988,1113
7784,991,1115
7785,993,1120
7786,996,1114
7787,995,1113
7788,994,1114
7789,996,1115
7790,999,1117
7791,1003,1117
7792,1004,1115
7793,1003,1115
7794,1001,1114
7795,1001,1113
7796,1006,1116
7797,1007,1115
7798,1010,1111
7799,1008,1111
7800,1009,1108
7801,1009,1111
7802,1012,1114
7803,1017,1115
7804,1022,1113
7805,1018,1112
7806,1021,1110
7807,1023,1110
7808,1028,1111
7809,1034,1114
7810,1037,1111
7811,1036,1111
7812,1036,1109
7813,1039,1109
7814,1042,1110
7815,1050,1113
7816,1052,1111
7817,1055,1108
7818,1052,1106
7819,1059,1106
7820,1066,1108
7821,1075,1111
7822,1078,1107
7823,1082,1104
7824,1082,1103
7825,1086,1103
7826,1095,1106
7827,1102,1107
7828,1110,1105
7829,1115,1101
7830,1119,1101
7831,1126,1102
7832,1134,1103
7833,1142,1102
7834,1147,1100
7835,1152,1097
7836,1152,1097
7837,1158,1099
7838,1165,1099
7839,1173,1100
7840,1177,1100
7841,1183,1095
7842,1184,1096
7843,1187,1097
7844,1192,1098
7845,1197,1100
7846,1198,1099
7847,1194,1098
7848,1190,1095
7849,1182,1097
7850,1180,1102
7851,1175,1100
7852,1165,1103
7853,1148,1099
7854,1131,1100
7855,1120,1099
7856,1110,1102
7857,1099,1105
7858,1084,1104
7859,1073,1099
7860,1059,1098
7861,1048,1099
7862,1037,1100
7863,1033,1101
7864,1025,1101
7865,1015,1098
7866,1006,1096
7867,1000,1097
7868,998,1100
7869,994,1103
7870,993,1099
7871,988,1096
7872,985,1091
7873,981,1096
7874,983,1098
7875,982,1098
7876,978,1098
7877,978,1094
7878,976,1094
7879,972,1094
7880,972,1099
7881,974,1098
7882,976,1098
7883,973,1091
7884,967,1092
7885,968,1094
7886,972,1095
7887,973,1097
7888,970,1093
7889,968,1092
7890,966,1090
7891,966,1093
7892,967,1094
7893,970,1097
7894,971,1093
7895,969,1092
7896,969,1091
7897,965,1092
7898,970,1091
7899,974,1093
7900,971,1095
7901,971,1091
7902,969,1091
7903,970,1093
7904,967,1095
7905,971,1094
7906,974,1092
7907,972,1089
7908,968,1089
7909,966,1091
7910,970,1090
7911,972,1092
7912,974,1092
7913,972,1087
7914,969,1085
7915,968,1089
7916,968,1093
7917,970,1092
7918,972,1090
7919,973,1087
7920,970,1085
7921,971,1086
7922,970,1091
7923,970,1093
7924,970,1088
7925,970,1086
7926,967,1085
7927,967,1086
7928,969,1090
7929,970,1090
7930,972,1087
7931,969,1084
7932,968,1083
7933,966,1085
7934,966,1087
7935,969,1087
7936,969,1088
7937,969,1084
7938,966,1081
7939,966,1083
7940,967,1086
7941,970,1085
7942,968,1085
7943,967,1082
7944,964,1080
7945,964,1080
7946,966,1082
7947,968,1086
7948,967,1083
7949,965,1080
7950,962,1079
7951,964,1081
7952,966,1083
7953,967,1084
7954,969,1079
7955,966,1078
7956,963,1079
7957,962,1080
7958,964,1083
7959,969,1083
7960,967,1081
7961,965,1075
7962,962,1076
7963,960,1077
7964,964,1079
7965,966,1080
7966,966,1078
7967,966,1076
7968,963,1074
7969,963,1076
7970,967,1077
7971,968,1079
7972,966,1076
7973,967,1074
7974,965,1072
7975,964,1078
7976,965,1078
7977,969,1078
7978,967,1075
7979,966,1074
7980,963,1074
7981,963,1075
7982,965,1077
7983,967,1079
7984,966,1075
7985,964,1072
7986,962,1073
7987,959,1072
7988,962,1075
7989,967,1074
7990,966,1072
7991,965,1070
7992,962,1069
7993,962,1072
7994,963,1074
7995,966,1076
7996,966,1073
7997,964,1070
7998,961,1068
7999,963,1069
8000,962,1070
8001,966,1072
8002,965,1068
8003,966,1068
8004,962,1064
8005,962,1066
8006,964,1068
8007,965,1070
8008,966,1066
8009,963,1066
8010,961,1062
8011,959,1065
8012,962,1067
8013,965,1069
8014,964,1067
8015,964,1062
8016,962,1061
8017,961,1064
8018,958,1069
8019,962,1068
8020,966,1066
8021,963,1063
8022,962,1059
8023,957,1062
8024,963,1063
8025,966,1066
8026,968,1064
8027,964,1062
8028,963,1061
8029,961,1061
8030,965,1063
8031,966,1062
8032,965,1062
8033,961,1058
8034,962,1057
8035,961,1061
8036,964,1062
8037,967,1063
8038,966,1060
8039,966,1058
8040,964,1057
8041,962,1059
8042,964,1059
8043,968,1062
8044,967,1059
8045,965,1055
8046,962,1055
8047,966,1058
8048,963,1060
8049,968,1059
8050,969,1059
8051,966,1055
8052,963,1055
8053,962,1055
8054,965,1057
8055,968,1058
8056,967,1059
8057,967,1054
8058,965,1054
8059,967,1059
8060,967,1064
8061,971,1065
8062,974,1062
8063,976,1061
8064,976,1061
8065,976,1057
8066,979,1057
8067,983,1060
8068,984,1058
8069,983,1052
8070,981,1048
8071,983,1045
8072,984,1045
8073,986,1048
8074,985,1048
8075,984,1046
8076,983,1045
8077,982,1048
8078,982,1050
8079,980,1050
8080,979,1048
8081,975,1047
8082,972,1046
8083,968,1047
8084,968,1046
8085,973,1049
8086,972,1049
8087,968,1047
8088,969,1044
8089,969,1043
8090,972,1047
8091,978,1046
8092,978,1046
8093,977,1043
8094,971,1043
8095,969,1043
8096,975,1046
8097,979,1045
8098,979,1046
8099,977,1044
8100,977,1044
8101,978,1047
8102,978,1054
8103,979,1059
8104,983,1066
8105,977,1070
8106,969,1079
8107,964,1083
8108,958,1086
8109,959,1082
8110,961,1063
8111,977,1042
8112,1005,1013
8113,1076,990
8114,1181,967
8115,1296,955
8116,1394,962
8117,1451,979
8118,1453,1003
8119,1401,1022
8120,1273,1030
8121,1145,1031
8122,1017,1027
8123,898,1030
8124,922,1034
8125,944,1037
8126,950,1043
8127,947,1042
8128,944,1039
8129,947,1038
8130,952,1039
8131,962,1042
8132,973,1047
8133,983,1046
8134,986,1043
8135,988,1041
8136,987,1039
8137,989,1041
8138,989,1043
8139,994,1044
8140,992,1044
8141,990,1039
8142,988,1038
8143,988,1041
8144,993,1043
8145,997,1045
8146,997,1042
8147,995,1037
8148,996,1037
8149,996,1038
8150,998,1042
8151,999,1042
8152,998,1040
8153,999,1037
8154,996,1037
8155,998,1038
8156,999,1042
8157,1003,1039
8158,1004,1039
8159,1004,1037
8160,1003,1035
8161,1002,1037
8162,1008,1039
8163,1012,1039
8164,1011,1035
8165,1011,1033
8166,1008,1034
8167,1008,1035
8168,1009,1037
8169,1011,1039
8170,1011,1035
8171,1008,1032
8172,1008,1032
8173,1007,1031
8174,1011,1035
8175,1019,1036
8176,1019,1035
8177,1018,1031
8178,1016,1031
8179,1018,1033
8180,1019,1036
8181,1023,1035
8182,1027,1032
8183,1027,1029
8184,1025,1028
8185,1028,1031
8186,1032,1034
8187,1032,1036
8188,1034,1035
8189,1035,1032
8190,1036,1030
8191,1038,1030
8192,1043,1032
8193,1049,1032
8194,1051,1031
8195,1051,1030
8196,1052,1027
8197,1055,1029
8198,1063,1033
8199,1067,1034
8200,1072,1033
8201,1074,1028
8202,1076,1027
8203,1078,1027
8204,1088,1031
8205,1095,1031
8206,1099,1030
8207,1105,1026
8208,1109,1024
8209,1118,1026
8210,1125,1029
8211,1134,1028
8212,1142,1025
8213,1148,1020
8214,1152,1022
8215,1159,1022
8216,1171,1025
8217,1180,1027
8218,1183,1023
8219,1194,1022
8220,1197,1022
8221,1201,1023
8222,1207,1026
8223,1210,1029
8224,1208,1028
8225,1197,1028
8226,1187,1029
8227,1177,1032
8228,1163,1035
8229,1153,1036
8230,1136,1034
8231,1120,1033
8232,1101,1033
8233,1084,1037
8234,1070,1037
8235,1059,1041
8236,1046,1039
8237,1032,1035
8238,1020,1035
8239,1014,1036
8240,1007,1039
8241,1003,1040
8242,995,1038
8243,992,1037
8244,988,1036
8245,983,1039
8246,982,1039
8247,981,1042
8248,981,1040
8249,976,1038
8250,972,1037
8251,974,1042
8252,976,1043
8253,978,1045
8254,978,1042
8255,972,1041
8256,972,1040
8257,972,1041
8258,973,1045
8259,976,1044
8260,977,1044
8261,973,1042
8262,973,1041
8263,972,1043
8264,974,1049
8265,977,1047
8266,975,1044
8267,974,1044
8268,972,1043
8269,972,1046
8270,972,1047
8271,977,1047
8272,978,1048
8273,975,1046
8274,976,1047
8275,973,1047
8276,976,1045
8277,979,1051
8278,981,1048
8279,979,1046
8280,976,1044
8281,976,1045
8282,979,1048
8283,982,1051
8284,984,1048
8285,979,1048
8286,976,1047
8287,979,1048
8288,979,1052
8289,984,1053
8290,983,1050
8291,979,1050
8292,976,1048
8293,976,1050
8294,976,1053
8295,980,1053
8296,980,1053
8297,979,1050
8298,978,1051
8299,975,1051
8300,979,1055
8301,978,1057
8302,980,1051
8303,980,1054
8304,975,1053
8305,974,1053
8306,978,1053
8307,979,1054
8308,981,1054
8309,977,1051
8310,974,1055
8311,976,1056
8312,976,1057
8313,980,1057
8314,979,1055
8315,975,1052
8316,975,1054
8317,974,1054
8318,975,1058
8319,980,1061
8320,980,1060
8321,976,1059
8322,972,1056
8323,974,1055
8324,976,1058
8325,978,1062
8326,979,1059
8327,977,1057
8328,975,1058
8329,975,1059
8330,977,1060
8331,980,1063
8332,979,1064
8333,978,1061
8334,974,1061
8335,975,1059
8336,978,1063
8337,983,1064
8338,983,1061
8339,980,1059
8340,977,1056
8341,978,1062
8342,981,1060
8343,986,1066
8344,982,1064
8345,982,1061
8346,978,1059
8347,978,1061
8348,983,1061
8349,986,1065
8350,987,1064
8351,982,1064
8352,982,1062
8353,979,1063
8354,982,1068
8355,985,1068
8356,984,1065
8357,982,1063
8358,981,1061
8359,982,1064
8360,985,1063
8361,988,1067
8362,988,1064
8363,984,1062
8364,980,1062
8365,984,1063
8366,984,1068
8367,991,1070
8368,988,1066
8369,991,1066
8370,986,1064
8371,986,1065
8372,989,1069
8373,990,1067
8374,992,1066
8375,992,1066
8376,987,1061
8377,989,1065
8378,992,1070
8379,995,1070
8380,994,1070
8381,992,1066
8382,987,1066
8383,988,1070
8384,992,1073
8385,999,1073
8386,995,1072
8387,996,1070
8388,995,1071
8389,994,1074
8390,1000,1078
8391,1003,1082
8392,1005,1080
8393,1003,1077
8394,1001,1077
8395,1005,1075
8396,1008,1075
8397,1012,1073
8398,1012,1073
8399,1010,1070
8400,1010,1066
8401,1011,1067
8402,1015,1067
8403,1022,1070
8404,1019,1069
8405,1015,1069
8406,1011,1066
8407,1013,1069
8408,1015,1074
8409,1017,1074
8410,1017,1073
8411,1010,1072
8412,1006,1072
8413,1004,1074
8414,1006,1072
8415,1010,1076
8416,1006,1072
8417,1003,1072
8418,1001,1071
8419,1001,1072
8420,1002,1075
8421,1007,1078
8422,1007,1076
8423,1006,1073
8424,1004,1072
8425,1005,1076
8426,1010,1077
8427,1013,1080
8428,1009,1079
8429,1011,1074
8430,1010,1075
8431,1008,1075
8432,1012,1080
8433,1018,1081
8434,1016,1081
8435,1015,1082
8436,1013,1087
8437,1014,1100
8438,1011,1110
8439,1010,1119
8440,1001,1117
8441,992,1112
8442,985,1109
8443,990,1096
8444,1008,1084
8445,1041,1065
8446,1096,1043
8447,1171,1021
8448,1261,999
8449,1346,998
8450,1416,1006
8451,1455,1025
8452,1457,1043
8453,1422,1060
8454,1331,1070
8455,1203,1070
8456,1075,1074
8457,956,1075
8458,958,1078
8459,979,1081
8460,989,1084
8461,986,1086
8462,983,1086
8463,987,1085
8464,990,1082
8465,993,1079
8466,997,1080
8467,1008,1084
8468,1022,1085
8469,1031,1088
8470,1037,1086
8471,1039,1084
8472,1038,1080
8473,1038,1082
8474,1038,1082
8475,1043,1084
8476,1043,1082
8477,1043,1082
8478,1041,1080
8479,1041,1083
8480,1042,1085
8481,1048,1085
8482,1046,1084
8483,1049,1082
8484,1046,1083
8485,1046,1084
8486,1049,1083
8487,1053,1086
8488,1052,1084
8489,1052,1080
8490,1050,1082
8491,1050,1079
8492,1055,1082
8493,1057,1086
8494,1060,1082
8495,1059,1081
8496,1056,1080
8497,1056,1081
8498,1061,1084
8499,1063,1085
8500,1064,1083
8501,1062,1081
8502,1060,1081
8503,1062,1083
8504,1064,1085
8505,1067,1083
8506,1067,1082
8507,1068,1080
8508,1064,1080
8509,1064,1080
8510,1066,1083
8511,1071,1086
8512,1073,1084
8513,1067,1079
8514,1069,1079
8515,1071,1078
8516,1073,1083
8517,1080,1084
8518,1079,1081
8519,1078,1076
8520,1076,1077
8521,1075,1078
8522,1080,1082
8523,1083,1083
8524,1082,1079
8525,1082,1077
8526,1078,1076
8527,1082,1080
8528,1086,1081
8529,1091,1083
8530,1093,1081
8531,1091,1078
8532,1091,1075
8533,1094,1078
8534,1096,1079
8535,1102,1082
8536,1101,1080
8537,1101,1077
