'sample #','MLII','V1'
0,960,776
1,960,776
2,960,776
3,960,776
4,960,776
5,960,776
6,960,776
7,960,762
8,1019,749
9,1077,735
10,1140,721
11,1209,711
12,1286,709
13,1358,709
14,1426,716
15,1472,731
16,1487,751
17,1461,775
18,1378,795
19,1250,813
20,1122,820
21,994,829
22,866,835
23,738,842
24,696,850
25,747,854
26,803,854
27,840,851
28,853,848
29,844,847
30,825,849
31,806,854
32,790,857
33,784,860
34,788,864
35,787,863
36,793,871
37,795,871
38,799,869
39,797,867
40,793,865
41,791,866
42,789,866
43,787,869
44,787,868
45,787,873
46,795,873
47,797,877
48,800,873
49,804,872
50,809,872
51,806,870
52,804,866
53,803,865
54,802,868
55,802,869
56,801,872
57,802,876
58,809,879
59,808,877
60,814,878
61,817,878
62,817,876
63,819,874
64,820,878
65,822,872
66,824,873
67,824,873
68,828,878
69,832,880
70,837,886
71,840,888
72,845,888
73,847,886
74,845,883
75,851,882
76,856,882
77,858,884
78,860,885
79,862,890
80,869,893
81,877,896
82,885,897
83,893,899
84,902,900
85,909,899
86,913,898
87,921,896
88,921,896
89,926,894
90,927,895
91,930,896
92,930,899
93,935,901
94,939,904
95,945,909
96,953,909
97,956,906
98,957,905
99,956,899
100,954,896
101,949,894
102,946,896
103,941,899
104,936,899
105,928,899
106,925,898
107,918,895
108,911,895
109,903,892
110,892,888
111,884,884
112,876,882
113,864,876
114,857,877
115,845,882
116,835,879
117,826,879
118,820,879
119,814,878
120,812,884
121,806,885
122,800,888
123,800,882
124,795,876
125,790,866
126,783,862
127,773,860
128,772,866
129,772,869
130,775,879
131,779,880
132,781,877
133,781,874
134,778,872
135,776,871
136,775,868
137,772,869
138,771,869
139,769,877
140,770,875
141,768,875
142,772,875
143,772,876
144,777,874
145,776,877
146,776,878
147,777,877
148,775,874
149,775,875
150,774,874
151,770,873
152,771,876
153,775,878
154,778,880
155,782,881
156,783,882
157,781,884
158,778,880
159,777,878
160,774,879
161,771,876
162,771,880
163,770,883
164,770,880
165,771,883
166,774,882
167,776,879
168,779,877
169,777,872
170,775,872
171,772,876
172,768,872
173,764,874
174,764,873
175,763,869
176,763,867
177,767,869
178,766,873
179,765,875
180,765,879
181,764,881
182,763,881
183,762,872
184,759,870
185,761,866
186,756,866
187,756,869
188,755,868
189,759,874
190,758,877
191,761,880
192,763,884
193,765,882
194,763,879
195,764,876
196,763,872
197,760,871
198,757,871
199,757,873
200,752,869
201,753,872
202,754,878
203,753,878
204,756,881
205,755,883
206,754,883
207,749,879
208,747,877
209,747,868
210,751,873
211,751,872
212,750,874
213,752,879
214,755,884
215,759,890
216,763,891
217,770,894
218,770,891
219,771,894
220,769,890
221,763,886
222,759,885
223,758,884
224,759,880
225,764,881
226,770,883
227,773,883
228,776,885
229,777,887
230,782,884
231,785,888
232,785,886
233,784,884
234,783,880
235,784,876
236,784,869
237,783,872
238,781,876
239,782,884
240,781,886
241,778,886
242,775,885
243,772,879
244,768,877
245,764,873
246,762,870
247,754,871
248,749,870
249,747,875
250,744,874
251,744,876
252,744,873
253,744,874
254,746,872
255,749,872
256,747,869
257,748,868
258,746,869
259,742,869
260,739,872
261,738,876
262,740,876
263,740,881
264,744,885
265,747,884
266,745,882
267,745,876
268,745,869
269,749,859
270,756,852
271,766,843
272,783,835
273,815,830
274,850,823
275,899,817
276,948,808
277,1003,797
278,1051,785
279,1103,768
280,1157,754
281,1219,752
282,1275,762
283,1310,783
284,1314,808
285,1265,830
286,1157,840
287,1029,847
288,901,846
289,773,849
290,645,850
291,610,853
292,644,859
293,696,867
294,746,875
295,777,879
296,787,880
297,784,880
298,776,880
299,767,876
300,760,881
301,754,880
302,752,882
303,752,882
304,751,882
305,751,885
306,751,880
307,745,882
308,745,881
309,748,885
310,748,886
311,751,885
312,757,889
313,763,887
314,766,887
315,767,885
316,765,885
317,764,881
318,766,882
319,766,881
320,765,885
321,769,887
322,772,892
323,777,889
324,779,898
325,779,897
326,781,894
327,782,891
328,778,886
329,781,885
330,785,883
331,786,883
332,788,885
333,793,888
334,797,891
335,804,891
336,809,891
337,811,893
338,815,888
339,817,890
340,816,887
341,815,889
342,819,891
343,819,889
344,821,894
345,828,896
346,835,899
347,839,901
348,849,905
349,853,903
350,858,901
351,862,904
352,870,902
353,874,899
354,878,898
355,873,900
356,884,900
357,883,906
358,887,909
359,892,911
360,897,909
361,902,905
362,904,904
363,904,900
364,904,901
365,904,900
366,903,903
367,900,905
368,901,907
369,896,907
370,896,904
371,894,899
372,891,902
373,884,900
374,874,899
375,870,898
376,858,893
377,847,889
378,839,886
379,829,888
380,825,889
381,822,889
382,813,889
383,811,888
384,810,886
385,808,886
386,801,885
387,798,883
388,793,881
389,788,879
390,782,881
391,777,874
392,776,877
393,778,875
394,779,871
395,780,875
396,781,877
397,780,877
398,782,875
399,778,875
400,777,876
401,775,875
402,774,876
403,774,878
404,773,879
405,774,881
406,776,880
407,778,880
408,781,880
409,784,881
410,783,875
411,784,871
412,781,870
413,780,873
414,786,874
415,784,878
416,786,880
417,787,880
418,791,886
419,794,890
420,794,886
421,796,883
422,795,884
423,795,879
424,793,875
425,791,873
426,793,868
427,794,870
428,794,869
429,794,872
430,792,873
431,792,876
432,793,881
433,795,881
434,796,878
435,800,879
436,797,879
437,797,879
438,797,879
439,791,877
440,792,880
441,794,881
442,795,883
443,795,885
444,797,888
445,796,888
446,789,888
447,790,883
448,787,879
449,785,871
450,786,868
451,786,866
452,782,869
453,783,872
454,788,874
455,789,874
456,792,875
457,790,874
458,789,878
459,787,878
460,789,880
461,787,873
462,785,867
463,784,864
464,784,860
465,783,860
466,782,867
467,782,873
468,789,877
469,789,882
470,791,885
471,794,880
472,791,878
473,786,875
474,783,871
475,777,866
476,776,867
477,780,870
478,783,872
479,784,874
480,786,877
481,783,878
482,785,876
483,784,875
484,779,871
485,783,871
486,781,872
487,782,878
488,783,883
489,784,890
490,792,889
491,796,888
492,799,882
493,800,882
494,801,880
495,803,881
496,806,885
497,806,885
498,803,887
499,803,885
500,802,885
501,801,884
502,805,881
503,806,881
504,809,883
505,814,881
506,814,878
507,821,876
508,825,873
509,827,871
510,830,869
511,831,870
512,826,871
513,823,876
514,821,880
515,825,881
516,825,883
517,827,883
518,826,878
519,823,878
520,817,875
521,811,875
522,809,874
523,802,875
524,795,876
525,793,877
526,787,879
527,788,876
528,787,877
529,784,872
530,782,874
531,782,874
532,780,873
533,783,873
534,782,873
535,783,874
536,783,876
537,784,876
538,784,881
539,784,880
540,787,883
541,789,880
542,789,876
543,790,876
544,783,874
545,778,870
546,781,864
547,783,859
548,786,859
549,797,846
550,820,836
551,850,821
552,892,806
553,952,787
554,1020,773
555,1094,756
556,1172,740
557,1250,722
558,1328,715
559,1399,712
560,1451,722
561,1487,740
562,1499,767
563,1488,790
564,1438,818
565,1337,834
566,1209,841
567,1081,841
568,953,843
569,825,847
570,697,853
571,690,864
572,744,871
573,803,879
574,848,880
575,864,886
576,856,882
577,841,879
578,820,875
579,803,874
580,792,871
581,792,873
582,791,878
583,795,880
584,794,883
585,797,889
586,796,892
587,795,892
588,797,889
589,799,891
590,797,888
591,800,887
592,803,883
593,804,883
594,804,886
595,800,882
596,801,884
597,804,883
598,807,884
599,811,889
600,812,891
601,816,893
602,816,893
603,816,896
604,816,891
605,818,888
606,816,886
607,816,884
608,819,883
609,820,889
610,823,890
611,824,896
612,829,897
613,834,896
614,833,896
615,838,890
616,840,888
617,841,889
618,845,890
619,849,893
620,852,894
621,853,900
622,856,903
623,859,901
624,866,902
625,870,902
626,880,902
627,884,901
628,892,899
629,892,900
630,892,898
631,895,896
632,898,895
633,903,900
634,911,905
635,921,905
636,929,912
637,941,912
638,948,912
639,953,913
640,957,911
641,958,906
642,959,909
643,965,910
644,969,912
645,974,917
646,978,918
647,982,919
648,983,914
649,986,913
650,982,909
651,987,907
652,979,908
653,979,907
654,974,906
655,968,906
656,963,901
657,954,903
658,948,898
659,937,898
660,927,896
661,917,898
662,901,896
663,888,891
664,874,887
665,861,881
666,847,876
667,838,872
668,829,876
669,826,878
670,825,882
671,820,888
672,820,889
673,820,889
674,816,884
675,814,882
676,811,876
677,806,877
678,803,875
679,799,878
680,799,878
681,796,881
682,796,882
683,797,885
684,798,891
685,802,890
686,802,884
687,802,881
688,800,875
689,795,871
690,797,870
691,797,875
692,795,880
693,798,880
694,798,887
695,801,889
696,802,890
697,804,890
698,805,884
699,802,885
700,802,882
701,802,880
702,803,876
703,805,879
704,803,878
705,802,878
706,805,882
707,807,882
708,808,886
709,811,886
710,812,886
711,808,887
712,809,886
713,806,884
714,805,883
715,802,885
716,801,882
717,803,884
718,801,884
719,799,886
720,803,889
721,805,890
722,809,884
723,802,883
724,803,880
725,801,883
726,797,879
727,793,880
728,792,884
729,793,884
730,794,883
731,795,883
732,796,883
733,800,881
734,797,882
735,796,885
736,796,880
737,792,880
738,788,878
739,788,880
740,789,880
741,787,881
742,787,883
743,787,886
744,788,887
745,789,888
746,786,890
747,787,887
748,786,886
749,787,885
750,785,878
751,785,878
752,784,879
753,785,878
754,784,879
755,786,882
756,786,885
757,786,886
758,784,885
759,783,887
760,782,885
761,782,880
762,780,877
763,778,881
764,777,880
765,779,883
766,782,889
767,785,892
768,789,895
769,797,900
770,799,903
771,803,903
772,805,903
773,801,901
774,800,895
775,801,893
776,798,892
777,802,891
778,802,891
779,804,891
780,808,898
781,811,895
782,816,894
783,818,891
784,823,886
785,822,882
786,824,881
787,821,882
788,822,884
789,824,887
790,823,886
791,824,893
792,822,893
793,822,892
794,818,888
795,810,885
796,807,882
797,806,884
798,802,886
799,803,886
800,799,888
801,792,888
802,788,887
803,785,889
804,779,887
805,778,888
806,778,886
807,774,882
808,771,879
809,769,877
810,769,878
811,770,879
812,767,885
813,766,888
814,771,889
815,771,893
816,776,894
817,779,893
818,779,889
819,782,888
820,781,889
821,779,890
822,776,887
823,778,880
824,783,871
825,791,862
826,810,849
827,839,827
828,880,812
829,941,796
830,1011,780
831,1087,763
832,1173,747
833,1259,732
834,1346,723
835,1419,720
836,1476,732
837,1511,752
838,1523,779
839,1512,810
840,1468,838
841,1382,858
842,1254,867
843,1126,865
844,998,864
845,870,865
846,742,872
847,674,876
848,723,884
849,784,892
850,835,900
851,860,901
852,860,903
853,846,899
854,820,899
855,802,896
856,791,901
857,787,901
858,787,902
859,791,905
860,794,905
861,797,905
862,801,906
863,795,906
864,794,911
865,791,911
866,789,908
867,789,906
868,790,902
869,791,901
870,792,896
871,801,901
872,804,901
873,802,907
874,804,910
875,804,914
876,806,916
877,814,917
878,813,916
879,816,910
880,813,905
881,814,900
882,814,899
883,814,905
884,814,910
885,818,914
886,820,917
887,824,915
888,830,916
889,834,914
890,838,908
891,840,905
892,838,905
893,839,905
894,838,905
895,842,906
896,846,909
897,851,912
898,856,912
899,859,917
900,865,918
901,870,922
902,875,924
903,884,924
904,888,923
905,889,919
906,889,917
907,898,916
908,901,916
909,908,919
910,916,922
911,924,924
912,934,925
913,944,925
914,951,928
915,959,930
916,962,930
917,963,928
918,968,927
919,970,925
920,969,928
921,973,933
922,974,933
923,978,935
924,978,934
925,979,933
926,976,930
927,978,926
928,976,925
929,969,924
930,962,924
931,953,919
932,946,915
933,935,912
934,927,907
935,914,912
936,904,915
937,894,914
938,881,907
939,872,907
940,862,900
941,848,898
942,837,897
943,825,899
944,818,898
945,811,904
946,813,907
947,809,909
948,809,911
949,806,912
950,807,906
951,803,905
952,799,901
953,799,900
954,794,896
955,792,894
956,791,896
957,791,895
958,789,902
959,790,908
960,789,906
961,789,908
962,797,905
963,792,898
964,789,897
965,789,892
966,789,892
967,788,896
968,789,903
969,792,906
970,797,907
971,798,908
972,802,905
973,804,905
974,800,900
975,802,897
976,796,901
977,794,903
978,795,905
979,794,903
980,794,904
981,792,906
982,795,904
983,796,904
984,796,903
985,795,905
986,796,907
987,795,908
988,800,907
989,797,907
990,794,907
991,794,905
992,790,904
993,793,905
994,792,908
995,795,908
996,794,910
997,795,911
998,794,910
999,790,907
1000,786,906
1001,781,904
1002,779,903
1003,777,904
1004,782,904
1005,779,908
1006,780,909
1007,784,912
1008,784,910
1009,783,907
1010,785,905
1011,783,905
1012,779,903
1013,778,900
1014,777,904
1015,774,905
1016,772,908
1017,768,909
1018,773,914
1019,775,918
1020,779,915
1021,777,908
1022,775,904
1023,772,900
1024,769,901
1025,768,901
1026,763,905
1027,762,909
1028,762,908
1029,767,910
1030,767,912
1031,769,910
1032,772,915
1033,771,914
1034,772,912
1035,770,915
1036,769,911
1037,766,911
1038,764,909
1039,765,909
1040,766,915
1041,768,918
1042,773,922
1043,776,928
1044,780,931
1045,785,931
1046,787,926
1047,782,921
1048,781,921
1049,781,916
1050,779,917
1051,782,915
1052,782,917
1053,788,920
1054,792,920
1055,796,925
1056,800,920
1057,803,912
1058,805,910
1059,806,909
1060,804,907
1061,796,909
1062,795,915
1063,788,915
1064,782,918
1065,781,917
1066,781,919
1067,778,918
1068,781,916
1069,776,918
1070,772,917
1071,767,914
1072,760,914
1073,755,916
1074,754,918
1075,751,916
1076,747,916
1077,746,915
1078,743,917
1079,744,916
1080,749,919
1081,747,921
1082,751,922
1083,751,922
1084,750,922
1085,748,916
1086,746,915
1087,743,914
1088,743,915
1089,744,917
1090,746,922
1091,750,920
1092,756,920
1093,763,908
1094,780,891
1095,796,869
1096,823,849
1097,867,831
1098,929,810
1099,1009,795
1100,1100,779
1101,1207,768
1102,1311,768
1103,1404,784
1104,1469,813
1105,1490,841
1106,1450,865
1107,1340,883
1108,1212,893
1109,1084,893
1110,956,893
1111,828,893
1112,700,903
1113,629,910
1114,699,915
1115,768,925
1116,814,928
1117,828,929
1118,819,928
1119,799,925
1120,774,920
1121,753,915
1122,745,919
1123,743,922
1124,748,929
1125,754,934
1126,757,936
1127,762,939
1128,762,938
1129,764,933
1130,757,930
1131,759,926
1132,754,924
1133,756,925
1134,754,925
1135,757,927
1136,756,926
1137,756,931
1138,762,934
1139,763,935
1140,773,946
1141,773,944
1142,772,939
1143,775,940
1144,775,935
1145,774,934
1146,775,929
1147,776,932
1148,778,932
1149,780,934
1150,787,940
1151,787,945
1152,794,942
1153,798,941
1154,799,939
1155,799,934
1156,803,934
1157,803,934
1158,806,934
1159,808,934
1160,811,936
1161,814,942
1162,819,941
1163,822,940
1164,829,946
1165,829,943
1166,834,945
1167,833,944
1168,844,943
1169,849,943
1170,856,946
1171,860,948
1172,862,949
1173,869,949
1174,874,950
1175,883,953
1176,893,955
1177,902,954
1178,904,951
1179,905,948
1180,905,945
1181,908,947
1182,913,949
1183,915,948
1184,916,949
1185,923,949
1186,929,952
1187,934,953
1188,938,957
1189,938,958
1190,938,953
1191,935,956
1192,930,951
1193,925,949
1194,920,942
1195,910,942
1196,902,940
1197,889,947
1198,881,951
1199,876,951
1200,867,948
1201,857,948
1202,841,941
1203,831,935
1204,825,934
1205,817,930
1206,804,932
1207,793,935
1208,785,934
1209,779,937
1210,776,937
1211,772,936
1212,769,935
1213,765,933
1214,762,930
1215,757,928
1216,754,931
1217,748,930
1218,748,928
1219,745,930
1220,744,932
1221,747,931
1222,748,934
1223,745,932
1224,751,935
1225,751,932
1226,751,932
1227,750,928
1228,745,929
1229,746,929
1230,743,934
1231,741,932
1232,741,932
1233,744,935
1234,749,932
1235,751,933
1236,754,933
1237,755,929
1238,755,924
1239,754,926
1240,755,924
1241,753,924
1242,754,926
1243,753,926
1244,751,931
1245,750,934
1246,752,935
1247,755,935
1248,756,935
1249,758,933
1250,758,930
1251,757,933
1252,755,930
1253,752,929
1254,751,930
1255,751,929
1256,749,929
1257,751,931
1258,754,930
1259,754,931
1260,754,934
1261,752,935
1262,745,934
1263,743,930
1264,740,928
1265,740,926
1266,737,930
1267,741,927
1268,738,929
1269,737,931
1270,738,932
1271,743,932
1272,747,934
1273,747,931
1274,747,932
1275,743,930
1276,742,930
1277,740,927
1278,740,933
1279,735,932
1280,735,932
1281,735,934
1282,738,935
1283,737,935
1284,740,935
1285,739,935
1286,743,934
1287,741,932
1288,739,929
1289,742,928
1290,739,929
1291,737,926
1292,736,923
1293,735,929
1294,736,928
1295,736,934
1296,737,935
1297,737,936
1298,739,936
1299,736,933
1300,738,936
1301,739,936
1302,744,942
1303,743,943
1304,746,946
1305,752,951
1306,758,948
1307,759,951
1308,763,946
1309,762,946
1310,762,941
1311,762,939
1312,758,938
1313,759,935
1314,759,932
1315,758,933
1316,759,933
1317,757,935
1318,763,935
1319,769,940
1320,775,939
1321,781,940
1322,783,938
1323,785,937
1324,782,933
1325,778,927
1326,775,928
1327,769,928
1328,764,930
1329,763,929
1330,765,934
1331,765,934
1332,768,937
1333,765,936
1334,761,933
1335,757,929
1336,750,930
1337,743,928
1338,742,930
1339,741,930
1340,737,932
1341,738,927
1342,737,933
1343,737,931
1344,740,938
1345,738,939
1346,738,936
1347,739,929
1348,740,926
1349,739,924
1350,739,926
1351,737,934
1352,739,938
1353,742,940
1354,744,939
1355,747,937
1356,751,934
1357,756,922
1358,768,910
1359,778,895
1360,799,880
1361,831,864
1362,886,850
1363,946,834
1364,1027,820
1365,1118,806
1366,1210,798
1367,1303,797
1368,1393,808
1369,1448,831
1370,1461,862
1371,1424,886
1372,1319,906
1373,1191,912
1374,1063,913
1375,935,907
1376,807,914
1377,679,920
1378,605,927
1379,670,931
1380,740,933
1381,792,931
1382,814,933
1383,815,934
1384,804,935
1385,785,934
1386,771,934
1387,756,936
1388,752,934
1389,750,937
1390,753,937
1391,762,939
1392,763,944
1393,765,943
1394,765,945
1395,764,946
1396,763,940
1397,764,940
1398,766,939
1399,767,941
1400,767,938
1401,769,942
1402,772,943
1403,773,947
1404,779,946
1405,781,947
1406,781,949
1407,782,947
1408,780,946
1409,779,945
1410,780,943
1411,782,944
1412,786,944
1413,788,947
1414,797,951
1415,803,952
1416,807,950
1417,813,947
1418,814,942
1419,814,939
1420,813,941
1421,811,942
1422,812,947
1423,812,946
1424,812,952
1425,815,953
1426,825,956
1427,830,955
1428,836,955
1429,841,948
1430,851,949
1431,855,949
1432,858,947
1433,862,949
1434,865,953
1435,866,955
1436,867,956
1437,877,962
1438,885,962
1439,893,964
1440,902,965
1441,908,963
1442,915,963
1443,920,961
1444,923,961
1445,925,961
1446,931,962
1447,932,967
1448,935,970
1449,941,971
1450,945,973
1451,946,969
1452,950,969
1453,948,966
1454,946,964
1455,943,961
1456,940,960
1457,936,960
1458,930,962
1459,924,961
1460,917,961
1461,912,964
1462,903,960
1463,895,962
1464,889,963
1465,882,959
1466,873,956
1467,863,948
1468,851,943
1469,839,940
1470,829,943
1471,816,944
1472,808,943
1473,799,947
1474,793,944
1475,789,948
1476,790,947
1477,785,948
1478,781,946
1479,778,945
1480,773,940
1481,770,934
1482,767,933
1483,765,936
1484,759,939
1485,761,944
1486,760,943
1487,761,946
1488,768,945
1489,767,942
1490,769,943
1491,771,934
1492,768,933
1493,766,936
1494,768,936
1495,763,938
1496,762,942
1497,765,946
1498,772,943
1499,775,942
1500,777,943
1501,779,943
1502,779,944
1503,777,947
1504,779,942
1505,778,940
1506,779,937
1507,777,934
1508,774,933
1509,774,939
1510,776,940
1511,775,941
1512,778,943
1513,779,943
1514,780,942
1515,779,944
1516,777,944
1517,776,945
1518,774,946
1519,773,939
1520,770,936
1521,772,935
1522,774,934
1523,774,934
1524,776,935
1525,771,938
1526,772,945
1527,771,943
1528,769,946
1529,766,944
1530,761,941
1531,760,935
1532,758,932
1533,760,935
1534,760,934
1535,760,937
1536,763,943
1537,766,943
1538,764,945
1539,764,942
1540,764,937
1541,762,933
1542,758,934
1543,756,934
1544,754,939
1545,752,941
1546,755,945
1547,757,944
1548,759,947
1549,760,943
1550,760,945
1551,761,940
1552,758,938
1553,756,931
1554,756,926
1555,753,928
1556,754,930
1557,756,934
1558,758,941
1559,759,944
1560,758,947
1561,759,944
1562,758,943
1563,759,940
1564,756,935
1565,756,928
1566,752,928
1567,751,931
1568,749,935
1569,750,940
1570,748,945
1571,755,949
1572,760,953
1573,762,950
1574,766,947
1575,766,945
1576,768,944
1577,771,944
1578,771,947
1579,767,946
1580,769,949
1581,767,949
1582,768,952
1583,772,949
1584,777,944
1585,778,936
1586,781,931
1587,782,930
1588,784,933
1589,783,937
1590,783,938
1591,787,937
1592,793,942
1593,799,938
1594,800,941
1595,799,939
1596,799,939
1597,793,939
1598,787,936
1599,782,936
1600,776,931
1601,772,931
1602,770,933
1603,768,934
1604,766,933
1605,762,936
1606,756,933
1607,753,934
1608,751,938
1609,748,934
1610,749,930
1611,744,929
1612,740,929
1613,744,926
1614,743,930
1615,746,929
1616,744,925
1617,744,928
1618,742,930
1619,744,932
1620,750,936
1621,748,940
1622,750,946
1623,746,942
1624,745,941
1625,748,934
1626,750,922
1627,759,910
1628,772,902
1629,796,892
1630,832,877
1631,878,866
1632,936,850
1633,1007,827
1634,1084,806
1635,1166,786
1636,1258,774
1637,1349,770
1638,1422,781
1639,1472,811
1640,1486,841
1641,1454,877
1642,1358,897
1643,1230,909
1644,1102,913
1645,974,912
1646,846,915
1647,718,920
1648,649,923
1649,703,925
1650,766,930
1651,810,932
1652,826,938
1653,824,941
1654,806,945
1655,785,951
1656,768,951
1657,762,949
1658,756,948
1659,759,948
1660,759,945
1661,764,951
1662,762,950
1663,763,949
1664,760,952
1665,761,952
1666,764,954
1667,764,955
1668,765,953
1669,771,952
1670,771,950
1671,774,945
1672,772,941
1673,771,944
1674,770,942
1675,770,947
1676,772,945
1677,772,948
1678,776,951
1679,781,953
1680,784,953
1681,790,954
1682,791,955
1683,790,951
1684,789,953
1685,791,956
1686,789,954
1687,790,955
1688,793,958
1689,795,961
1690,799,957
1691,808,960
1692,808,956
1693,818,952
1694,818,947
1695,821,951
1696,821,950
1697,822,951
1698,824,951
1699,825,956
1700,829,958
1701,834,963
1702,837,965
1703,845,967
1704,853,967
1705,860,968
1706,866,969
1707,872,964
1708,877,962
1709,884,961
1710,890,959
1711,896,956
1712,899,958
1713,905,963
1714,913,970
1715,916,974
1716,922,975
1717,924,973
1718,934,975
1719,939,975
1720,939,971
1721,944,968
1722,944,967
1723,945,969
1724,948,972
1725,951,970
1726,952,972
1727,955,973
1728,957,972
1729,950,973
1730,944,968
1731,937,965
1732,927,960
1733,921,960
1734,914,957
1735,905,959
1736,894,958
1737,884,958
1738,878,959
1739,868,957
1740,864,963
1741,853,961
1742,843,954
1743,833,950
1744,817,944
1745,807,942
1746,800,939
1747,791,945
1748,785,948
1749,781,953
1750,779,955
1751,778,952
1752,778,950
1753,777,944
1754,773,942
1755,772,939
1756,772,943
1757,770,941
1758,771,950
1759,767,947
1760,767,950
1761,765,950
1762,764,950
1763,766,949
1764,766,952
1765,766,950
1766,771,951
1767,769,952
1768,769,948
1769,768,944
1770,770,940
1771,768,939
1772,770,944
1773,772,947
1774,775,952
1775,775,959
1776,779,958
1777,780,961
1778,780,954
1779,779,950
1780,777,946
1781,773,940
1782,770,943
1783,769,941
1784,768,945
1785,771,946
1786,773,951
1787,777,950
1788,779,952
1789,781,951
1790,775,951
1791,773,951
1792,772,948
1793,773,944
1794,770,941
1795,769,941
1796,768,942
1797,768,943
1798,767,946
1799,768,950
1800,770,952
1801,771,952
1802,773,950
1803,769,950
1804,767,950
1805,764,947
1806,758,948
1807,756,948
1808,754,947
1809,755,950
1810,757,945
1811,762,946
1812,761,944
1813,762,938
1814,758,946
1815,757,944
1816,756,949
1817,756,949
1818,756,949
1819,755,947
1820,749,947
1821,748,946
1822,749,945
1823,750,950
1824,748,950
1825,757,951
1826,757,953
1827,755,952
1828,755,944
1829,752,942
1830,751,941
1831,748,941
1832,748,943
1833,747,946
1834,751,947
1835,756,947
1836,757,952
1837,757,949
1838,753,951
1839,752,952
1840,754,952
1841,752,951
1842,757,950
1843,758,954
1844,759,955
1845,762,957
1846,765,961
1847,768,961
1848,771,962
1849,773,959
1850,772,953
1851,772,949
1852,770,947
1853,774,948
1854,772,950
1855,780,953
1856,780,955
1857,785,955
1858,789,958
1859,793,956
1860,797,955
1861,798,949
1862,796,948
1863,790,946
1864,782,945
1865,777,946
1866,772,948
1867,768,944
1868,769,944
1869,768,947
1870,767,946
1871,770,951
1872,767,951
1873,765,951
1874,758,951
1875,749,945
1876,742,943
1877,742,943
1878,736,945
1879,734,947
1880,736,947
1881,742,946
1882,746,948
1883,749,947
1884,753,950
1885,751,951
1886,753,953
1887,749,951
1888,746,951
1889,742,947
1890,741,949
1891,739,949
1892,741,952
1893,744,953
1894,747,950
1895,753,946
1896,760,944
1897,772,930
1898,787,917
1899,810,906
1900,837,887
1901,876,869
1902,924,857
1903,979,845
1904,1042,833
1905,1112,822
1906,1192,810
1907,1279,809
1908,1360,821
1909,1422,839
1910,1453,866
1911,1432,895
1912,1347,916
1913,1219,923
1914,1091,922
1915,963,914
1916,835,910
1917,707,920
1918,613,927
1919,661,938
1920,729,948
1921,780,957
1922,813,955
1923,820,956
1924,806,956
1925,786,953
1926,765,948
1927,754,947
1928,745,945
1929,747,948
1930,748,952
1931,756,952
1932,757,958
1933,757,960
1934,755,959
1935,752,960
1936,754,953
1937,756,952
1938,754,955
1939,756,953
1940,757,955
1941,761,957
1942,764,957
1943,767,956
1944,770,960
1945,771,960
1946,770,963
1947,769,958
1948,768,957
1949,768,957
1950,766,958
1951,768,954
1952,770,955
1953,772,957
1954,774,958
1955,781,962
1956,783,970
1957,789,969
1958,792,964
1959,793,957
1960,792,954
1961,794,949
1962,797,950
1963,795,960
1964,799,963
1965,803,970
1966,804,970
1967,811,971
1968,816,968
1969,823,964
1970,826,963
1971,830,959
1972,830,964
1973,831,960
1974,832,964
1975,833,963
1976,841,965
1977,847,967
1978,858,966
1979,865,973
1980,872,979
1981,881,984
1982,883,988
1983,887,983
1984,890,982
1985,896,978
1986,899,975
1987,905,969
1988,909,970
1989,909,968
1990,910,970
1991,915,980
1992,920,983
1993,921,985
1994,926,988
1995,926,984
1996,922,985
1997,921,978
1998,916,978
1999,915,977
2000,911,976
2001,909,975
2002,904,971
2003,899,970
2004,894,970
2005,884,969
2006,874,972
2007,864,970
2008,853,970
2009,845,965
2010,835,965
2011,822,966
2012,814,967
2013,806,970
2014,801,968
2015,792,963
2016,790,960
2017,788,955
2018,780,956
2019,776,950
2020,770,949
2021,765,946
2022,762,951
2023,760,950
2024,758,954
2025,757,955
2026,759,954
2027,757,957
2028,757,960
2029,760,959
2030,757,956
2031,757,957
2032,755,955
2033,755,953
2034,755,952
2035,753,949
2036,756,951
2037,756,952
2038,758,958
2039,760,957
2040,761,961
2041,762,957
2042,762,955
2043,761,948
2044,760,949
2045,758,948
2046,757,951
2047,754,949
2048,750,953
2049,754,957
2050,757,960
2051,763,959
2052,765,956
2053,769,955
2054,771,956
2055,769,953
2056,768,953
2057,765,952
2058,761,949
2059,762,953
2060,760,952
2061,762,955
2062,763,958
2063,765,958
2064,764,960
2065,766,955
2066,763,951
2067,763,950
2068,762,949
2069,760,946
2070,762,948
2071,761,945
2072,761,951
2073,757,952
2074,755,955
2075,751,956
2076,750,957
2077,749,955
2078,747,954
2079,748,949
2080,745,951
2081,746,946
2082,744,948
2083,744,947
2084,742,946
2085,740,947
2086,744,953
2087,743,956
2088,744,960
2089,746,956
2090,747,951
2091,744,948
2092,744,946
2093,742,945
2094,739,947
2095,741,945
2096,740,945
2097,741,947
2098,744,952
2099,743,952
2100,746,957
2101,748,955
2102,747,952
2103,747,950
2104,745,944
2105,741,944
2106,741,945
2107,742,945
2108,737,951
2109,734,950
2110,736,955
2111,737,954
2112,738,957
2113,743,960
2114,748,959
2115,749,961
2116,757,961
2117,760,958
2118,758,958
2119,758,958
2120,757,957
2121,756,960
2122,756,963
2123,755,962
2124,760,966
2125,761,966
2126,763,964
2127,762,955
2128,762,951
2129,763,948
2130,766,945
2131,774,947
2132,776,950
2133,777,957
2134,777,957
2135,780,958
2136,778,955
2137,777,952
2138,774,949
2139,772,950
2140,764,954
2141,759,950
2142,758,950
2143,761,950
2144,762,942
2145,756,944
2146,757,941
2147,753,943
2148,748,945
2149,744,946
2150,738,945
2151,733,943
2152,732,944
2153,729,946
2154,728,946
2155,728,947
2156,731,947
2157,731,948
2158,733,950
2159,735,952
2160,740,952
2161,742,954
2162,741,956
2163,739,959
2164,735,953
2165,731,949
2166,734,943
2167,741,933
2168,751,925
2169,771,912
2170,799,895
2171,837,880
2172,891,866
2173,958,848
2174,1033,833
2175,1118,817
2176,1200,801
2177,1282,793
2178,1353,797
2179,1404,807
2180,1437,828
2181,1443,856
2182,1406,882
2183,1317,901
2184,1189,908
2185,1061,917
2186,933,917
2187,805,919
2188,677,924
2189,625,934
2190,677,943
2191,734,949
2192,778,957
2193,795,957
2194,795,955
2195,780,954
2196,762,953
2197,750,951
2198,741,951
2199,739,952
2200,740,951
2201,742,951
2202,742,950
2203,743,954
2204,744,959
2205,745,962
2206,744,965
2207,747,965
2208,746,967
2209,754,966
2210,758,962
2211,759,957
2212,759,953
2213,758,951
2214,756,951
2215,759,954
2216,757,955
2217,755,956
2218,758,957
2219,760,963
2220,763,965
2221,767,967
2222,772,966
2223,771,968
2224,773,964
2225,773,962
2226,771,959
2227,776,956
2228,777,954
2229,779,955
2230,786,959
2231,791,966
2232,798,968
2233,802,973
2234,805,974
2235,806,977
2236,806,972
2237,809,969
2238,811,965
2239,816,963
2240,818,963
2241,823,956
2242,829,962
2243,833,965
2244,834,969
2245,841,973
2246,848,974
2247,855,977
2248,858,972
2249,863,978
2250,862,976
2251,871,978
2252,878,974
2253,882,977
2254,889,978
2255,895,980
2256,903,986
2257,905,985
2258,911,988
2259,911,987
2260,910,979
2261,907,978
2262,904,976
2263,903,978
2264,900,979
2265,901,981
2266,903,986
2267,905,990
2268,899,985
2269,903,981
2270,897,977
2271,889,975
2272,879,971
2273,866,967
2274,855,963
2275,843,960
2276,835,957
2277,827,956
2278,821,950
2279,812,949
2280,804,946
2281,803,948
2282,799,952
2283,792,951
2284,786,953
2285,782,950
2286,774,950
2287,773,947
2288,767,945
2289,765,946
2290,766,950
2291,765,952
2292,765,953
2293,767,953
2294,765,952
2295,763,946
2296,756,942
2297,756,951
2298,757,947
2299,756,948
2300,755,946
2301,755,948
2302,759,950
2303,762,952
2304,764,949
2305,766,948
2306,766,948
2307,765,946
2308,763,942
2309,759,945
2310,761,942
2311,761,941
2312,761,943
2313,762,943
2314,764,942
2315,769,948
2316,770,950
2317,766,952
2318,768,950
2319,768,950
2320,770,948
2321,769,944
2322,767,942
2323,764,938
2324,765,935
2325,767,940
2326,768,945
2327,768,947
2328,773,948
2329,774,949
2330,773,950
2331,773,950
2332,771,947
2333,768,948
2334,765,948
2335,766,947
2336,766,946
2337,763,945
2338,765,944
2339,763,944
2340,767,948
2341,768,947
2342,767,944
2343,768,942
2344,762,939
2345,759,940
2346,758,939
2347,757,940
2348,760,944
2349,760,946
2350,763,947
2351,764,944
2352,764,946
2353,762,942
2354,761,941
2355,757,942
2356,756,938
2357,757,941
2358,757,938
2359,755,940
2360,756,936
2361,755,938
2362,757,943
2363,761,944
2364,761,946
2365,762,945
2366,761,947
2367,765,945
2368,761,944
2369,759,940
2370,760,938
2371,757,942
2372,755,939
2373,757,941
2374,756,941
2375,759,944
2376,759,947
2377,762,948
2378,764,950
2379,764,951
2380,765,950
2381,766,951
2382,768,949
2383,768,952
2384,771,953
2385,774,952
2386,776,951
2387,777,951
2388,779,953
2389,780,954
2390,782,954
2391,782,953
2392,780,953
2393,779,949
2394,782,946
2395,781,945
2396,785,942
2397,788,947
2398,792,947
2399,799,951
2400,800,951
2401,799,952
2402,801,949
2403,795,947
2404,792,948
2405,789,943
2406,783,940
2407,781,940
2408,779,937
2409,781,934
2410,779,936
2411,782,938
2412,780,942
2413,777,943
2414,772,942
2415,768,940
2416,761,937
2417,755,935
2418,751,934
2419,747,935
2420,746,937
2421,747,936
2422,748,936
2423,750,938
2424,753,942
2425,756,947
2426,758,946
2427,758,942
2428,755,939
2429,755,938
2430,753,940
2431,757,940
2432,755,939
2433,758,938
2434,761,934
2435,766,924
2436,777,911
2437,797,891
2438,824,869
2439,866,852
2440,922,833
2441,994,813
2442,1072,798
2443,1161,783
2444,1254,777
2445,1350,777
2446,1428,789
2447,1481,809
2448,1502,835
2449,1479,856
2450,1405,871
2451,1282,882
2452,1154,888
2453,1026,889
2454,898,893
2455,770,899
2456,652,911
2457,668,921
2458,720,933
2459,773,943
2460,811,944
2461,827,940
2462,824,937
2463,807,934
2464,785,937
2465,771,938
2466,762,937
2467,762,939
2468,758,943
2469,764,950
2470,770,950
2471,774,950
2472,774,949
2473,773,947
2474,773,947
2475,771,946
2476,772,947
2477,770,946
2478,770,945
2479,772,943
2480,771,943
2481,775,947
2482,778,954
2483,781,957
2484,784,961
2485,786,962
2486,787,955
2487,787,950
2488,785,947
2489,787,946
2490,786,952
2491,786,957
2492,788,956
2493,791,956
2494,792,955
2495,797,951
2496,803,950
2497,808,952
2498,809,955
2499,810,952
2500,815,952
2501,814,953
2502,817,950
2503,816,949
2504,821,952
2505,822,955
2506,829,961
2507,833,963
2508,840,965
2509,850,963
2510,858,965
2511,861,964
2512,862,963
2513,865,966
2514,868,962
2515,877,963
2516,875,967
2517,880,971
2518,888,978
2519,895,977
2520,906,977
2521,913,977
2522,915,974
2523,919,972
2524,921,972
2525,927,974
2526,927,970
2527,930,973
2528,929,970
2529,931,975
2530,932,980
2531,931,979
2532,929,976
2533,927,979
2534,928,979
2535,923,975
2536,916,967
2537,907,960
2538,901,954
2539,893,950
2540,883,949
2541,872,955
2542,862,954
2543,853,955
2544,843,952
2545,840,946
2546,829,946
2547,821,942
2548,811,938
2549,803,934
2550,794,932
2551,787,931
2552,785,931
2553,779,934
2554,781,934
2555,780,935
2556,778,940
2557,777,941
2558,775,941
2559,771,938
2560,771,938
2561,768,933
2562,768,935
2563,765,932
2564,762,933
2565,761,934
2566,762,940
2567,766,937
2568,768,937
2569,768,941
2570,769,936
2571,771,938
2572,769,932
2573,766,929
2574,767,930
2575,766,926
2576,765,924
2577,768,928
2578,768,932
2579,771,934
2580,772,937
2581,775,941
2582,773,938
2583,774,938
2584,776,931
2585,774,929
2586,774,929
2587,774,930
2588,771,934
2589,771,939
2590,768,940
2591,771,942
2592,771,940
2593,775,938
2594,780,934
2595,780,931
2596,778,930
2597,776,930
2598,773,936
2599,770,933
2600,767,936
2601,767,935
2602,767,931
2603,771,931
2604,769,931
2605,770,931
2606,765,934
2607,764,935
2608,761,930
2609,760,931
2610,765,927
2611,766,923
2612,761,921
2613,761,924
2614,759,925
2615,763,931
2616,763,934
2617,766,937
2618,769,936
2619,770,931
2620,768,926
2621,764,927
2622,762,922
2623,760,923
2624,758,924
2625,757,918
2626,758,924
2627,760,923
2628,760,927
2629,759,926
2630,757,926
2631,759,926
2632,759,924
2633,759,927
2634,759,924
2635,760,924
2636,757,926
2637,758,924
2638,758,925
2639,760,923
2640,763,926
2641,764,925
2642,764,925
2643,761,926
2644,764,928
2645,761,924
2646,758,925
2647,755,927
2648,753,926
2649,754,929
2650,760,933
2651,769,935
2652,776,938
2653,779,940
2654,782,943
2655,782,944
2656,782,940
2657,778,937
2658,778,934
2659,776,929
2660,775,929
2661,778,933
2662,782,938
2663,786,940
2664,790,941
2665,796,938
2666,797,931
2667,796,928
2668,798,924
2669,797,921
2670,795,923
2671,791,924
2672,788,927
2673,787,928
2674,786,931
2675,786,929
2676,783,928
2677,788,927
2678,785,923
2679,783,921
2680,781,918
2681,776,915
2682,769,912
2683,764,915
2684,758,914
2685,753,917
2686,753,919
2687,751,921
2688,751,922
2689,754,922
2690,757,915
2691,756,913
2692,758,914
2693,755,916
2694,755,917
2695,752,917
2696,751,916
2697,751,917
2698,752,918
2699,757,923
2700,760,924
2701,763,925
2702,760,925
2703,760,925
2704,762,914
2705,766,906
2706,773,893
2707,789,878
2708,812,867
2709,842,852
2710,884,849
2711,935,840
2712,987,833
2713,1043,818
2714,1099,803
2715,1157,786
2716,1224,773
2717,1293,775
2718,1352,788
2719,1391,811
2720,1393,838
2721,1339,854
2722,1228,868
2723,1100,871
2724,972,876
2725,844,882
2726,716,891
2727,642,898
2728,669,906
2729,719,907
2730,773,909
2731,809,907
2732,820,911
2733,815,914
2734,804,915
2735,790,917
2736,779,920
2737,775,922
2738,772,920
2739,775,919
2740,774,919
2741,777,916
2742,774,910
2743,773,912
2744,771,913
2745,771,916
2746,772,920
2747,776,924
2748,777,926
2749,780,928
2750,776,924
2751,780,921
2752,780,916
2753,779,912
2754,783,910
2755,786,913
2756,785,914
2757,789,915
2758,792,920
2759,790,926
2760,798,928
2761,796,929
2762,802,928
2763,799,925
2764,800,921
2765,798,922
2766,802,920
2767,804,921
2768,807,921
2769,809,919
2770,813,921
2771,816,926
2772,821,925
2773,824,927
2774,827,929
2775,829,928
2776,833,927
2777,837,925
2778,840,926
2779,845,927
2780,846,928
2781,849,925
2782,853,926
2783,856,929
2784,861,934
2785,867,940
2786,874,939
2787,879,942
2788,882,938
2789,890,931
2790,894,931
2791,901,930
2792,903,932
2793,908,934
2794,914,937
2795,921,938
2796,926,943
2797,937,948
2798,942,946
2799,948,945
2800,952,945
2801,954,942
2802,955,943
2803,954,945
2804,954,942
2805,952,946
2806,954,943
2807,959,946
2808,961,947
2809,966,949
2810,965,946
2811,961,942
2812,957,936
2813,948,937
2814,935,934
2815,925,928
2816,915,930
2817,904,930
2818,898,928
2819,890,926
2820,882,930
2821,878,930
2822,871,927
2823,861,923
2824,852,917
2825,845,912
2826,838,910
2827,834,910
2828,827,907
2829,825,908
2830,826,915
2831,823,917
2832,822,919
2833,818,920
2834,815,919
2835,814,912
2836,810,911
2837,808,909
2838,809,903
2839,808,905
2840,807,908
2841,806,909
2842,806,914
2843,809,913
2844,809,914
2845,814,917
2846,816,912
2847,817,910
2848,814,908
2849,811,903
2850,810,901
2851,807,904
2852,808,904
2853,809,909
2854,812,909
2855,815,915
2856,817,918
2857,821,917
2858,822,914
2859,824,913
2860,823,914
2861,820,909
2862,820,906
2863,819,903
2864,819,903
2865,818,906
2866,818,907
2867,821,910
2868,827,913
2869,830,919
2870,831,917
2871,827,918
2872,825,914
2873,822,907
2874,822,906
2875,820,904
2876,817,902
2877,816,901
2878,818,901
2879,817,908
2880,816,911
2881,817,915
2882,820,916
2883,820,917
2884,818,914
2885,814,912
2886,814,910
2887,811,906
2888,812,904
2889,811,900
2890,812,901
2891,813,907
2892,816,904
2893,818,904
2894,815,908
2895,813,907
2896,810,905
2897,808,902
2898,807,900
2899,809,901
2900,806,904
2901,807,906
2902,807,907
2903,809,907
2904,810,907
2905,814,906
2906,813,903
2907,813,904
2908,812,900
2909,807,898
2910,805,896
2911,805,897
2912,806,900
2913,807,905
2914,808,907
2915,806,908
2916,809,905
2917,816,905
2918,813,903
2919,814,902
2920,810,905
2921,811,902
2922,813,906
2923,815,909
2924,819,913
2925,826,917
2926,826,920
2927,832,922
2928,832,919
2929,836,915
2930,840,910
2931,840,910
2932,837,909
2933,836,907
2934,832,909
2935,834,908
2936,836,906
2937,841,901
2938,846,902
2939,850,902
2940,850,900
2941,852,906
2942,849,908
2943,849,911
2944,849,911
2945,846,903
2946,843,902
2947,843,901
2948,835,898
2949,832,900
2950,828,903
2951,825,902
2952,820,905
2953,819,903
2954,815,903
2955,812,896
2956,812,891
2957,807,890
2958,804,890
2959,798,892
2960,795,894
2961,798,898
2962,799,899
2963,805,901
2964,806,900
2965,808,901
2966,807,901
2967,809,901
2968,805,901
2969,803,901
2970,798,898
2971,797,899
2972,797,897
2973,798,892
2974,807,890
2975,818,881
2976,835,873
2977,858,858
2978,888,839
2979,930,820
2980,982,800
2981,1048,776
2982,1121,762
2983,1202,745
2984,1290,735
2985,1371,734
2986,1444,744
2987,1493,765
2988,1511,790
2989,1487,817
2990,1404,836
2991,1276,850
2992,1148,857
2993,1020,860
2994,892,863
2995,764,872
2996,689,878
2997,739,890
2998,807,899
2999,864,897
3000,892,898
3001,894,896
3002,879,899
3003,855,897
3004,832,894
3005,817,896
3006,810,897
3007,807,897
3008,808,898
3009,812,905
3010,815,908
3011,818,910
3012,819,911
3013,821,913
3014,823,906
3015,824,903
3016,826,903
3017,826,899
3018,824,901
3019,824,903
3020,825,903
3021,821,902
3022,820,905
3023,823,908
3024,821,908
3025,826,910
3026,827,915
3027,831,913
3028,832,915
3029,832,915
3030,832,913
3031,834,911
3032,837,908
3033,840,904
3034,842,906
3035,844,911
3036,845,911
3037,850,918
3038,850,922
3039,851,919
3040,854,918
3041,850,914
3042,851,912
3043,856,911
3044,858,910
3045,862,913
3046,864,914
3047,869,918
3048,876,923
3049,883,926
3050,888,926
3051,891,931
3052,895,928
3053,897,923
3054,901,927
3055,902,925
3056,908,927
3057,914,928
3058,921,931
3059,926,932
3060,934,933
3061,938,935
3062,949,936
3063,956,935
3064,960,936
3065,963,932
3066,966,928
3067,966,927
3068,971,931
3069,973,932
3070,975,939
3071,979,939
3072,981,942
3073,988,946
3074,991,945
3075,991,937
3076,987,935
3077,984,932
3078,977,927
3079,973,926
3080,966,925
3081,958,924
3082,946,922
3083,940,924
3084,933,928
3085,924,926
3086,916,926
3087,907,921
3088,899,916
3089,887,909
3090,876,906
3091,873,901
3092,863,901
3093,860,902
3094,856,908
3095,850,907
3096,847,903
3097,842,901
3098,839,898
3099,834,893
3100,829,892
3101,826,891
3102,819,895
3103,819,895
3104,821,895
3105,816,894
3106,817,896
3107,823,899
3108,826,898
3109,828,900
3110,828,900
3111,830,900
3112,826,897
3113,827,895
3114,823,893
3115,822,890
3116,820,891
3117,822,894
3118,819,899
3119,822,903
3120,819,902
3121,822,903
3122,822,899
3123,822,900
3124,821,897
3125,822,896
3126,823,897
3127,825,896
3128,824,900
3129,824,902
3130,829,899
3131,828,899
3132,830,899
3133,832,896
3134,830,896
3135,828,895
3136,826,893
3137,820,894
3138,821,896
3139,822,899
3140,822,899
3141,821,900
3142,819,896
3143,822,899
3144,822,900
3145,826,899
3146,830,898
3147,828,894
3148,828,895
3149,823,889
3150,821,886
3151,818,891
3152,817,888
3153,818,891
3154,821,894
3155,822,896
3156,824,898
3157,826,899
3158,822,896
3159,817,894
3160,812,887
3161,812,887
3162,814,885
3163,813,888
3164,814,888
3165,818,890
3166,816,893
3167,814,893
3168,817,893
3169,816,896
3170,818,897
3171,820,899
3172,819,894
3173,814,892
3174,812,889
3175,813,887
3176,812,886
3177,814,881
3178,815,889
3179,815,884
3180,814,889
3181,816,891
3182,815,892
3183,810,896
3184,810,895
3185,809,892
3186,808,889
3187,806,886
3188,807,887
3189,808,889
3190,811,895
3191,814,900
3192,819,904
3193,827,908
3194,834,903
3195,836,904
3196,839,897
3197,841,898
3198,838,895
3199,839,894
3200,838,898
3201,836,899
3202,834,897
3203,835,902
3204,837,901
3205,840,905
3206,845,905
3207,853,900
3208,854,896
3209,857,896
3210,856,895
3211,852,895
3212,849,894
3213,847,890
3214,846,894
3215,846,893
3216,842,895
3217,841,891
3218,839,890
3219,838,888
3220,836,888
3221,831,887
3222,827,892
3223,824,890
3224,817,886
3225,810,886
3226,807,882
3227,804,880
3228,804,885
3229,805,888
3230,802,891
3231,803,890
3232,799,887
3233,798,886
3234,800,884
3235,799,884
3236,801,884
3237,799,884
3238,803,886
3239,804,890
3240,806,891
3241,807,894
3242,810,892
3243,809,890
3244,808,885
3245,814,874
3246,825,858
3247,848,833
3248,885,811
3249,942,786
3250,1016,763
3251,1111,746
3252,1215,730
3253,1322,722
3254,1417,726
3255,1486,739
3256,1519,762
3257,1504,788
3258,1427,811
3259,1299,824
3260,1171,834
3261,1043,837
3262,915,845
3263,787,855
3264,663,868
3265,718,877
3266,793,885
3267,855,892
3268,886,894
3269,887,891
3270,869,888
3271,842,887
3272,822,880
3273,807,881
3274,802,885
3275,803,892
3276,807,892
3277,811,901
3278,817,903
3279,813,896
3280,814,895
3281,813,889
3282,813,887
3283,814,885
3284,812,888
3285,815,892
3286,813,895
3287,814,898
3288,819,899
3289,822,898
3290,821,899
3291,823,901
3292,827,899
3293,828,898
3294,828,896
3295,828,894
3296,829,892
3297,831,895
3298,831,902
3299,837,909
3300,843,913
3301,845,914
3302,847,913
3303,851,907
3304,850,898
3305,854,896
3306,851,897
3307,849,896
3308,852,902
3309,853,901
3310,856,910
3311,860,912
3312,864,913
3313,869,911
3314,876,911
3315,881,914
3316,887,914
3317,889,916
3318,896,915
3319,898,914
3320,903,915
3321,909,916
3322,913,920
3323,920,920
3324,929,919
3325,933,922
3326,939,924
3327,941,927
3328,943,930
3329,946,929
3330,950,929
3331,957,927
3332,962,924
3333,964,925
3334,970,925
3335,976,927
3336,980,929
3337,984,928
3338,987,928
3339,986,924
3340,985,923
3341,985,922
3342,981,925
3343,977,923
3344,974,924
3345,967,924
3346,963,921
3347,956,918
3348,953,915
3349,947,912
3350,938,910
3351,930,904
3352,920,902
3353,910,899
3354,903,900
3355,892,898
3356,883,894
3357,875,891
3358,868,894
3359,861,895
3360,855,897
3361,852,901
3362,848,900
3363,844,896
3364,839,891
3365,835,884
3366,831,881
3367,830,879
3368,829,880
3369,825,885
3370,826,890
3371,828,890
3372,826,891
3373,827,892
3374,828,887
3375,827,886
3376,825,882
3377,819,883
3378,816,882
3379,816,888
3380,817,888
3381,817,890
3382,814,889
3383,812,888
3384,818,883
3385,822,885
3386,822,884
3387,823,886
3388,822,889
3389,822,891
3390,821,886
3391,823,885
3392,823,882
3393,823,882
3394,822,882
3395,825,886
3396,823,892
3397,825,893
3398,825,893
3399,821,888
3400,824,887
3401,823,884
3402,821,880
3403,819,886
3404,820,890
3405,822,891
3406,825,892
3407,825,893
3408,824,891
3409,826,891
3410,828,885
3411,825,880
3412,823,882
3413,820,878
3414,820,875
3415,818,877
3416,815,878
3417,815,887
3418,812,891
3419,814,888
3420,810,892
3421,812,896
3422,816,892
3423,813,890
3424,812,885
3425,813,880
3426,809,879
3427,807,879
3428,805,881
3429,803,884
3430,801,885
3431,803,885
3432,803,888
3433,804,888
3434,806,889
3435,801,885
3436,799,884
3437,798,885
3438,797,884
3439,795,884
3440,796,882
3441,800,881
3442,801,885
3443,804,883
3444,802,885
3445,799,888
3446,800,889
3447,800,890
3448,799,891
3449,799,888
3450,794,885
3451,793,886
3452,788,888
3453,788,882
3454,790,884
3455,795,884
3456,797,888
3457,799,889
3458,799,893
3459,803,893
3460,801,893
3461,802,890
3462,804,893
3463,804,891
3464,810,893
3465,812,889
3466,814,893
3467,815,898
3468,815,898
3469,817,903
3470,814,901
3471,816,897
3472,813,894
3473,816,890
3474,816,888
3475,819,888
3476,823,885
3477,824,887
3478,827,889
3479,831,892
3480,836,890
3481,837,892
3482,838,893
3483,833,891
3484,833,893
3485,829,892
3486,823,893
3487,821,890
3488,817,886
3489,814,882
3490,813,882
3491,815,884
3492,812,884
3493,808,888
3494,807,890
3495,799,884
3496,792,880
3497,783,874
3498,777,872
3499,773,872
3500,771,877
3501,770,882
3502,775,886
3503,780,887
3504,783,884
3505,786,884
3506,785,881
3507,787,879
3508,790,881
3509,790,877
3510,792,883
3511,788,882
3512,788,885
3513,785,886
3514,785,886
3515,780,884
3516,784,876
3517,789,868
3518,802,855
3519,829,838
3520,863,815
3521,914,796
3522,978,778
3523,1053,756
3524,1144,743
3525,1238,729
3526,1338,717
3527,1424,719
3528,1486,727
3529,1521,746
3530,1526,769
3531,1493,800
3532,1410,818
3533,1282,827
3534,1154,834
3535,1026,837
3536,898,844
3537,770,855
3538,678,868
3539,733,883
3540,793,890
3541,837,895
3542,853,898
3543,847,890
3544,827,887
3545,804,883
3546,787,884
3547,780,879
3548,781,885
3549,781,889
3550,788,890
3551,791,893
3552,795,894
3553,795,902
3554,795,899
3555,792,897
3556,792,897
3557,792,891
3558,790,894
3559,791,893
3560,789,896
3561,791,899
3562,792,900
3563,797,901
3564,800,902
3565,804,905
3566,807,904
3567,808,900
3568,809,897
3569,806,897
3570,807,894
3571,807,895
3572,809,894
3573,811,897
3574,807,899
3575,811,905
3576,811,903
3577,817,905
3578,822,904
3579,827,903
3580,831,903
3581,835,901
3582,838,903
3583,838,903
3584,839,902
3585,841,904
3586,842,904
3587,848,903
3588,852,904
3589,860,904
3590,865,907
3591,869,910
3592,872,911
3593,875,912
3594,878,912
3595,879,915
3596,881,917
3597,889,917
3598,897,919
3599,903,923
3600,912,920
3601,917,923
3602,926,922
3603,930,926
3604,930,923
3605,932,923
3606,931,921
3607,932,920
3608,935,920
3609,938,919
3610,940,920
3611,943,920
3612,943,922
3613,944,920
3614,946,920
3615,944,918
3616,940,918
3617,935,912
3618,930,909
3619,921,908
3620,909,907
3621,903,906
3622,891,903
3623,884,905
3624,876,898
3625,866,904
3626,861,903
3627,851,900
3628,843,898
3629,836,896
3630,828,894
3631,821,891
3632,815,891
3633,810,888
3634,806,890
3635,806,887
3636,805,888
3637,800,890
3638,803,891
3639,798,892
3640,797,892
3641,797,891
3642,792,891
3643,792,889
3644,790,886
3645,791,887
3646,791,885
3647,791,887
3648,797,890
3649,799,891
3650,803,890
3651,800,892
3652,801,892
3653,800,890
3654,795,887
3655,797,888
3656,797,887
3657,798,886
3658,796,889
3659,799,893
3660,802,896
3661,803,897
3662,807,897
3663,809,895
3664,807,894
3665,806,890
3666,803,886
3667,799,885
3668,800,880
3669,801,883
3670,799,884
3671,798,886
3672,800,888
3673,800,890
3674,805,889
3675,806,886
3676,806,886
3677,804,889
3678,802,887
3679,800,885
3680,798,889
3681,797,888
3682,796,885
3683,798,887
3684,795,886
3685,794,889
3686,793,886
3687,793,887
3688,793,886
3689,791,886
3690,791,884
3691,790,883
3692,786,884
3693,789,882
3694,788,888
3695,792,883
3696,791,885
3697,791,883
3698,793,887
3699,794,888
3700,791,888
3701,787,882
3702,787,882
3703,785,881
3704,783,882
3705,786,879
3706,785,879
3707,788,878
3708,787,884
3709,790,888
3710,788,892
3711,785,888
3712,785,889
3713,784,885
3714,785,881
3715,782,881
3716,783,884
3717,780,888
3718,781,886
3719,783,889
3720,784,887
3721,786,889
3722,790,886
3723,788,889
3724,787,891
3725,786,887
3726,784,886
3727,777,889
3728,782,888
3729,784,889
3730,788,889
3731,791,893
3732,796,891
3733,802,893
3734,805,894
3735,805,896
3736,804,898
3737,803,894
3738,804,891
3739,801,890
3740,803,890
3741,801,892
3742,805,894
3743,808,896
3744,813,898
3745,817,900
3746,823,898
3747,826,893
3748,827,887
3749,824,883
3750,819,880
3751,816,882
3752,813,884
3753,812,887
3754,813,887
3755,813,884
3756,814,885
3757,814,884
3758,810,884
3759,809,885
3760,804,885
3761,799,885
3762,793,882
3763,788,880
3764,785,878
3765,781,872
3766,777,871
3767,773,875
3768,770,880
3769,771,885
3770,772,884
3771,775,884
3772,781,880
3773,783,878
3774,779,877
3775,777,881
3776,779,882
3777,777,885
3778,779,887
3779,780,887
3780,776,889
3781,775,886
3782,778,882
3783,782,881
3784,792,874
3785,808,858
3786,830,847
3787,861,825
3788,901,809
3789,954,790
3790,1025,769
3791,1103,763
3792,1190,749
3793,1286,743
3794,1375,744
3795,1445,747
3796,1483,768
3797,1487,786
3798,1442,809
3799,1346,823
3800,1218,832
3801,1090,840
3802,962,850
3803,834,854
3804,706,865
3805,689,875
3806,744,882
3807,800,888
3808,845,890
3809,862,890
3810,860,888
3811,843,888
3812,827,888
3813,810,891
3814,798,891
3815,794,892
3816,794,898
3817,799,902
3818,799,903
3819,805,906
3820,806,901
3821,804,900
3822,802,897
3823,800,896
3824,802,894
3825,801,898
3826,804,900
3827,807,902
3828,808,905
3829,813,904
3830,817,903
3831,817,902
3832,816,903
3833,816,900
3834,817,898
3835,817,900
3836,818,899
3837,818,903
3838,820,899
3839,823,906
3840,825,907
3841,829,910
3842,833,909
3843,837,908
3844,832,907
3845,836,904
3846,838,904
3847,840,902
3848,842,904
3849,847,905
3850,851,909
3851,855,912
3852,859,911
3853,863,914
3854,872,914
3855,871,912
3856,874,907
3857,875,903
3858,880,908
3859,876,907
3860,880,912
3861,884,915
3862,890,917
3863,898,919
3864,905,919
3865,914,921
3866,924,922
3867,934,921
3868,938,919
3869,941,920
3870,942,922
3871,941,919
3872,944,919
3873,945,917
3874,947,917
3875,953,919
3876,956,922
3877,956,925
3878,960,926
3879,963,923
3880,960,926
3881,960,921
3882,960,917
3883,957,915
3884,955,915
3885,949,913
3886,944,913
3887,939,912
3888,931,913
3889,925,909
3890,917,905
3891,909,904
3892,899,899
3893,889,895
3894,879,893
3895,870,891
3896,864,890
3897,853,889
3898,848,890
3899,845,891
3900,842,891
3901,839,894
3902,838,892
3903,831,897
3904,826,895
3905,825,891
3906,819,888
3907,818,887
3908,814,888
3909,813,890
3910,809,890
3911,810,895
3912,810,893
3913,814,894
3914,818,890
3915,816,887
3916,816,883
3917,815,884
3918,812,881
3919,810,881
3920,809,884
3921,812,881
3922,812,885
3923,814,886
3924,816,889
3925,818,890
3926,819,892
3927,821,891
3928,820,888
3929,816,885
3930,817,884
3931,817,879
3932,817,879
3933,814,879
3934,816,881
3935,820,883
3936,825,888
3937,825,892
3938,826,891
3939,828,887
3940,828,885
3941,826,880
3942,824,878
3943,821,879
3944,818,880
3945,815,880
3946,815,881
3947,813,884
3948,814,883
3949,816,885
3950,820,889
3951,819,891
3952,818,886
3953,815,881
3954,815,878
3955,815,873
3956,815,874
3957,811,872
3958,805,876
3959,807,872
3960,806,876
3961,811,881
3962,813,882
3963,813,885
3964,808,883
3965,812,879
3966,811,875
3967,807,872
3968,804,870
3969,802,871
3970,802,876
3971,802,878
3972,805,885
3973,806,888
3974,807,888
3975,806,889
3976,807,886
3977,807,882
3978,804,880
3979,800,881
3980,799,874
3981,797,873
3982,798,872
3983,801,871
3984,805,872
3985,805,875
3986,807,881
3987,808,883
3988,805,879
3989,803,876
3990,801,871
3991,796,870
3992,795,873
3993,798,872
3994,797,876
3995,797,879
3996,797,882
3997,801,888
3998,807,891
3999,809,891
4000,815,893
4001,817,892
4002,818,889
4003,819,886
4004,822,882
4005,821,884
4006,820,883
4007,825,887
4008,824,892
4009,828,890
4010,830,890
4011,828,889
4012,827,885
4013,827,888
4014,830,886
4015,829,883
4016,837,881
4017,838,877
4018,838,879
4019,842,884
4020,842,888
4021,840,890
4022,843,890
4023,841,885
4024,836,875
4025,834,871
4026,829,867
4027,826,867
4028,822,867
4029,818,870
4030,810,875
4031,805,880
4032,800,878
4033,800,878
4034,800,879
4035,796,877
4036,795,874
4037,789,874
4038,787,870
4039,785,868
4040,786,869
4041,784,869
4042,787,869
4043,790,872
4044,791,877
4045,792,882
4046,796,879
4047,798,883
4048,796,881
4049,796,881
4050,790,876
4051,789,874
4052,789,867
4053,786,863
4054,792,854
4055,806,846
4056,831,829
4057,869,808
4058,919,786
4059,988,766
4060,1060,747
4061,1144,729
4062,1229,716
4063,1315,699
4064,1396,692
4065,1457,694
4066,1498,699
4067,1519,721
4068,1516,746
4069,1493,772
4070,1442,794
4071,1343,814
4072,1215,823
4073,1087,829
4074,959,832
4075,831,842
4076,703,847
4077,701,861
4078,754,864
4079,812,874
4080,854,876
4081,871,875
4082,864,876
4083,848,871
4084,825,866
4085,806,866
4086,793,865
4087,791,868
4088,793,876
4089,796,878
4090,798,882
4091,802,881
4092,805,884
4093,803,880
4094,805,879
4095,805,880
4096,799,875
4097,798,874
4098,798,877
4099,797,880
4100,797,880
4101,797,875
4102,796,877
4103,799,878
4104,803,881
4105,807,884
4106,811,888
4107,815,886
4108,816,889
4109,820,883
4110,820,878
4111,818,877
4112,820,877
4113,819,877
4114,821,877
4115,823,880
4116,827,886
4117,828,891
4118,832,897
4119,836,895
4120,835,893
4121,839,892
4122,841,887
4123,842,886
4124,844,886
4125,846,887
4126,849,889
4127,853,892
4128,857,893
4129,862,896
4130,870,896
4131,875,898
4132,875,900
4133,880,896
4134,883,896
4135,885,895
4136,889,897
4137,893,896
4138,895,897
4139,904,903
4140,911,903
4141,915,907
4142,923,909
4143,930,910
4144,934,910
4145,938,910
4146,942,909
4147,944,905
4148,947,907
4149,947,907
4150,950,908
4151,953,911
4152,959,912
4153,961,906
4154,965,910
4155,965,904
4156,966,902
4157,961,899
4158,954,897
4159,954,897
4160,953,899
4161,945,900
4162,942,902
4163,937,903
4164,932,899
4165,928,896
4166,924,891
4167,916,890
4168,901,885
4169,892,878
4170,879,875
4171,867,875
4172,859,873
4173,849,873
4174,844,874
4175,837,877
4176,835,878
4177,830,877
4178,829,877
4179,824,874
4180,823,871
4181,819,867
4182,815,869
4183,811,866
4184,808,868
4185,803,866
4186,800,868
4187,801,870
4188,800,872
4189,801,874
4190,808,878
4191,807,874
4192,807,869
4193,805,867
4194,803,867
4195,804,863
4196,804,861
4197,804,864
4198,805,865
4199,806,867
4200,808,871
4201,807,876
4202,811,878
4203,813,879
4204,813,873
4205,813,873
4206,812,869
4207,809,866
4208,807,864
4209,805,865
4210,807,865
4211,809,868
4212,811,873
4213,816,871
4214,818,876
4215,821,875
4216,821,874
4217,820,872
4218,815,871
4219,815,867
4220,812,866
4221,812,863
4222,808,865
4223,810,868
4224,816,872
4225,818,875
4226,819,880
4227,822,880
4228,820,877
4229,818,873
4230,816,870
4231,817,869
4232,812,866
4233,810,868
4234,808,870
4235,810,870
4236,810,872
4237,811,872
4238,813,875
4239,813,874
4240,809,872
4241,810,867
4242,806,867
4243,804,862
4244,802,861
4245,798,861
4246,801,859
4247,802,865
4248,805,869
4249,808,872
4250,807,872
4251,806,873
4252,808,872
4253,804,868
4254,803,865
4255,804,864
4256,801,863
4257,798,866
4258,797,868
4259,799,872
4260,802,875
4261,802,875
4262,805,874
4263,805,871
4264,806,873
4265,802,871
4266,802,869
4267,799,865
4268,800,864
4269,798,868
4270,800,868
4271,796,875
4272,798,876
4273,799,877
4274,799,878
4275,800,876
4276,800,876
4277,802,875
4278,804,872
4279,807,873
4280,810,871
4281,815,873
4282,817,877
4283,820,880
4284,825,882
4285,824,883
4286,824,886
4287,826,883
4288,828,882
4289,829,881
4290,830,882
4291,834,877
4292,839,876
4293,842,875
4294,847,871
4295,848,873
4296,848,873
4297,845,881
4298,847,876
4299,844,879
4300,842,879
4301,839,872
4302,834,869
4303,831,869
4304,824,864
4305,822,867
4306,815,866
4307,815,867
4308,812,870
4309,813,870
4310,814,872
4311,812,869
4312,807,869
4313,801,866
4314,791,862
4315,793,861
4316,790,861
4317,790,866
4318,789,865
4319,790,868
4320,790,870
4321,790,873
4322,792,873
4323,794,872
4324,798,873
4325,797,872
4326,796,877
4327,795,876
4328,793,872
4329,792,866
4330,793,864
4331,798,859
4332,808,850
4333,823,839
4334,850,827
4335,892,810
4336,947,792
4337,1011,773
4338,1085,755
4339,1157,740
4340,1232,725
4341,1310,712
4342,1376,704
4343,1439,712
4344,1485,726
4345,1506,754
4346,1495,781
4347,1445,806
4348,1335,824
4349,1207,832
4350,1079,838
4351,951,837
4352,823,842
4353,695,852
4354,713,863
4355,784,871
4356,844,875
4357,879,880
4358,887,880
4359,873,878
4360,848,880
4361,826,879
4362,807,876
4363,801,875
4364,800,877
4365,802,879
4366,805,881
4367,805,884
4368,806,884
4369,807,887
4370,808,888
4371,809,888
4372,810,888
4373,812,888
4374,811,885
4375,814,885
4376,812,885
4377,814,884
4378,816,884
4379,818,885
4380,823,890
4381,825,890
4382,827,892
4383,826,894
4384,825,887
4385,818,891
4386,820,890
4387,821,889
4388,825,887
4389,827,887
4390,829,884
4391,834,890
4392,839,891
4393,841,894
4394,846,896
4395,848,895
4396,848,892
4397,853,892
4398,854,888
4399,856,891
4400,857,891
4401,857,895
4402,860,902
4403,867,901
4404,873,903
4405,879,905
4406,888,909
4407,894,906
4408,901,906
4409,903,905
4410,907,901
4411,912,901
4412,913,900
4413,918,902
4414,926,905
4415,932,909
4416,943,913
4417,950,916
4418,958,919
4419,963,916
4420,967,912
4421,969,907
4422,975,909
4423,974,910
4424,975,913
4425,972,914
4426,972,916
4427,974,918
4428,974,916
4429,975,917
4430,977,917
4431,977,918
4432,975,915
4433,969,907
4434,960,902
4435,951,898
4436,942,893
4437,932,888
4438,923,890
4439,912,890
4440,904,891
4441,898,890
4442,889,891
4443,883,890
4444,877,886
4445,867,884
4446,858,881
4447,849,877
4448,842,875
4449,835,879
4450,834,881
4451,833,885
4452,831,883
4453,829,885
4454,830,885
4455,827,882
4456,819,880
4457,818,877
4458,814,874
4459,809,870
4460,806,872
4461,804,872
4462,803,875
4463,809,877
4464,813,877
4465,814,877
4466,819,876
4467,819,879
4468,818,877
4469,815,875
4470,813,877
4471,810,876
4472,809,876
4473,809,873
4474,813,878
4475,815,876
4476,815,878
4477,817,880
4478,817,875
4479,819,877
4480,819,879
4481,821,874
4482,820,871
4483,821,878
4484,820,876
4485,819,878
4486,818,878
4487,816,883
4488,816,881
4489,820,884
4490,823,884
4491,825,878
4492,821,880
4493,824,876
4494,821,877
4495,816,877
4496,815,875
4497,813,874
4498,813,875
4499,817,876
4500,817,881
4501,819,883
4502,821,888
4503,822,888
4504,823,887
4505,823,882
4506,816,878
4507,809,874
4508,802,873
4509,799,872
4510,800,874
4511,800,878
4512,802,883
4513,806,888
4514,811,889
4515,812,886
4516,811,876
4517,808,876
4518,805,876
4519,801,871
4520,799,872
4521,797,872
4522,797,876
4523,796,882
4524,798,881
4525,799,881
4526,803,883
4527,805,885
4528,805,884
4529,803,883
4530,802,880
4531,800,879
4532,801,877
4533,801,875
4534,799,877
4535,795,880
4536,799,880
4537,799,881
4538,800,881
4539,802,882
4540,801,880
4541,798,877
4542,798,877
4543,795,880
4544,791,881
4545,790,884
4546,794,884
4547,794,888
4548,796,890
4549,800,892
4550,805,896
4551,807,892
4552,817,892
4553,817,892
4554,820,893
4555,820,887
4556,821,892
4557,818,890
4558,818,894
4559,817,895
4560,821,896
4561,821,898
4562,825,897
4563,832,894
4564,838,889
4565,839,886
4566,838,880
4567,835,883
4568,830,882
4569,829,882
4570,825,884
4571,828,887
4572,825,887
4573,827,888
4574,824,887
4575,823,890
4576,819,891
4577,817,886
4578,811,882
4579,802,877
4580,797,874
4581,792,870
4582,786,867
4583,780,871
4584,779,879
4585,779,882
4586,779,885
4587,781,887
4588,779,882
4589,783,879
4590,784,878
4591,783,876
4592,781,876
4593,784,875
4594,779,879
4595,780,883
4596,782,887
4597,784,890
4598,786,892
4599,788,888
4600,788,882
4601,787,871
4602,792,859
4603,801,848
4604,824,834
4605,861,818
4606,910,801
4607,980,787
4608,1052,769
4609,1132,759
4610,1209,748
4611,1292,735
4612,1365,729
4613,1431,726
4614,1471,733
4615,1489,755
4616,1473,779
4617,1426,808
4618,1327,830
4619,1199,843
4620,1071,851
4621,943,856
4622,815,863
4623,687,870
4624,703,876
4625,761,882
4626,817,885
4627,851,887
4628,857,890
4629,846,886
4630,824,885
4631,804,886
4632,790,889
4633,783,891
4634,782,892
4635,788,894
4636,789,896
4637,789,896
4638,790,895
4639,790,892
4640,788,893
4641,785,890
4642,787,889
4643,787,893
4644,789,893
4645,794,893
4646,798,897
4647,800,897
4648,801,900
4649,798,898
4650,797,899
4651,795,897
4652,796,896
4653,800,897
4654,804,894
4655,804,893
4656,804,894
4657,806,901
4658,808,902
4659,811,902
4660,815,906
4661,814,901
4662,817,903
4663,814,901
4664,816,898
4665,819,897
4666,823,896
4667,826,897
4668,832,901
4669,839,909
4670,842,916
4671,846,918
4672,850,917
4673,852,916
4674,853,909
4675,851,907
4676,856,904
4677,860,903
4678,858,905
4679,866,908
4680,873,908
4681,880,912
4682,889,917
4683,893,917
4684,904,920
4685,904,917
4686,911,917
4687,914,917
4688,916,917
4689,915,914
4690,918,917
4691,926,919
4692,933,923
4693,935,924
4694,945,927
4695,951,928
4696,956,930
4697,955,925
4698,956,923
4699,952,918
4700,951,917
4701,948,918
4702,944,917
4703,939,918
4704,936,923
4705,931,924
4706,924,925
4707,916,921
4708,904,919
4709,895,915
4710,882,907
4711,873,900
4712,863,899
4713,854,895
4714,847,894
4715,840,897
4716,834,900
4717,826,901
4718,820,900
4719,813,901
4720,808,899
4721,803,896
4722,795,892
4723,791,887
4724,787,886
4725,785,887
4726,784,886
4727,785,891
4728,782,894
4729,782,896
4730,783,897
4731,787,896
4732,787,891
4733,792,889
4734,789,885
4735,782,888
4736,780,888
4737,773,890
4738,773,891
4739,775,892
4740,777,897
4741,781,901
4742,785,900
4743,787,898
4744,787,899
4745,787,893
4746,787,894
4747,786,886
4748,783,885
4749,782,884
4750,781,886
4751,781,890
4752,782,895
4753,786,895
4754,786,896
4755,787,898
4756,788,895
4757,789,891
4758,787,892
4759,784,889
4760,783,890
4761,784,889
4762,783,894
4763,782,894
4764,782,894
4765,785,898
4766,783,899
4767,785,897
4768,783,899
4769,783,896
4770,783,896
4771,783,893
4772,785,891
4773,781,888
4774,778,889
4775,777,889
4776,772,888
4777,771,888
4778,769,891
4779,769,896
4780,769,894
4781,772,891
4782,771,892
4783,771,890
4784,764,888
4785,764,887
4786,761,885
4787,761,886
4788,762,889
4789,768,893
4790,771,895
4791,774,895
4792,771,894
4793,769,890
4794,762,886
4795,760,882
4796,757,885
4797,759,886
4798,759,888
4799,759,890
4800,760,892
4801,761,895
4802,765,893
4803,767,893
4804,768,892
4805,767,890
4806,765,890
4807,763,890
4808,760,889
4809,759,886
4810,760,887
4811,758,889
4812,758,892
4813,763,891
4814,763,894
4815,767,898
4816,769,896
4817,772,895
4818,773,894
4819,775,893
4820,771,891
4821,771,895
4822,771,900
4823,771,904
4824,772,906
4825,779,908
4826,784,903
4827,788,903
4828,787,896
4829,786,895
4830,784,897
4831,784,892
4832,785,897
4833,789,893
4834,789,892
4835,790,891
4836,790,893
4837,792,895
4838,792,898
4839,792,895
4840,794,893
4841,793,891
4842,793,894
4843,790,891
4844,786,890
4845,786,891
4846,785,886
4847,783,888
4848,782,887
4849,779,885
4850,777,890
4851,774,892
4852,769,891
4853,763,886
4854,760,885
4855,753,878
4856,748,878
4857,752,879
4858,750,878
4859,753,886
4860,756,893
4861,760,894
4862,755,896
4863,754,894
4864,751,892
4865,751,889
4866,748,886
4867,750,887
4868,751,890
4869,752,894
4870,754,895
4871,756,896
4872,758,893
4873,762,894
4874,769,886
4875,787,872
4876,808,859
4877,843,843
4878,888,822
4879,944,807
4880,1011,787
4881,1082,775
4882,1163,765
4883,1249,753
4884,1333,748
4885,1401,750
4886,1452,764
4887,1470,780
4888,1457,803
4889,1400,824
4890,1292,836
4891,1164,839
4892,1036,838
4893,908,840
4894,780,847
4895,652,857
4896,652,869
4897,700,880
4898,751,884
4899,794,885
4900,814,887
4901,817,887
4902,807,885
4903,797,890
4904,786,888
4905,775,894
4906,770,889
4907,769,887
4908,770,888
4909,772,887
4910,774,892
4911,780,893
4912,779,894
4913,778,893
4914,775,890
4915,772,887
4916,771,885
4917,774,885
4918,775,884
4919,777,886
4920,781,893
4921,782,896
4922,790,897
4923,795,895
4924,799,889
4925,797,889
4926,793,886
4927,793,890
4928,790,891
4929,791,894
4930,794,897
4931,797,896
4932,800,893
4933,803,891
4934,806,894
4935,805,893
4936,806,894
4937,806,892
4938,811,893
4939,811,892
4940,813,892
4941,814,891
4942,812,893
4943,816,894
4944,820,897
4945,830,899
4946,833,902
4947,842,904
4948,847,901
4949,846,894
4950,852,895
4951,849,893
4952,850,893
4953,855,895
4954,858,898
4955,866,907
4956,877,912
4957,888,914
4958,899,914
4959,904,910
4960,908,906
4961,910,903
4962,911,902
4963,908,900
4964,910,904
4965,914,909
4966,919,911
4967,924,917
4968,928,917
4969,932,914
4970,933,919
4971,938,917
4972,936,919
4973,943,917
4974,945,916
4975,945,911
4976,944,910
4977,940,909
4978,934,907
4979,928,911
4980,928,915
4981,925,916
4982,922,917
4983,917,911
4984,908,905
4985,903,902
4986,892,900
4987,882,897
4988,877,894
4989,868,894
4990,861,893
4991,854,890
4992,849,892
4993,846,891
4994,844,896
4995,838,894
4996,830,892
4997,820,889
4998,813,889
4999,805,884
5000,799,885
5001,796,884
5002,792,885
5003,793,882
5004,794,886
5005,796,884
5006,798,886
5007,803,888
5008,804,884
5009,804,884
5010,803,883
5011,801,882
5012,797,884
5013,794,882
5014,797,881
5015,798,878
5016,799,879
5017,801,881
5018,805,882
5019,807,884
5020,809,879
5021,809,878
5022,812,876
5023,811,876
5024,808,875
5025,808,878
5026,805,880
5027,806,883
5028,807,886
5029,807,884
5030,806,881
5031,807,881
5032,810,877
5033,810,879
5034,813,881
5035,814,877
5036,812,878
5037,814,875
5038,813,872
5039,811,874
5040,812,879
5041,813,881
5042,814,884
5043,816,887
5044,816,885
5045,815,883
5046,812,876
5047,809,873
5048,805,872
5049,804,872
5050,799,871
5051,800,871
5052,804,878
5053,808,880
5054,813,883
5055,816,879
5056,813,878
5057,808,879
5058,799,875
5059,792,874
5060,791,877
5061,792,876
5062,794,876
5063,800,877
5064,803,877
5065,799,880
5066,798,883
5067,799,883
5068,802,880
5069,797,881
5070,800,877
5071,799,871
5072,800,872
5073,799,868
5074,796,869
5075,793,872
5076,788,880
5077,784,882
5078,785,880
5079,787,882
5080,789,881
5081,789,877
5082,791,878
5083,791,874
5084,793,876
5085,796,874
5086,797,874
5087,799,874
5088,802,876
5089,799,878
5090,796,878
5091,798,884
5092,797,883
5093,802,884
5094,798,885
5095,802,886
5096,804,885
5097,802,883
5098,803,883
5099,803,883
5100,809,881
5101,813,887
5102,817,891
5103,824,894
5104,821,894
5105,820,892
5106,819,887
5107,815,881
5108,815,879
5109,816,884
5110,814,885
5111,819,885
5112,826,888
5113,831,885
5114,838,885
5115,844,879
5116,843,880
5117,841,884
5118,840,880
5119,839,880
5120,835,881
5121,832,883
5122,825,879
5123,821,880
5124,818,877
5125,819,878
5126,815,880
5127,817,881
5128,816,880
5129,807,879
5130,801,873
5131,792,873
5132,785,870
5133,780,870
5134,776,875
5135,779,877
5136,783,876
5137,786,877
5138,792,879
5139,797,878
5140,798,872
5141,799,870
5142,794,869
5143,793,869
5144,789,871
5145,785,876
5146,786,880
5147,788,884
5148,789,890
5149,790,887
5150,789,880
5151,797,873
5152,804,862
5153,818,850
5154,840,831
5155,873,812
5156,920,793
5157,983,773
5158,1056,753
5159,1139,739
5160,1228,725
5161,1314,714
5162,1396,716
5163,1463,725
5164,1499,744
5165,1509,771
5166,1482,791
5167,1406,814
5168,1280,824
5169,1152,833
5170,1024,837
5171,896,842
5172,768,849
5173,659,855
5174,704,867
5175,776,874
5176,836,877
5177,870,873
5178,877,874
5179,860,877
5180,833,874
5181,812,874
5182,795,875
5183,794,878
5184,794,884
5185,796,890
5186,799,892
5187,802,893
5188,801,890
5189,804,888
5190,803,883
5191,801,879
5192,799,880
5193,803,881
5194,802,879
5195,797,878
5196,798,882
5197,799,884
5198,803,885
5199,805,888
5200,810,890
5201,814,890
5202,811,888
5203,817,886
5204,816,883
5205,814,885
5206,812,882
5207,814,886
5208,816,884
5209,819,886
5210,821,886
5211,827,888
5212,827,897
5213,827,893
5214,829,890
5215,831,889
5216,827,884
5217,830,886
5218,835,887
5219,835,891
5220,838,890
5221,841,898
5222,845,902
5223,852,902
5224,855,901
5225,861,903
5226,862,901
5227,863,898
5228,866,896
5229,868,896
5230,871,899
5231,876,898
5232,880,902
5233,892,904
5234,896,911
5235,904,911
5236,914,910
5237,920,907
5238,926,903
5239,929,904
5240,932,902
5241,936,908
5242,934,913
5243,936,914
5244,939,916
5245,947,920
5246,954,919
5247,963,918
5248,968,918
5249,970,917
5250,972,914
5251,971,910
5252,971,912
5253,970,915
5254,966,914
5255,966,915
5256,958,914
5257,957,913
5258,948,913
5259,945,911
5260,939,908
5261,929,906
5262,924,898
5263,914,894
5264,906,895
5265,897,893
5266,884,893
5267,876,889
5268,870,891
5269,864,887
5270,856,885
5271,851,880
5272,844,881
5273,838,881
5274,830,882
5275,826,884
5276,818,885
5277,813,885
5278,809,881
5279,808,881
5280,807,881
5281,807,881
5282,808,885
5283,808,887
5284,807,888
5285,801,885
5286,799,880
5287,798,878
5288,802,876
5289,803,873
5290,800,876
5291,802,874
5292,800,879
5293,802,878
5294,797,882
5295,802,886
5296,802,883
5297,807,883
5298,804,883
5299,804,880
5300,803,879
5301,803,877
5302,801,876
5303,799,879
5304,802,881
5305,804,884
5306,805,885
5307,810,887
5308,808,888
5309,810,890
5310,811,889
5311,808,886
5312,803,883
5313,804,881
5314,799,881
5315,797,881
5316,800,886
5317,804,890
5318,805,889
5319,809,889
5320,811,884
5321,810,882
5322,811,880
5323,806,879
5324,800,878
5325,799,879
5326,794,885
5327,794,886
5328,794,888
5329,795,887
5330,797,891
5331,800,890
5332,801,896
5333,801,892
5334,801,887
5335,798,882
5336,797,877
5337,794,874
5338,788,873
5339,786,874
5340,788,877
5341,793,880
5342,795,884
5343,797,889
5344,793,888
5345,789,886
5346,789,882
5347,789,878
5348,787,874
5349,784,877
5350,784,879
5351,783,878
5352,781,881
5353,782,881
5354,786,881
5355,788,884
5356,793,887
5357,793,886
5358,793,884
5359,793,885
5360,786,880
5361,782,879
5362,778,878
5363,780,876
5364,782,878
5365,785,881
5366,788,884
5367,788,893
5368,791,893
5369,788,893
5370,789,892
5371,794,896
5372,799,895
5373,800,896
5374,798,899
5375,797,897
5376,797,899
5377,803,900
5378,804,898
5379,809,897
5380,808,895
5381,810,893
5382,808,887
5383,806,887
5384,805,883
5385,812,884
5386,816,883
5387,814,886
5388,819,887
5389,822,887
5390,819,890
5391,819,889
5392,816,890
5393,813,884
5394,807,886
5395,807,883
5396,804,880
5397,802,878
5398,799,882
5399,797,882
5400,797,886
5401,798,890
5402,795,894
5403,794,889
5404,790,884
5405,784,881
5406,780,879
5407,774,879
5408,769,881
5409,768,884
5410,767,882
5411,768,881
5412,770,879
5413,771,884
5414,774,889
5415,777,892
5416,779,892
5417,780,894
5418,779,891
5419,781,882
5420,780,880
5421,778,873
5422,780,872
5423,790,860
5424,802,853
5425,825,836
5426,860,817
5427,912,800
5428,982,786
5429,1064,770
5430,1160,754
5431,1260,738
5432,1354,729
5433,1434,727
5434,1482,738
5435,1500,761
5436,1482,789
5437,1415,817
5438,1292,835
5439,1164,844
5440,1036,844
5441,908,848
5442,780,854
5443,652,861
5444,687,874
5445,746,882
5446,798,885
5447,830,892
5448,838,892
5449,825,891
5450,804,893
5451,788,897
5452,778,896
5453,773,895
5454,775,896
5455,778,889
5456,781,888
5457,785,887
5458,783,885
5459,784,893
5460,784,896
5461,783,899
5462,783,900
5463,788,898
5464,791,894
5465,793,893
5466,795,894
5467,795,892
5468,796,893
5469,800,894
5470,798,894
5471,799,900
5472,800,901
5473,800,901
5474,799,902
5475,806,906
5476,807,901
5477,811,904
5478,810,905
5479,809,902
5480,808,901
5481,811,898
5482,813,896
5483,816,900
5484,818,904
5485,823,908
5486,829,912
5487,835,910
5488,837,911
5489,842,910
5490,845,914
5491,847,910
5492,850,912
5493,851,913
5494,855,918
5495,854,920
5496,862,919
5497,869,918
5498,876,917
5499,883,921
5500,888,921
5501,894,920
5502,898,922
5503,901,923
5504,906,926
5505,910,926
5506,912,927
5507,916,928
5508,921,932
5509,929,931
5510,933,935
5511,934,935
5512,937,933
5513,936,929
5514,939,925
5515,937,921
5516,933,919
5517,931,918
5518,925,924
5519,923,924
5520,924,927
5521,919,925
5522,912,930
5523,908,932
5524,901,924
5525,889,923
5526,880,912
5527,870,906
5528,858,902
5529,847,898
5530,835,895
5531,823,898
5532,818,900
5533,817,902
5534,813,905
5535,814,906
5536,811,906
5537,804,905
5538,796,899
5539,789,896
5540,786,896
5541,782,893
5542,782,895
5543,781,894
5544,779,896
5545,779,901
5546,780,901
5547,778,906
5548,772,906
5549,773,905
5550,771,902
5551,771,899
5552,770,894
5553,773,892
5554,773,892
5555,773,892
5556,770,895
5557,775,898
5558,777,901
5559,783,905
5560,782,903
5561,783,901
5562,780,897
5563,775,895
5564,772,889
5565,774,891
5566,773,888
5567,776,893
5568,780,894
5569,781,901
5570,785,903
5571,788,902
5572,785,901
5573,784,901
5574,781,895
5575,780,898
5576,780,896
5577,781,901
5578,780,902
5579,777,903
5580,776,902
5581,779,901
5582,781,898
5583,784,898
5584,786,899
5585,786,896
5586,788,897
5587,782,900
5588,783,897
5589,780,895
5590,774,895
5591,773,891
5592,775,897
5593,774,896
5594,777,898
5595,781,898
5596,782,898
5597,781,896
5598,780,892
5599,780,892
5600,777,890
5601,772,890
5602,772,894
5603,769,895
5604,767,902
5605,765,902
5606,765,905
5607,765,898
5608,768,893
5609,775,890
5610,779,890
5611,777,889
5612,777,888
5613,776,887
5614,771,890
5615,767,891
5616,767,897
5617,765,904
5618,766,907
5619,770,904
5620,771,900
5621,770,894
5622,771,892
5623,770,892
5624,768,890
5625,768,892
5626,765,892
5627,765,891
5628,766,892
5629,769,892
5630,771,896
5631,773,898
5632,777,897
5633,777,901
5634,775,894
5635,770,892
5636,771,889
5637,772,891
5638,775,894
5639,778,899
5640,781,904
5641,787,906
5642,788,909
5643,789,908
5644,793,911
5645,793,912
5646,794,904
5647,795,900
5648,792,899
5649,789,898
5650,789,894
5651,788,891
5652,792,896
5653,795,894
5654,800,893
5655,806,891
5656,811,893
5657,809,889
5658,810,894
5659,810,890
5660,807,893
5661,806,895
5662,803,894
5663,801,891
5664,798,895
5665,800,893
5666,801,893
5667,803,897
5668,802,893
5669,798,894
5670,792,888
5671,788,889
5672,782,882
5673,777,883
5674,777,887
5675,773,886
5676,772,890
5677,775,888
5678,775,886
5679,778,889
5680,779,886
5681,777,887
5682,774,886
5683,773,886
5684,771,885
5685,771,882
5686,770,885
5687,773,883
5688,775,888
5689,780,893
5690,780,899
5691,784,898
5692,783,893
5693,788,886
5694,796,874
5695,807,862
5696,826,846
5697,857,831
5698,896,816
5699,942,803
5700,1003,790
5701,1069,778
5702,1142,767
5703,1229,757
5704,1313,749
5705,1386,750
5706,1438,763
5707,1455,787
5708,1429,806
5709,1345,823
5710,1217,832
5711,1089,838
5712,961,845
5713,833,855
5714,705,865
5715,689,878
5716,743,883
5717,797,885
5718,838,884
5719,855,884
5720,849,881
5721,833,881
5722,814,879
5723,801,885
5724,793,889
5725,791,891
5726,797,895
5727,801,898
5728,804,898
5729,806,895
5730,805,892
5731,804,891
5732,803,888
5733,803,892
5734,805,894
5735,810,895
5736,813,898
5737,814,896
5738,815,896
5739,816,898
5740,817,897
5741,814,894
5742,815,896
5743,812,892
5744,814,892
5745,817,892
5746,817,890
5747,817,893
5748,818,895
5749,818,897
5750,822,900
5751,826,901
5752,831,902
5753,834,901
5754,839,898
5755,839,891
5756,839,890
5757,839,889
5758,837,885
5759,839,892
5760,842,893
5761,849,900
5762,852,902
5763,860,907
5764,864,911
5765,869,910
5766,871,911
5767,876,907
5768,876,908
5769,879,902
5770,881,903
5771,887,905
5772,897,907
5773,907,911
5774,914,915
5775,920,921
5776,925,922
5777,924,918
5778,923,916
5779,928,919
5780,932,917
5781,932,922
5782,938,919
5783,942,919
5784,945,925
5785,950,928
5786,954,924
5787,959,929
5788,964,926
5789,966,919
5790,963,916
5791,959,917
5792,953,917
5793,951,920
5794,948,920
5795,942,917
5796,934,918
5797,934,912
5798,930,910
5799,928,908
5800,924,906
5801,914,903
5802,901,897
5803,888,892
5804,871,886
5805,862,882
5806,853,881
5807,845,882
5808,839,885
5809,837,883
5810,835,885
5811,835,885
5812,835,888
5813,834,885
5814,830,883
5815,827,880
5816,825,880
5817,824,881
5818,823,881
5819,819,883
5820,815,887
5821,815,884
5822,812,884
5823,811,884
5824,816,886
5825,814,884
5826,814,884
5827,815,883
5828,817,878
5829,815,875
5830,817,870
5831,815,867
5832,817,873
5833,816,880
5834,818,887
5835,817,894
5836,818,892
5837,817,885
5838,813,880
5839,812,875
5840,815,870
5841,815,869
5842,817,875
5843,817,882
5844,821,887
5845,821,893
5846,822,890
5847,825,888
5848,828,880
5849,828,876
5850,825,879
5851,825,875
5852,822,874
5853,820,873
5854,819,872
5855,817,871
5856,821,872
5857,824,878
5858,824,883
5859,828,891
5860,828,892
5861,828,889
5862,827,885
5863,827,880
5864,824,877
5865,821,877
5866,815,878
5867,812,876
5868,809,878
5869,811,879
5870,812,878
5871,815,880
5872,816,880
5873,817,878
5874,816,877
5875,819,877
5876,815,875
5877,812,873
5878,809,871
5879,806,871
5880,806,873
5881,810,878
5882,813,879
5883,813,880
5884,810,882
5885,807,880
5886,811,878
5887,812,873
5888,813,869
5889,812,870
5890,811,870
5891,811,871
5892,810,876
5893,812,878
5894,814,879
5895,813,879
5896,814,876
5897,816,878
5898,812,877
5899,806,872
5900,801,873
5901,799,873
5902,799,873
5903,805,874
5904,805,876
5905,805,876
5906,808,879
5907,811,879
5908,811,877
5909,813,875
5910,816,880
5911,817,882
5912,824,878
5913,826,883
5914,826,887
5915,824,887
5916,826,888
5917,827,892
5918,828,890
5919,834,893
5920,839,891
5921,837,888
5922,838,886
5923,838,878
5924,842,877
5925,842,874
5926,849,873
5927,849,876
5928,850,875
5929,851,878
5930,851,877
5931,851,879
5932,855,882
5933,855,881
5934,856,880
5935,852,877
5936,849,876
5937,844,873
5938,833,876
5939,829,877
5940,823,877
5941,821,880
5942,817,881
5943,816,880
5944,813,878
5945,808,878
5946,805,877
5947,799,873
5948,791,869
5949,791,872
5950,796,869
5951,797,870
5952,800,875
5953,804,879
5954,804,881
5955,808,885
5956,811,885
5957,810,882
5958,810,880
5959,809,876
5960,806,874
5961,805,872
5962,805,868
5963,808,863
5964,813,860
5965,826,848
5966,845,836
5967,875,819
5968,921,801
5969,976,785
5970,1044,764
5971,1119,745
5972,1203,729
5973,1294,718
5974,1379,706
5975,1447,708
5976,1499,712
5977,1521,728
5978,1523,750
5979,1502,774
5980,1451,795
5981,1356,815
5982,1228,828
5983,1100,832
5984,972,838
5985,844,842
5986,716,848
5987,712,859
5988,774,866
5989,836,871
5990,872,875
5991,884,876
5992,876,878
5993,850,880
5994,826,880
5995,810,877
5996,801,879
5997,798,880
5998,802,880
5999,804,879
6000,809,882
6001,812,883
6002,813,884
6003,814,886
6004,815,881
6005,814,881
6006,815,882
6007,815,880
6008,815,880
6009,812,881
6010,814,881
6011,813,886
6012,817,889
6013,822,891
6014,824,889
6015,828,891
6016,832,889
6017,831,886
6018,829,885
6019,824,886
6020,824,889
6021,824,890
6022,829,891
6023,825,891
6024,830,892
6025,833,890
6026,836,893
6027,840,894
6028,849,897
6029,850,897
6030,850,893
6031,848,889
6032,846,889
6033,848,889
6034,849,892
6035,850,896
6036,856,901
6037,857,904
6038,868,904
6039,877,908
6040,885,908
6041,890,909
6042,896,909
6043,898,907
6044,900,905
6045,901,907
6046,905,904
6047,911,907
6048,915,908
6049,924,913
6050,933,916
6051,941,923
6052,950,924
6053,956,925
6054,957,924
6055,958,917
6056,959,916
6057,958,914
6058,955,913
6059,957,915
6060,956,917
6061,959,920
6062,964,922
6063,966,926
6064,971,923
6065,967,917
6066,965,912
6067,959,907
6068,954,904
6069,949,903
6070,941,900
6071,935,900
6072,923,898
6073,913,900
6074,907,896
6075,897,894
6076,891,891
6077,880,891
6078,864,886
6079,858,885
6080,847,883
6081,842,881
6082,837,880
6083,829,876
6084,831,876
6085,828,875
6086,827,879
6087,825,880
6088,821,878
6089,820,879
6090,819,882
6091,817,881
6092,818,876
6093,815,876
6094,811,871
6095,811,875
6096,811,875
6097,812,879
6098,811,883
6099,813,887
6100,813,883
6101,812,877
6102,811,874
6103,812,869
6104,814,873
6105,815,871
6106,815,876
6107,817,881
6108,817,883
6109,817,882
6110,816,883
6111,816,882
6112,817,879
6113,816,876
6114,815,873
6115,815,873
6116,815,873
6117,813,875
6118,812,876
6119,811,874
6120,810,876
6121,812,877
6122,815,880
6123,816,887
6124,821,890
6125,822,883
6126,822,881
6127,821,877
6128,823,877
6129,819,874
6130,818,874
6131,814,873
6132,811,876
6133,811,877
6134,815,879
6135,815,879
6136,815,880
6137,816,880
6138,814,877
6139,814,874
6140,812,877
6141,812,876
6142,810,879
6143,810,879
6144,809,879
6145,810,878
6146,805,881
6147,809,882
6148,809,879
6149,812,877
6150,813,874
6151,810,873
6152,809,875
6153,806,875
6154,804,875
6155,798,872
6156,798,874
6157,803,874
6158,805,874
6159,806,878
6160,810,875
6161,808,878
6162,807,872
6163,803,875
6164,800,875
6165,797,877
6166,797,876
6167,797,874
6168,799,870
6169,802,875
6170,803,873
6171,802,872
6172,802,873
6173,800,875
6174,795,878
6175,796,876
6176,795,875
6177,795,879
6178,797,879
6179,794,878
6180,795,876
6181,798,877
6182,800,882
6183,803,883
6184,807,888
6185,809,885
6186,808,886
6187,808,880
6188,808,877
6189,810,878
6190,812,880
6191,813,882
6192,816,886
6193,818,887
6194,818,888
6195,821,886
6196,820,887
6197,821,891
6198,823,885
6199,827,884
6200,828,884
6201,831,881
6202,835,877
6203,837,873
6204,840,871
6205,841,878
6206,843,879
6207,846,888
6208,845,891
6209,843,896
6210,839,894
6211,834,890
6212,829,887
6213,825,882
6214,825,880
6215,822,876
6216,821,877
6217,818,876
6218,815,876
6219,807,874
6220,806,874
6221,801,873
6222,798,871
6223,793,869
6224,790,871
6225,787,874
6226,785,880
6227,783,879
6228,786,879
6229,788,876
6230,788,878
6231,791,875
6232,793,878
6233,795,878
6234,795,882
6235,797,879
6236,797,881
6237,794,884
6238,796,883
6239,794,880
6240,792,877
6241,795,865
6242,803,856
6243,818,843
6244,846,824
6245,884,809
6246,936,790
6247,1002,774
6248,1076,759
6249,1161,743
6250,1245,727
6251,1327,714
6252,1402,710
6253,1460,710
6254,1497,723
6255,1511,745
6256,1501,771
6257,1466,799
6258,1387,816
6259,1259,830
6260,1131,839
6261,1003,839
6262,875,847
6263,747,854
6264,693,865
6265,740,876
6266,801,885
6267,849,889
6268,873,888
6269,871,888
6270,856,883
6271,830,881
6272,807,879
6273,793,875
6274,788,878
6275,789,880
6276,793,883
6277,801,887
6278,806,891
6279,807,892
6280,809,893
6281,808,891
6282,807,889
6283,801,887
6284,800,885
6285,795,887
6286,795,887
6287,800,888
6288,804,891
6289,809,891
6290,813,890
6291,817,892
6292,817,893
6293,817,886
6294,818,885
6295,820,885
6296,820,885
6297,822,888
6298,821,891
6299,820,892
6300,818,894
6301,821,896
6302,825,899
6303,825,900
6304,829,902
6305,831,899
6306,833,896
6307,837,897
6308,839,896
6309,842,895
6310,843,896
6311,842,895
6312,843,901
6313,846,904
6314,852,904
6315,862,909
6316,871,905
6317,875,902
6318,880,898
6319,883,902
6320,884,903
6321,886,903
6322,888,904
6323,891,907
6324,895,911
6325,907,913
6326,914,916
6327,919,917
6328,924,923
6329,932,920
6330,937,918
6331,938,915
6332,944,912
6333,950,912
6334,953,914
6335,957,909
6336,961,913
6337,963,919
6338,967,921
6339,967,921
6340,970,922
6341,970,918
6342,968,913
6343,965,915
6344,961,910
6345,957,909
6346,955,908
6347,950,910
6348,947,911
6349,944,910
6350,940,909
6351,933,907
6352,925,903
6353,912,901
6354,900,902
6355,892,897
6356,882,893
6357,871,890
6358,860,888
6359,848,879
6360,839,881
6361,836,882
6362,832,887
6363,831,890
6364,828,891
6365,825,890
6366,820,888
6367,815,882
6368,810,880
6369,806,878
6370,804,878
6371,803,881
6372,801,885
6373,805,885
6374,804,884
6375,807,887
6376,806,884
6377,802,880
6378,803,881
6379,800,879
6380,803,884
6381,806,878
6382,802,880
6383,799,878
6384,796,881
6385,792,881
6386,795,884
6387,798,888
6388,802,887
6389,805,886
6390,812,886
6391,811,878
6392,810,876
6393,810,874
6394,807,876
6395,805,877
6396,804,885
6397,804,889
6398,806,889
6399,807,896
6400,813,891
6401,815,888
6402,816,887
6403,814,887
6404,810,884
6405,806,879
6406,803,881
6407,802,882
6408,800,884
6409,801,887
6410,804,892
6411,803,896
6412,805,894
6413,805,891
6414,805,890
6415,807,882
6416,807,882
6417,806,877
6418,802,878
6419,796,881
6420,796,880
6421,794,885
6422,796,885
6423,796,886
6424,800,888
6425,802,884
6426,801,881
6427,803,881
6428,798,878
6429,796,880
6430,795,880
6431,789,886
6432,790,888
6433,789,890
6434,790,886
6435,790,885
6436,790,885
6437,791,885
6438,792,887
6439,792,885
6440,791,881
6441,792,875
6442,791,872
6443,787,876
6444,786,881
6445,786,883
6446,787,884
6447,789,886
6448,788,889
6449,788,888
6450,788,884
6451,785,881
6452,785,879
6453,784,877
6454,784,875
6455,785,877
6456,784,880
6457,787,881
6458,792,884
6459,793,884
6460,793,886
6461,787,887
6462,786,887
6463,778,883
6464,773,882
6465,774,883
6466,777,885
6467,784,888
6468,785,892
6469,799,894
6470,808,897
6471,813,897
6472,816,900
6473,812,899
6474,808,898
6475,802,894
6476,801,892
6477,800,888
6478,800,885
6479,805,886
6480,806,886
6481,811,890
6482,813,887
6483,817,886
6484,820,886
6485,826,885
6486,823,881
6487,821,883
6488,817,882
6489,818,880
6490,815,879
6491,812,876
6492,806,878
6493,807,877
6494,806,879
6495,802,883
6496,800,883
6497,796,883
6498,787,881
6499,786,878
6500,781,877
6501,779,873
6502,776,876
6503,774,876
6504,772,877
6505,771,881
6506,770,875
6507,767,875
6508,769,877
6509,772,878
6510,774,876
6511,771,877
6512,770,881
6513,768,882
6514,768,884
6515,766,887
6516,765,889
6517,768,885
6518,770,885
6519,777,880
6520,782,876
6521,794,864
6522,811,848
6523,835,828
6524,878,804
6525,929,780
6526,997,755
6527,1072,744
6528,1160,726
6529,1255,718
6530,1349,715
6531,1430,720
6532,1483,738
6533,1501,761
6534,1481,788
6535,1415,812
6536,1287,826
6537,1159,834
6538,1031,836
6539,903,839
6540,775,851
6541,647,858
6542,686,869
6543,751,878
6544,810,883
6545,846,885
6546,851,891
6547,835,888
6548,805,887
6549,784,880
6550,766,880
6551,759,882
6552,758,885
6553,765,892
6554,770,894
6555,773,898
6556,774,898
6557,776,896
6558,769,894
6559,767,889
6560,768,888
6561,769,889
6562,768,890
6563,773,889
6564,770,890
6565,777,891
6566,780,890
6567,782,896
6568,788,896
6569,787,897
6570,788,898
6571,791,897
6572,791,897
6573,788,896
6574,786,894
6575,783,896
6576,784,899
6577,787,901
6578,789,902
6579,792,902
6580,800,903
6581,801,901
6582,807,900
6583,808,895
6584,810,895
6585,810,894
6586,813,894
6587,816,897
6588,816,901
6589,819,905
6590,822,906
6591,826,911
6592,829,911
6593,832,906
6594,835,904
6595,839,906
6596,842,906
6597,847,906
6598,852,904
6599,855,907
6600,860,910
6601,865,915
6602,874,916
6603,883,921
6604,891,927
6605,894,923
6606,899,924
6607,900,922
6608,902,922
6609,901,917
6610,904,915
6611,911,914
6612,911,915
6613,917,920
6614,924,932
6615,929,938
6616,935,936
6617,935,933
6618,932,926
6619,929,917
6620,921,914
6621,914,908
6622,909,906
6623,903,908
6624,896,908
6625,886,906
6626,881,907
6627,869,909
6628,857,909
6629,849,907
6630,838,906
6631,830,899
6632,826,897
6633,817,890
6634,811,887
6635,808,884
6636,802,885
6637,796,889
6638,791,894
6639,790,898
6640,790,896
6641,786,895
6642,781,890
6643,775,887
6644,770,885
6645,771,882
6646,768,885
6647,767,889
6648,767,891
6649,771,894
6650,771,894
6651,773,893
6652,773,894
6653,772,893
6654,774,891
6655,774,894
6656,776,895
6657,773,896
6658,768,895
6659,766,891
6660,764,888
6661,764,888
6662,768,892
6663,770,893
6664,773,896
6665,777,896
6666,782,895
6667,781,893
6668,779,890
6669,777,885
6670,774,886
6671,773,887
6672,768,891
6673,770,892
6674,771,898
6675,774,898
6676,773,896
6677,776,892
6678,774,894
6679,774,890
6680,773,889
6681,768,888
6682,767,887
6683,764,891
6684,765,890
6685,767,895
6686,769,894
6687,772,897
6688,777,899
6689,775,897
6690,773,889
6691,768,889
6692,763,893
6693,759,891
6694,758,890
6695,757,889
6696,757,890
6697,755,890
6698,759,895
6699,761,896
6700,764,899
6701,765,897
6702,765,898
6703,767,895
6704,761,891
6705,754,887
6706,753,888
6707,747,891
6708,748,892
6709,753,891
6710,754,891
6711,754,888
6712,753,889
6713,753,890
6714,753,893
6715,756,893
6716,757,891
6717,754,887
6718,753,884
6719,752,882
6720,751,881
6721,753,883
6722,752,889
6723,750,891
6724,757,891
6725,756,886
6726,756,890
6727,751,885
6728,748,884
6729,744,886
6730,745,888
6731,747,889
6732,746,886
6733,753,885
6734,757,882
6735,761,887
6736,766,889
6737,766,891
6738,764,895
6739,766,899
6740,768,896
6741,769,892
6742,769,895
6743,769,896
6744,770,897
6745,766,901
6746,774,902
6747,773,899
6748,776,904
6749,780,901
6750,781,897
6751,786,894
6752,789,892
6753,791,885
6754,794,884
6755,791,881
6756,792,885
6757,791,884
6758,794,890
6759,794,893
6760,791,894
6761,792,891
6762,791,887
6763,788,882
6764,786,877
6765,779,875
6766,774,876
6767,768,877
6768,765,880
6769,763,883
6770,761,883
6771,757,878
6772,757,886
6773,757,880
6774,756,881
6775,754,881
6776,754,881
6777,753,882
6778,753,879
6779,754,878
6780,754,877
6781,756,877
6782,761,879
6783,761,886
6784,764,888
6785,766,890
6786,765,887
6787,764,888
6788,763,882
6789,763,880
6790,766,877
6791,771,868
6792,782,856
6793,805,847
6794,838,833
6795,883,818
6796,946,802
6797,1015,783
6798,1097,770
6799,1184,751
6800,1272,742
6801,1354,739
6802,1418,748
6803,1450,771
6804,1448,799
6805,1390,826
6806,1279,843
6807,1151,847
6808,1023,849
6809,895,846
6810,767,848
6811,639,854
6812,643,862
6813,701,870
6814,761,876
6815,800,880
6816,819,879
6817,819,882
6818,808,881
6819,790,884
6820,781,884
6821,774,886
6822,773,889
6823,774,891
6824,776,887
6825,776,883
6826,776,883
6827,774,881
6828,775,880
6829,777,888
6830,779,890
6831,779,892
6832,784,896
6833,783,896
6834,784,891
6835,781,891
6836,783,888
6837,780,883
6838,786,885
6839,783,887
6840,782,888
6841,784,891
6842,792,895
6843,797,898
6844,801,900
6845,807,896
6846,809,894
6847,805,889
6848,804,892
6849,804,893
6850,807,893
6851,804,889
6852,801,893
6853,807,893
6854,809,896
6855,817,899
6856,825,906
6857,826,905
6858,829,908
6859,827,905
6860,831,901
6861,833,896
6862,837,896
6863,842,896
6864,847,900
6865,850,900
6866,858,903
6867,863,905
6868,869,911
6869,869,911
6870,874,911
6871,881,910
6872,885,908
6873,893,909
6874,899,905
6875,906,908
6876,909,912
6877,915,913
6878,919,918
6879,923,919
6880,926,921
6881,928,922
6882,931,919
6883,932,915
6884,933,912
6885,936,910
6886,935,911
6887,937,910
6888,935,915
6889,933,921
6890,935,922
6891,937,923
6892,937,924
6893,937,922
6894,932,921
6895,923,911
6896,906,901
6897,897,900
6898,887,897
6899,869,897
6900,859,894
6901,853,894
6902,847,891
6903,838,892
6904,830,895
6905,825,894
6906,821,893
6907,815,890
6908,807,885
6909,805,884
6910,801,881
6911,803,881
6912,794,883
6913,795,885
6914,794,889
6915,788,887
6916,791,887
6917,791,885
6918,788,879
6919,785,877
6920,784,876
6921,783,877
6922,782,879
6923,781,881
6924,780,880
6925,786,882
6926,788,880
6927,791,882
6928,791,883
6929,787,885
6930,786,885
6931,788,885
6932,787,884
6933,790,880
6934,794,881
6935,794,879
6936,795,878
6937,795,883
6938,796,886
6939,796,890
6940,795,892
6941,796,886
6942,799,884
6943,797,881
6944,797,875
6945,799,876
6946,796,877
6947,795,874
6948,795,876
6949,795,879
6950,797,884
6951,796,882
6952,796,887
6953,798,884
6954,795,888
6955,799,886
6956,794,885
6957,792,888
6958,786,885
6959,784,883
6960,785,879
6961,786,878
6962,789,871
6963,791,876
6964,794,880
6965,792,883
6966,791,886
6967,791,882
6968,789,882
6969,783,878
6970,784,878
6971,781,875
6972,778,877
6973,777,878
6974,781,884
6975,781,881
6976,784,886
6977,787,884
6978,780,880
6979,779,881
6980,777,878
6981,782,876
6982,781,876
6983,784,880
6984,781,880
6985,778,885
6986,779,880
6987,779,878
6988,781,879
6989,783,878
6990,784,879
6991,784,880
6992,783,879
6993,785,877
6994,783,875
6995,782,875
6996,779,876
6997,777,880
6998,775,884
6999,775,886
7000,775,888
7001,778,888
7002,775,886
7003,775,882
7004,775,878
7005,775,872
7006,775,873
7007,772,872
7008,771,874
7009,772,876
7010,777,885
7011,783,887
7012,783,893
7013,788,894
7014,789,895
7015,792,890
7016,793,888
7017,797,884
7018,796,885
7019,795,887
7020,793,886
7021,795,886
7022,799,891
7023,802,893
7024,806,892
7025,808,896
7026,805,898
7027,806,889
7028,808,889
7029,815,881
7030,816,878
7031,818,875
7032,821,873
7033,819,877
7034,817,882
7035,817,886
7036,817,891
7037,817,892
7038,816,893
7039,819,888
7040,820,883
7041,818,882
7042,813,881
7043,808,879
7044,803,882
7045,797,877
7046,792,879
7047,787,878
7048,785,879
7049,785,877
7050,783,883
7051,781,879
7052,772,877
7053,770,872
7054,764,874
7055,762,872
7056,765,875
7057,765,879
7058,767,882
7059,769,885
7060,771,884
7061,772,880
7062,772,878
7063,770,878
7064,771,877
7065,768,877
7066,768,874
7067,769,876
7068,769,877
7069,772,874
7070,775,869
7071,784,863
7072,793,859
7073,804,849
7074,823,834
7075,853,817
7076,894,798
7077,954,782
7078,1016,765
7079,1093,751
7080,1178,736
7081,1263,728
7082,1347,719
7083,1418,718
7084,1472,730
7085,1501,749
7086,1501,769
7087,1468,792
7088,1390,810
7089,1263,819
7090,1135,826
7091,1007,826
7092,879,829
7093,751,841
7094,631,852
7095,669,864
7096,739,873
7097,801,881
7098,841,882
7099,854,881
7100,842,876
7101,822,871
7102,801,870
7103,785,872
7104,776,876
7105,778,880
7106,780,883
7107,783,888
7108,787,888
7109,788,888
7110,783,883
7111,784,881
7112,780,880
7113,780,879
7114,778,879
7115,774,881
7116,777,886
7117,783,887
7118,787,892
7119,789,893
7120,794,896
7121,795,892
7122,799,889
7123,801,886
7124,800,882
7125,794,882
7126,793,882
7127,794,884
7128,796,886
7129,797,890
7130,803,889
7131,811,895
7132,816,897
7133,818,896
7134,818,892
7135,817,887
7136,815,888
7137,816,885
7138,818,889
7139,820,896
7140,817,892
7141,821,898
7142,824,899
7143,829,897
7144,836,899
7145,838,896
7146,843,896
7147,851,893
7148,853,896
7149,863,898
7150,866,901
7151,869,905
7152,873,910
7153,876,913
7154,880,913
7155,885,914
7156,890,914
7157,898,913
7158,905,914
7159,911,911
7160,915,913
7161,919,915
7162,925,915
7163,929,913
7164,933,912
7165,940,913
7166,944,918
7167,950,920
7168,953,921
7169,957,922
7170,957,920
7171,958,917
7172,960,914
7173,955,911
7174,954,911
7175,943,911
7176,937,906
7177,937,909
7178,936,912
7179,931,912
7180,927,909
7181,924,907
7182,911,899
7183,900,896
7184,886,885
7185,871,885
7186,860,882
7187,850,884
7188,842,880
7189,839,886
7190,831,881
7191,825,884
7192,821,886
7193,820,885
7194,815,883
7195,810,883
7196,806,879
7197,799,878
7198,793,876
7199,791,874
7200,790,871
7201,792,871
7202,788,874
7203,786,878
7204,785,879
7205,788,878
7206,785,879
7207,789,877
7208,787,875
7209,785,871
7210,781,871
7211,782,873
7212,781,871
7213,780,873
7214,787,878
7215,792,879
7216,796,882
7217,800,886
7218,798,885
7219,798,885
7220,794,878
7221,791,878
7222,793,874
7223,796,872
7224,794,873
7225,791,876
7226,790,882
7227,793,886
7228,792,886
7229,796,889
7230,797,883
7231,796,885
7232,795,884
7233,788,883
7234,791,877
7235,791,878
7236,792,876
7237,791,879
7238,793,877
7239,791,878
7240,795,881
7241,797,880
7242,795,877
7243,794,876
7244,791,875
7245,789,871
7246,787,869
7247,788,869
7248,787,873
7249,787,877
7250,786,879
7251,780,881
7252,780,881
7253,783,880
7254,785,880
7255,785,878
7256,782,878
7257,779,878
7258,774,879
7259,771,877
7260,773,872
7261,772,874
7262,775,874
7263,779,877
7264,782,882
7265,785,884
7266,782,883
7267,780,882
7268,775,876
7269,771,870
7270,768,872
7271,768,871
7272,767,873
7273,770,880
7274,775,881
7275,779,881
7276,781,881
7277,781,879
7278,778,879
7279,780,878
7280,778,877
7281,779,875
7282,781,876
7283,779,873
7284,779,874
7285,778,876
7286,774,873
7287,772,874
7288,772,878
7289,775,879
7290,773,883
7291,778,882
7292,778,879
7293,782,875
7294,785,874
7295,788,878
7296,788,880
7297,792,883
7298,796,887
7299,797,888
7300,802,892
7301,808,894
7302,808,894
7303,808,890
7304,806,886
7305,803,885
7306,801,883
7307,803,880
7308,806,882
7309,809,880
7310,818,880
7311,819,882
7312,820,881
7313,823,882
7314,820,883
7315,818,884
7316,815,882
7317,810,880
7318,809,878
7319,808,874
7320,806,870
7321,801,873
7322,803,876
7323,802,873
7324,802,875
7325,799,874
7326,797,870
7327,790,872
7328,782,870
7329,777,871
7330,768,871
7331,763,872
7332,760,873
7333,760,870
7334,763,874
7335,763,872
7336,765,876
7337,768,874
7338,772,875
7339,773,872
7340,770,873
7341,771,871
7342,768,875
7343,766,880
7344,768,883
7345,765,887
7346,766,885
7347,770,879
7348,775,868
7349,785,856
7350,805,836
7351,835,811
7352,882,786
7353,945,763
7354,1023,743
7355,1115,729
7356,1214,717
7357,1316,711
7358,1400,713
7359,1463,725
7360,1492,751
7361,1485,780
7362,1435,804
7363,1328,823
7364,1200,829
7365,1072,827
7366,944,826
7367,816,830
7368,688,840
7369,639,854
7370,707,866
7371,777,875
7372,832,878
7373,862,878
7374,859,875
7375,839,869
7376,814,869
7377,788,867
7378,771,870
7379,769,874
7380,769,878
7381,775,885
7382,781,888
7383,781,886
7384,781,886
7385,783,884
7386,784,879
7387,786,882
7388,785,884
7389,790,886
7390,791,885
7391,789,886
7392,785,886
7393,784,887
7394,783,884
7395,783,884
7396,787,887
7397,791,887
7398,791,888
7399,795,887
7400,797,885
7401,798,883
7402,798,887
7403,796,886
7404,795,889
7405,796,890
7406,800,894
7407,806,896
7408,813,891
7409,819,894
7410,821,891
7411,820,891
7412,820,884
7413,821,884
7414,815,886
7415,816,885
7416,822,890
7417,825,893
7418,829,895
7419,832,894
7420,838,900
7421,842,898
7422,846,897
7423,853,896
7424,861,899
7425,861,895
7426,864,898
7427,867,893
7428,871,900
7429,875,902
7430,885,901
7431,890,905
7432,900,912
7433,906,909
7434,908,907
7435,912,908
7436,913,910
7437,916,905
7438,920,901
7439,925,902
7440,930,901
7441,935,908
7442,942,913
7443,943,918
7444,948,920
7445,949,921
7446,951,917
7447,946,913
7448,949,907
7449,948,906
7450,944,902
7451,941,905
7452,937,901
7453,933,900
7454,927,901
7455,918,899
7456,913,900
7457,902,898
7458,897,893
7459,888,891
7460,881,885
7461,872,883
7462,865,883
7463,861,879
7464,851,884
7465,844,886
7466,832,886
7467,822,882
7468,815,883
7469,813,878
7470,807,877
7471,803,874
7472,803,874
7473,801,867
7474,799,869
7475,794,869
7476,787,872
7477,783,873
7478,784,876
7479,783,879
7480,787,883
7481,788,882
7482,792,877
7483,797,874
7484,794,870
7485,793,870
7486,792,869
7487,789,867
7488,789,869
7489,786,873
7490,784,876
7491,786,879
7492,789,884
7493,790,879
7494,790,878
7495,790,876
7496,789,872
7497,791,868
7498,788,869
7499,788,868
7500,789,874
7501,792,878
7502,792,877
7503,792,881
7504,794,879
7505,796,874
7506,796,876
7507,797,874
7508,797,872
7509,792,871
7510,787,875
7511,785,878
7512,781,876
7513,783,881
7514,783,882
7515,783,884
7516,785,885
7517,788,880
7518,786,878
7519,787,873
7520,787,871
7521,783,871
7522,782,873
7523,779,871
7524,777,875
7525,773,879
7526,775,876
7527,778,878
7528,778,877
7529,781,875
7530,778,875
7531,778,874
7532,775,873
7533,775,868
7534,771,868
7535,771,865
7536,768,862
7537,769,861
7538,770,865
7539,769,868
7540,772,869
7541,776,870
7542,774,871
7543,773,870
7544,774,867
7545,767,866
7546,767,865
7547,767,865
7548,764,864
7549,762,867
7550,762,867
7551,765,870
7552,767,869
7553,769,872
7554,772,865
7555,774,866
7556,774,863
7557,771,867
7558,770,867
7559,767,867
7560,765,871
7561,764,873
7562,758,876
7563,760,878
7564,762,879
7565,764,878
7566,770,875
7567,770,872
7568,774,874
7569,775,873
7570,776,873
7571,777,873
7572,778,879
7573,779,875
7574,781,881
7575,781,881
7576,777,883
7577,782,881
7578,782,882
7579,785,879
7580,789,874
7581,789,873
7582,788,872
7583,787,867
7584,791,869
7585,793,866
7586,800,867
7587,806,871
7588,810,872
7589,812,875
7590,809,876
7591,804,874
7592,796,870
7593,790,867
7594,785,866
7595,780,864
7596,783,866
7597,785,868
7598,788,867
7599,785,869
7600,785,870
7601,780,868
7602,772,867
7603,766,862
7604,757,860
7605,757,857
7606,755,859
7607,752,863
7608,757,865
7609,762,867
7610,765,868
7611,763,866
7612,765,868
7613,763,868
7614,762,866
7615,764,865
7616,766,864
7617,767,873
7618,767,875
7619,767,877
7620,759,875
7621,755,872
7622,757,864
7623,768,850
7624,793,834
7625,836,815
7626,893,798
7627,973,779
7628,1067,760
7629,1169,741
7630,1278,733
7631,1371,729
7632,1439,727
7633,1480,738
7634,1493,760
7635,1469,785
7636,1399,808
7637,1271,821
7638,1143,830
7639,1015,830
7640,887,832
7641,759,836
7642,651,849
7643,693,857
7644,747,861
7645,795,867
7646,815,867
7647,822,872
7648,807,873
7649,791,873
7650,774,870
7651,766,870
7652,760,873
7653,763,869
7654,762,870
7655,764,870
7656,763,872
7657,762,877
7658,764,880
7659,766,884
7660,770,886
7661,773,887
7662,770,880
7663,773,881
7664,772,877
7665,774,875
7666,773,874
7667,772,876
7668,770,873
7669,770,877
7670,770,877
7671,772,882
7672,777,890
7673,785,892
7674,786,892
7675,789,888
7676,790,883
7677,788,881
7678,782,878
7679,782,876
7680,784,879
7681,787,878
7682,790,881
7683,795,883
7684,799,884
7685,805,887
7686,806,886
7687,808,887
7688,810,883
7689,813,883
7690,814,884
7691,818,886
7692,820,886
7693,825,889
7694,830,889
7695,838,889
7696,841,891
7697,846,895
7698,849,900
7699,851,903
7700,857,900
7701,859,897
7702,864,897
7703,869,896
7704,875,898
7705,880,901
7706,883,904
7707,888,906
7708,895,908
7709,900,911
7710,906,906
7711,907,906
7712,909,902
7713,908,902
7714,908,899
7715,905,900
7716,906,903
7717,905,903
7718,901,909
7719,902,908
7720,898,906
7721,902,902
7722,899,898
7723,896,896
7724,888,896
7725,878,895
7726,867,893
7727,854,892
7728,839,890
7729,827,886
7730,820,886
7731,818,885
7732,816,884
7733,811,884
7734,803,885
7735,797,878
7736,791,874
7737,782,870
7738,776,868
7739,773,866
7740,766,864
7741,763,865
7742,764,870
7743,763,871
7744,765,873
7745,764,869
7746,763,866
7747,760,866
7748,762,863
7749,760,864
7750,754,867
7751,753,870
7752,751,873
7753,747,875
7754,748,876
7755,749,872
7756,752,876
7757,755,872
7758,756,870
7759,758,869
7760,758,870
7761,759,869
7762,755,868
7763,752,870
7764,752,869
7765,752,866
7766,753,869
7767,756,869
7768,754,872
7769,760,871
7770,762,871
7771,764,869
7772,764,867
7773,764,869
7774,762,866
7775,753,869
7776,755,870
7777,752,872
7778,757,867
7779,758,864
7780,760,865
7781,765,864
7782,763,864
7783,760,859
7784,759,862
7785,756,863
7786,753,862
7787,753,865
7788,751,865
7789,753,865
7790,755,864
7791,757,865
7792,758,867
7793,763,870
7794,764,868
7795,760,868
7796,759,866
7797,755,861
7798,752,857
7799,746,856
7800,746,856
7801,749,857
7802,753,860
7803,756,860
7804,757,866
7805,761,867
7806,760,869
7807,755,862
7808,751,858
7809,745,854
7810,747,852
7811,746,851
7812,748,849
7813,750,857
7814,753,860
7815,756,856
7816,757,858
7817,758,855
7818,757,857
7819,755,857
7820,752,855
7821,752,856
7822,751,851
7823,752,854
7824,751,854
7825,750,853
7826,752,855
7827,755,851
7828,761,856
7829,763,853
7830,763,854
7831,762,855
7832,760,855
7833,759,855
7834,758,857
7835,759,857
7836,758,856
7837,758,856
7838,758,853
7839,760,858
7840,764,861
7841,771,864
7842,772,861
7843,776,865
7844,774,862
7845,775,863
7846,778,861
7847,775,863
7848,780,863
7849,783,864
7850,786,866
7851,785,865
7852,785,866
7853,790,867
7854,790,863
7855,787,865
7856,792,865
7857,792,864
7858,797,860
7859,798,856
7860,797,855
7861,796,855
7862,798,860
7863,807,864
7864,804,871
7865,807,869
7866,809,866
7867,809,863
7868,807,857
7869,802,850
7870,800,846
7871,796,848
7872,796,850
7873,788,853
7874,787,859
7875,780,859
7876,778,862
7877,772,860
7878,767,861
7879,767,860
7880,765,853
7881,761,851
7882,764,849
7883,766,849
7884,763,848
7885,762,850
7886,768,849
7887,771,851
7888,773,854
7889,778,855
7890,777,863
7891,777,867
7892,776,864
7893,770,865
7894,770,864
7895,771,863
7896,770,856
7897,770,850
7898,781,841
7899,800,827
7900,832,814
7901,875,797
7902,931,782
7903,1001,771
7904,1078,753
7905,1155,737
7906,1232,725
7907,1308,712
7908,1377,709
7909,1430,718
7910,1460,733
7911,1469,761
7912,1439,783
7913,1361,804
7914,1233,811
7915,1105,817
7916,977,816
7917,849,822
7918,721,828
7919,665,841
7920,711,850
7921,767,856
7922,812,863
7923,834,864
7924,834,864
7925,823,863
7926,804,862
7927,787,859
7928,777,859
7929,774,858
7930,773,860
7931,771,862
7932,773,862
7933,774,862
7934,775,863
7935,780,863
7936,782,864
7937,788,865
7938,790,865
7939,794,869
7940,793,869
7941,791,867
7942,788,866
7943,783,863
7944,781,862
7945,780,866
7946,785,869
7947,789,873
7948,792,873
7949,796,877
7950,796,873
7951,794,872
7952,795,871
7953,793,869
7954,795,867
7955,798,867
7956,796,865
7957,797,867
7958,798,866
7959,804,874
7960,808,876
7961,819,878
7962,824,880
7963,825,878
7964,826,881
7965,826,877
7966,823,874
7967,824,872
7968,824,873
7969,827,873
7970,835,877
7971,840,882
7972,846,888
7973,857,888
7974,861,887
7975,867,886
7976,871,883
7977,873,880
7978,878,880
7979,885,882
7980,888,885
7981,893,888
7982,904,894
7983,910,896
7984,914,899
7985,919,899
7986,920,898
7987,918,898
7988,923,899
7989,923,892
7990,923,891
7991,924,891
7992,924,891
7993,925,896
7994,926,895
7995,929,899
7996,927,901
7997,930,899
7998,923,897
7999,920,891
8000,912,889
8001,905,882
8002,895,881
8003,885,878
8004,874,881
8005,861,878
8006,855,880
8007,853,877
8008,851,874
8009,848,870
8010,842,868
8011,832,862
8012,828,862
8013,818,856
8014,810,858
8015,804,856
8016,797,853
8017,792,856
8018,789,856
8019,785,857
8020,779,858
8021,782,857
8022,781,861
8023,780,863
8024,782,862
8025,780,861
8026,777,856
8027,773,854
8028,771,855
8029,772,856
8030,775,858
8031,777,858
8032,779,859
8033,781,859
8034,779,858
8035,775,858
8036,775,855
8037,773,854
8038,775,850
8039,778,850
8040,778,851
8041,780,857
8042,784,857
8043,785,858
8044,789,856
8045,791,853
8046,793,852
8047,792,852
8048,790,849
8049,787,848
8050,784,848
8051,781,853
8052,780,849
8053,781,850
8054,784,854
8055,792,853
8056,792,855
8057,796,858
8058,794,859
8059,791,858
8060,790,855
8061,790,854
8062,787,851
8063,785,848
8064,782,849
8065,784,845
8066,787,852
8067,790,853
8068,791,857
8069,791,858
8070,788,857
8071,785,854
8072,785,851
8073,785,851
8074,779,846
8075,781,847
8076,779,846
8077,780,849
8078,780,846
8079,777,848
8080,782,850
8081,783,853
8082,785,853
8083,784,850
8084,782,850
8085,777,847
8086,777,846
8087,772,839
8088,771,837
8089,773,840
8090,778,842
8091,781,848
8092,783,850
8093,786,853
8094,783,852
8095,779,851
8096,779,845
8097,774,844
8098,772,845
8099,769,844
8100,766,845
8101,769,847
8102,768,850
8103,772,851
8104,777,852
8105,781,851
8106,780,847
8107,779,844
8108,776,847
8109,775,844
8110,770,845
8111,768,841
8112,764,845
8113,765,840
8114,765,847
8115,770,849
8116,772,853
8117,779,856
8118,783,854
8119,786,852
8120,793,853
8121,793,850
8122,796,848
8123,793,850
8124,797,854
8125,796,852
8126,799,856
8127,803,859
8128,802,857
8129,802,859
8130,801,856
8131,802,851
8132,805,850
8133,807,844
8134,809,839
8135,811,840
8136,812,845
8137,811,845
8138,808,846
8139,808,848
8140,810,848
8141,812,847
8142,814,843
8143,810,838
8144,808,833
8145,804,829
8146,799,831
8147,798,831
8148,791,838
8149,783,841
8150,782,840
8151,780,839
8152,773,838
8153,771,838
8154,769,839
8155,765,836
8156,767,837
8157,770,838
8158,771,836
8159,772,836
8160,772,835
8161,769,832
8162,766,835
8163,770,837
8164,770,843
8165,771,847
8166,777,853
8167,778,854
8168,778,848
8169,774,842
8170,773,833
8171,773,825
8172,778,812
8173,799,798
8174,825,777
8175,871,757
8176,936,743
8177,1014,726
8178,1103,711
8179,1199,694
8180,1298,681
8181,1384,677
8182,1449,680
8183,1489,694
8184,1501,716
8185,1481,741
8186,1430,763
8187,1336,778
8188,1208,788
8189,1080,793
8190,952,795
8191,824,800
8192,696,803
8193,666,808
8194,714,816
8195,772,825
8196,820,831
8197,844,831
8198,839,832
8199,825,833
8200,808,836
8201,795,836
8202,780,837
8203,776,836
8204,778,833
8205,778,835
8206,779,831
8207,780,829
8208,779,831
8209,783,831
8210,784,835
8211,787,841
8212,786,844
8213,788,844
8214,786,844
8215,784,841
8216,785,841
8217,784,840
8218,787,839
8219,787,838
8220,785,840
8221,788,843
8222,788,838
8223,792,840
8224,794,842
8225,801,842
8226,802,843
8227,804,842
8228,808,840
8229,808,839
8230,805,837
8231,807,833
8232,811,834
8233,810,837
8234,812,840
8235,817,845
8236,819,847
8237,825,845
8238,827,845
8239,828,845
8240,831,845
8241,834,842
8242,840,843
8243,840,837
8244,846,836
8245,846,837
8246,854,840
8247,861,848
8248,865,856
8249,876,859
8250,881,856
8251,886,853
8252,889,850
8253,894,847
8254,901,844
8255,908,848
8256,914,849
8257,918,851
8258,919,856
8259,925,859
8260,924,864
8261,928,866
8262,931,862
8263,929,862
8264,929,858
8265,934,854
8266,934,854
8267,935,852
8268,932,851
8269,931,850
8270,928,852
8271,927,854
8272,930,851
8273,926,853
8274,920,846
8275,911,841
8276,899,838
8277,887,835
8278,879,832
8279,866,830
8280,860,826
8281,852,822
8282,843,826
8283,837,825
8284,833,821
8285,830,821
8286,825,819
8287,819,813
8288,814,812
8289,807,809
8290,803,807
8291,801,805
8292,798,804
8293,796,803
8294,794,803
8295,794,806
8296,794,809
8297,795,811
8298,794,813
8299,794,816
8300,790,811
8301,790,808
8302,784,805
8303,782,804
8304,781,801
8305,781,804
8306,783,806
8307,785,808
8308,787,810
8309,788,812
8310,790,809
8311,790,807
8312,791,803
8313,789,801
8314,791,799
8315,789,802
8316,787,803
8317,781,805
8318,780,805
8319,783,805
8320,787,810
8321,792,814
8322,796,812
8323,797,813
8324,798,808
8325,796,802
8326,793,799
8327,793,796
8328,792,795
8329,793,795
8330,794,799
8331,794,802
8332,792,807
8333,797,807
8334,799,807
8335,802,805
8336,802,804
8337,799,801
8338,793,802
8339,790,797
8340,785,794
8341,783,798
8342,780,798
8343,783,804
8344,789,803
8345,792,805
8346,792,804
8347,791,800
8348,785,798
8349,781,799
8350,779,794
8351,776,794
8352,774,792
8353,774,795
8354,776,797
8355,782,798
8356,788,799
8357,792,799
8358,790,795
8359,789,797
8360,786,794
8361,778,792
8362,776,790
8363,773,789
8364,776,792
8365,775,795
8366,776,794
8367,779,797
8368,782,800
8369,777,796
8370,779,796
8371,780,791
8372,780,791
8373,778,789
8374,779,792
8375,779,789
8376,775,790
8377,772,789
8378,769,787
8379,770,792
8380,771,793
8381,777,795
8382,782,796
8383,782,797
8384,784,792
8385,782,788
8386,780,788
8387,777,788
8388,775,785
8389,777,789
8390,779,793
8391,789,800
8392,793,804
8393,798,803
8394,800,804
8395,800,805
8396,799,802
8397,798,795
8398,797,791
8399,797,792
8400,794,793
8401,795,796
8402,797,795
8403,800,799
8404,807,795
8405,811,795
8406,816,793
8407,815,789
8408,814,789
8409,812,787
8410,811,785
8411,807,788
8412,803,788
8413,802,787
8414,807,789
8415,806,793
8416,802,791
8417,800,792
8418,801,792
8419,800,787
8420,799,786
8421,795,780
8422,789,777
8423,787,777
8424,780,777
8425,775,781
8426,775,783
8427,771,783
8428,768,785
8429,770,783
8430,769,782
8431,770,782
8432,769,777
8433,765,775
8434,762,774
8435,759,774
8436,759,776
8437,762,780
8438,765,785
8439,771,786
8440,774,789
8441,777,790
8442,778,787
8443,774,785
8444,771,779
8445,773,771
8446,780,759
8447,795,746
8448,819,728
8449,857,709
8450,915,695
8451,984,679
8452,1063,663
8453,1158,648
8454,1253,633
8455,1345,622
8456,1422,623
8457,1471,632
8458,1493,654
8459,1484,679
8460,1441,700
8461,1357,719
8462,1232,727
8463,1104,732
8464,976,732
8465,848,735
8466,720,743
8467,634,752
8468,665,764
8469,722,768
8470,788,771
8471,827,772
8472,841,775
8473,839,773
8474,817,774
8475,799,776
8476,784,777
8477,776,780
8478,781,782
8479,775,784
8480,776,781
8481,776,781
8482,775,780
8483,776,775
8484,777,780
8485,781,783
8486,781,786
8487,783,789
8488,785,792
8489,786,790
8490,783,790
8491,784,786
8492,783,783
8493,780,781
8494,780,783
8495,778,784
8496,780,780
8497,786,787
8498,789,792
8499,791,789
8500,792,790
8501,791,794
8502,797,794
8503,801,796
8504,803,792
8505,806,788
8506,808,790
8507,808,791
8508,807,794
8509,805,795
8510,807,798
8511,811,799
8512,817,802
8513,824,804
8514,828,801
8515,831,805
8516,833,802
8517,831,801
8518,832,801
8519,834,799
8520,835,800
8521,838,799
8522,840,804
8523,848,809
8524,852,812
8525,857,817
8526,869,812
8527,875,811
8528,879,811
8529,882,809
8530,884,807
8531,887,807
8532,889,810
8533,891,813
8534,897,815
8535,901,818
8536,908,820
8537,917,822
8538,922,823
8539,929,822
8540,929,823
8541,933,823
8542,936,819
8543,937,821
8544,938,818
8545,939,818
8546,938,821
8547,939,821
8548,944,823
8549,946,824
8550,945,824
8551,942,820
8552,940,821
8553,937,816
8554,932,812
8555,926,814
8556,915,808
8557,909,809
8558,900,809
8559,893,806
8560,882,803
8561,876,804
8562,868,798
8563,862,798
8564,857,797
8565,846,797
8566,834,793
8567,825,793
8568,818,793
8569,813,792
8570,808,789
8571,801,790
8572,801,793
8573,800,792
8574,797,791
8575,797,791
8576,795,786
8577,790,783
8578,791,779
8579,789,781
8580,786,779
8581,784,779
8582,778,782
8583,783,784
8584,780,788
8585,784,790
8586,786,788
8587,792,787
8588,793,787
8589,791,787
8590,790,786
8591,789,787
8592,790,789
8593,786,791
8594,780,793
8595,781,787
8596,781,792
8597,786,791
8598,791,788
8599,796,787
8600,796,785
8601,800,782
8602,798,783
8603,795,785
8604,790,785
8605,788,786
8606,788,790
8607,789,791
8608,794,795
8609,797,795
8610,798,797
8611,797,794
8612,796,794
8613,794,793
8614,795,791
8615,792,787
8616,790,787
8617,789,789
8618,788,789
8619,791,792
8620,791,798
8621,794,798
8622,797,796
8623,798,795
8624,797,791
8625,794,784
8626,788,786
8627,784,789
8628,784,789
8629,783,792
8630,784,795
8631,784,797
8632,787,798
8633,788,799
8634,791,795
8635,789,795
8636,792,792
8637,789,794
8638,788,791
8639,788,793
8640,786,794
8641,784,795
8642,781,794
8643,776,796
8644,774,797
8645,773,800
8646,776,803
8647,780,801
8648,785,799
8649,783,794
8650,780,790
8651,779,790
8652,780,794
8653,778,796
8654,781,797
8655,782,800
8656,780,799
8657,778,803
8658,778,800
8659,771,799
8660,775,799
8661,774,793
8662,778,796
8663,778,796
8664,780,796
8665,779,797
8666,777,799
8667,777,801
8668,782,798
8669,785,800
8670,788,807
8671,786,804
8672,785,808
8673,784,807
8674,784,806
8675,787,804
8676,786,807
8677,792,806
8678,796,810
8679,800,812
8680,804,812
8681,802,818
8682,806,813
8683,804,813
8684,802,814
8685,800,810
8686,797,807
8687,793,803
8688,795,805
8689,802,803
8690,809,802
8691,813,807
8692,814,809
8693,817,811
8694,819,816
8695,815,807
8696,812,805
8697,810,801
8698,808,799
8699,806,798
8700,806,799
8701,801,797
8702,795,802
8703,790,808
8704,787,808
8705,783,814
8706,783,811
8707,779,808
8708,778,801
8709,777,798
8710,770,796
8711,768,797
8712,765,800
8713,764,799
8714,764,800
8715,764,801
8716,765,803
8717,768,802
8718,771,803
8719,775,809
8720,775,812
8721,774,815
8722,770,820
8723,765,815
8724,760,811
8725,758,805
8726,762,800
8727,772,795
8728,791,779
8729,820,765
8730,859,744
8731,916,722
8732,989,700
8733,1074,678
8734,1176,663
8735,1278,650
8736,1373,649
8737,1446,658
8738,1492,678
8739,1504,706
8740,1478,731
8741,1409,750
8742,1281,764
8743,1153,764
8744,1025,766
8745,897,766
8746,769,769
8747,645,778
8748,692,788
8749,754,796
8750,813,799
8751,850,803
8752,858,811
8753,850,813
8754,827,813
8755,805,815
8756,789,814
8757,774,809
8758,771,810
8759,770,809
8760,773,811
8761,774,813
8762,775,813
8763,779,820
8764,780,822
8765,782,825
8766,782,827
8767,781,829
8768,781,830
8769,778,829
8770,778,825
8771,778,824
8772,779,823
8773,782,822
8774,784,821
8775,788,823
8776,790,829
8777,790,830
8778,790,831
8779,790,830
8780,791,828
8781,793,826
8782,795,823
8783,798,821
8784,798,822
8785,797,822
8786,795,823
8787,797,827
8788,800,832
8789,801,838
8790,810,844
8791,810,844
8792,814,843
8793,816,840
8794,817,836
8795,820,832
8796,824,835
8797,825,838
8798,829,838
8799,832,841
8800,838,839
8801,844,844
8802,849,844
8803,857,847
8804,864,847
8805,867,846
8806,875,847
8807,877,844
8808,880,846
8809,881,849
8810,890,851
8811,896,858
8812,904,863
8813,910,868
8814,918,871
8815,920,869
8816,922,865
8817,922,860
8818,927,858
8819,931,858
8820,932,857
8821,936,860
8822,935,865
8823,937,865
8824,939,865
8825,941,865
8826,941,865
8827,940,866
8828,939,863
8829,934,858
8830,925,855
8831,921,857
8832,911,854
8833,903,851
8834,891,853
8835,882,852
8836,876,849
8837,871,848
8838,865,848
8839,856,842
8840,848,843
8841,840,837
8842,830,837
8843,821,831
8844,815,832
8845,808,833
8846,801,836
8847,802,835
8848,799,836
8849,799,837
8850,797,836
8851,795,835
8852,790,831
8853,786,829
8854,783,831
8855,779,835
8856,780,836
8857,779,839
8858,781,837
8859,781,838
8860,781,836
8861,781,839
8862,783,840
8863,786,845
8864,785,838
8865,783,836
8866,783,835
8867,784,833
8868,782,834
8869,783,834
8870,786,839
8871,787,839
8872,790,842
8873,791,842
8874,793,844
8875,793,844
8876,791,844
8877,788,844
8878,785,841
8879,782,842
8880,782,839
8881,782,839
8882,784,842
8883,785,847
8884,787,848
8885,789,851
8886,792,852
8887,793,849
8888,794,847
8889,789,845
8890,786,841
8891,784,841
8892,783,842
8893,780,844
8894,777,845
8895,781,846
8896,782,849
8897,788,850
8898,790,853
8899,786,851
8900,782,850
8901,777,846
8902,773,847
8903,771,845
8904,769,841
8905,772,843
8906,768,845
8907,770,844
8908,773,846
8909,776,848
8910,781,847
8911,781,849
8912,782,849
8913,783,850
8914,783,850
8915,779,852
8916,774,849
8917,762,850
8918,760,848
8919,760,853
8920,758,850
8921,761,849
8922,771,852
8923,773,850
8924,773,848
8925,770,844
8926,770,841
8927,767,839
8928,759,841
8929,761,841
8930,759,845
8931,761,848
8932,762,856
8933,763,857
8934,764,857
8935,764,853
8936,764,850
8937,765,849
8938,763,850
8939,760,849
8940,761,851
8941,762,854
8942,758,859
8943,763,862
8944,766,864
8945,767,865
8946,773,863
8947,779,866
8948,784,864
8949,783,867
8950,784,868
8951,782,866
8952,778,867
8953,779,868
8954,778,868
8955,783,870
8956,789,872
8957,789,872
8958,796,871
8959,797,870
8960,799,862
8961,797,856
8962,795,856
8963,791,857
8964,789,858
8965,788,860
8966,788,865
8967,789,872
8968,787,871
8969,782,870
8970,786,871
8971,788,866
8972,787,865
8973,783,861
8974,781,861
8975,773,859
8976,766,860
8977,766,860
8978,760,859
8979,757,868
8980,750,868
8981,751,871
8982,750,868
8983,753,867
8984,757,867
8985,756,864
8986,752,862
8987,751,864
8988,751,865
8989,750,868
8990,751,871
8991,757,873
8992,758,873
8993,762,878
8994,763,881
8995,760,882
8996,759,876
8997,760,872
8998,762,860
8999,771,850
9000,793,833
9001,829,814
9002,883,800
9003,952,788
9004,1031,775
9005,1118,763
9006,1210,752
9007,1300,739
9008,1381,736
9009,1443,738
9010,1481,753
9011,1490,775
9012,1468,797
9013,1402,818
9014,1279,833
9015,1151,840
9016,1023,838
9017,895,845
9018,767,850
9019,661,862
9020,692,870
9021,745,876
9022,791,879
9023,818,880
9024,827,877
9025,817,878
9026,799,878
9027,783,880
9028,773,882
9029,766,889
9030,767,893
9031,766,889
9032,768,892
9033,768,889
9034,764,886
9035,766,887
9036,765,889
9037,763,890
9038,764,892
9039,770,897
9040,769,899
9041,773,898
9042,775,901
9043,775,897
9044,773,895
9045,773,897
9046,775,894
9047,777,893
9048,779,892
9049,778,892
9050,782,896
9051,783,898
9052,786,899
9053,792,899
9054,794,900
9055,795,903
9056,798,904
9057,793,905
9058,790,902
9059,789,901
9060,788,901
9061,786,900
9062,795,904
9063,801,906
9064,805,907
9065,810,909
9066,816,910
9067,818,911
9068,820,914
9069,824,914
9070,821,911
9071,820,906
9072,822,908
9073,819,912
9074,825,916
9075,833,918
9076,839,922
9077,847,926
9078,854,925
9079,862,926
9080,872,925
9081,877,924
9082,882,922
9083,886,924
9084,889,926
9085,893,929
9086,900,931
9087,904,932
9088,911,933
9089,914,938
9090,922,942
9091,923,942
9092,924,939
9093,925,940
9094,927,936
9095,925,934
9096,926,929
9097,921,932
9098,916,933
9099,913,938
9100,906,940
9101,898,940
9102,888,937
9103,881,932
9104,870,928
9105,861,926
9106,849,922
9107,842,923
9108,829,920
9109,822,916
9110,819,914
9111,817,914
9112,814,918
9113,812,919
9114,808,920
9115,801,918
9116,795,917
9117,784,915
9118,782,912
9119,775,906
9120,770,907
9121,769,907
9122,769,906
9123,767,910
9124,768,912
9125,770,914
9126,771,917
9127,772,914
9128,772,916
9129,777,911
9130,771,910
9131,771,909
9132,770,909
9133,767,911
9134,763,911
9135,762,911
9136,762,916
9137,768,914
9138,769,914
9139,771,914
9140,773,917
9141,774,913
9142,775,913
9143,775,915
9144,771,913
9145,768,914
9146,767,917
9147,769,919
9148,769,920
9149,774,921
9150,777,922
9151,779,925
9152,778,923
9153,775,920
9154,771,916
9155,767,911
9156,768,912
9157,767,912
9158,768,913
9159,770,921
9160,777,927
9161,779,931
9162,780,934
9163,779,927
9164,773,928
9165,770,924
9166,767,921
9167,764,918
9168,762,919
9169,762,922
9170,763,924
9171,769,925
9172,770,928
9173,771,930
9174,772,932
9175,770,933
9176,765,930
9177,759,930
9178,753,926
9179,751,927
9180,747,927
9181,747,927
9182,751,931
9183,752,932
9184,753,932
9185,756,936
9186,756,935
9187,757,933
9188,755,929
9189,751,924
9190,751,925
9191,749,924
9192,745,927
9193,747,927
9194,746,930
9195,747,933
9196,750,933
9197,753,933
9198,751,932
9199,753,931
9200,753,930
9201,751,929
9202,744,930
9203,743,932
9204,741,930
9205,740,929
9206,739,929
9207,738,931
9208,738,937
9209,744,942
9210,749,941
9211,754,944
9212,762,944
9213,765,939
9214,769,943
9215,771,938
9216,768,942
9217,765,944
9218,760,948
9219,756,949
9220,753,951
9221,757,949
9222,763,953
9223,763,949
9224,765,947
9225,766,942
9226,766,936
9227,767,938
9228,768,941
9229,771,939
9230,775,941
9231,778,941
9232,784,940
9233,784,941
9234,783,944
9235,781,941
9236,781,946
9237,777,946
9238,775,946
9239,774,942
9240,770,938
9241,770,936
9242,769,936
9243,770,936
9244,769,938
9245,772,937
9246,769,940
9247,766,940
9248,762,937
9249,755,934
9250,745,930
9251,738,928
9252,737,931
9253,743,934
9254,746,937
9255,751,938
9256,752,939
9257,754,938
9258,753,939
9259,750,936
9260,749,938
9261,747,935
9262,750,938
9263,752,935
9264,753,939
9265,755,942
9266,755,942
9267,753,948
9268,754,943
9269,758,940
9270,767,936
9271,776,925
9272,796,915
9273,824,900
9274,863,884
9275,916,870
9276,984,858
9277,1060,850
9278,1142,841
9279,1224,835
9280,1304,827
