'sample #','MLII','V2'
0,839,930
1,839,930
2,839,930
3,839,930
4,839,930
5,839,930
6,839,930
7,840,930
8,840,930
9,836,927
10,836,926
11,833,922
12,830,921
13,830,921
14,828,921
15,828,923
16,831,924
17,834,923
18,836,928
19,842,929
20,839,923
21,838,924
22,835,918
23,834,922
24,832,918
25,832,917
26,831,921
27,830,919
28,831,922
29,830,923
30,827,925
31,834,924
32,834,919
33,834,923
34,838,919
35,839,916
36,836,917
37,834,915
38,830,916
39,833,916
40,832,921
41,832,923
42,835,923
43,838,922
44,839,923
45,836,920
46,836,919
47,836,919
48,833,915
49,834,915
50,828,914
51,832,918
52,831,918
53,835,922
54,834,921
55,835,924
56,835,922
57,833,919
58,832,918
59,833,918
60,830,915
61,828,913
62,830,916
63,829,920
64,831,919
65,834,921
66,834,921
67,837,922
68,838,921
69,838,919
70,836,917
71,837,914
72,834,910
73,830,913
74,831,912
75,831,913
76,830,918
77,830,920
78,832,920
79,838,920
80,834,918
81,832,919
82,829,915
83,833,917
84,832,911
85,832,912
86,832,912
87,830,914
88,833,917
89,836,920
90,836,919
91,838,919
92,839,922
93,838,918
94,839,917
95,837,913
96,832,908
97,834,912
98,832,909
99,833,910
100,835,917
101,836,913
102,839,914
103,840,920
104,839,914
105,840,917
106,839,913
107,837,913
108,837,910
109,837,911
110,832,910
111,835,915
112,843,914
113,847,916
114,853,919
115,859,922
116,859,918
117,861,917
118,859,917
119,862,914
120,857,913
121,857,918
122,857,921
123,867,925
124,868,928
125,872,934
126,874,937
127,872,941
128,875,944
129,874,946
130,869,946
131,868,951
132,864,952
133,859,953
134,855,952
135,856,952
136,857,953
137,859,954
138,857,955
139,854,955
140,851,949
141,845,948
142,840,941
143,838,938
144,836,930
145,835,926
146,833,925
147,828,926
148,830,923
149,830,924
150,830,929
151,837,927
152,831,928
153,832,922
154,832,921
155,831,915
156,827,915
157,827,913
158,826,914
159,825,916
160,829,918
161,827,920
162,830,920
163,833,922
164,835,917
165,835,917
166,833,914
167,834,911
168,830,912
169,827,907
170,829,909
171,834,915
172,843,914
173,858,917
174,874,924
175,900,939
176,924,967
177,956,1005
178,989,1048
179,1017,1098
180,1030,1149
181,1026,1202
182,1002,1241
183,958,1262
184,908,1259
185,851,1225
186,793,1168
187,741,1100
188,699,1012
189,673,939
190,672,879
191,688,851
192,711,852
193,735,867
194,758,888
195,775,907
196,791,918
197,804,921
198,821,925
199,836,927
200,847,929
201,852,926
202,851,926
203,850,926
204,847,926
205,846,923
206,843,924
207,842,926
208,846,927
209,854,929
210,855,934
211,857,932
212,855,934
213,857,931
214,856,930
215,854,927
216,858,926
217,855,925
218,855,927
219,853,929
220,860,933
221,862,937
222,862,937
223,866,936
224,867,937
225,867,935
226,869,937
227,866,934
228,868,935
229,864,935
230,867,937
231,867,934
232,868,940
233,872,942
234,873,946
235,878,945
236,880,947
237,880,944
238,879,941
239,878,943
240,879,941
241,879,944
242,880,943
243,876,948
244,879,951
245,883,954
246,887,957
247,892,957
248,888,961
249,891,963
250,893,959
251,895,959
252,894,959
253,899,964
254,898,966
255,901,971
256,906,976
257,910,981
258,912,989
259,918,988
260,921,992
261,923,996
262,927,996
263,930,997
264,928,997
265,934,1000
266,934,1007
267,936,1011
268,945,1017
269,948,1022
270,957,1028
271,963,1035
272,963,1034
273,966,1038
274,969,1037
275,969,1042
276,974,1038
277,973,1040
278,974,1044
279,976,1049
280,980,1053
281,984,1057
282,985,1061
283,989,1061
284,990,1063
285,990,1061
286,989,1062
287,988,1059
288,985,1058
289,985,1057
290,978,1051
291,977,1049
292,971,1052
293,971,1049
294,968,1047
295,964,1039
296,957,1030
297,952,1024
298,944,1017
299,938,1007
300,930,999
301,923,990
302,916,984
303,911,979
304,906,974
305,902,968
306,898,964
307,894,959
308,891,950
309,886,944
310,877,938
311,874,934
312,869,927
313,865,925
314,866,925
315,860,919
316,862,926
317,862,922
318,862,924
319,861,921
320,861,921
321,860,914
322,859,915
323,855,913
324,851,910
325,850,912
326,846,911
327,847,911
328,849,915
329,850,914
330,850,915
331,854,915
332,852,915
333,853,914
334,853,910
335,852,909
336,850,910
337,850,908
338,850,909
339,851,910
340,851,911
341,854,916
342,856,919
343,855,919
344,860,918
345,852,920
346,850,913
347,852,913
348,851,913
349,850,914
350,851,914
351,852,917
352,855,918
353,856,918
354,860,923
355,860,923
356,860,920
357,858,922
358,859,918
359,857,918
360,854,915
361,850,914
362,849,912
363,849,918
364,848,917
365,849,919
366,849,919
367,851,917
368,853,919
369,853,919
370,851,915
371,848,914
372,849,912
373,846,905
374,845,908
375,844,908
376,846,910
377,845,913
378,847,914
379,847,913
380,847,913
381,846,909
382,844,905
383,841,904
384,841,900
385,840,899
386,837,902
387,840,903
388,839,905
389,843,908
390,844,906
391,845,911
392,843,907
393,841,904
394,838,903
395,838,902
396,834,902
397,835,900
398,829,899
399,833,903
400,838,902
401,837,903
402,842,906
403,843,906
404,845,905
405,842,905
406,843,901
407,841,901
408,841,900
409,837,901
410,838,896
411,837,900
412,838,904
413,840,903
414,841,906
415,843,904
416,840,904
417,840,904
418,839,900
419,841,899
420,838,896
421,836,900
422,835,900
423,834,901
424,838,906
425,840,901
426,840,906
427,842,908
428,840,907
429,841,903
430,840,899
431,836,900
432,834,894
433,835,894
434,836,898
435,835,897
436,835,900
437,836,901
438,839,902
439,838,901
440,840,900
441,839,897
442,837,897
443,837,896
444,835,896
445,835,889
446,829,892
447,829,891
448,832,894
449,837,897
450,839,898
451,841,897
452,839,899
453,839,897
454,840,895
455,839,893
456,837,890
457,837,891
458,834,891
459,836,891
460,837,895
461,839,895
462,839,897
463,841,900
464,840,900
465,839,897
466,840,900
467,837,900
468,835,900
469,833,900
470,833,897
471,833,899
472,834,903
473,838,906
474,838,907
475,841,908
476,840,906
477,838,905
478,835,901
479,833,901
480,830,901
481,828,900
482,832,900
483,829,895
484,835,902
485,836,902
486,837,905
487,841,907
488,840,904
489,838,902
490,839,901
491,836,900
492,836,898
493,837,896
494,835,899
495,836,895
496,837,903
497,839,903
498,840,906
499,840,903
500,841,903
501,838,902
502,840,901
503,840,899
504,838,896
505,836,896
506,835,901
507,837,900
508,838,902
509,839,903
510,841,904
511,842,905
512,843,904
513,843,901
514,841,898
515,837,899
516,837,897
517,835,897
518,838,898
519,843,900
520,847,899
521,852,901
522,855,904
523,861,905
524,862,903
525,864,903
526,863,901
527,858,903
528,860,903
529,859,905
530,864,906
531,865,910
532,867,913
533,872,919
534,877,923
535,880,926
536,879,931
537,876,931
538,874,934
539,870,935
540,864,930
541,862,928
542,860,929
543,862,930
544,859,928
545,859,932
546,855,932
547,856,931
548,849,923
549,847,921
550,840,919
551,839,911
552,835,907
553,834,900
554,834,901
555,833,897
556,835,901
557,835,900
558,836,900
559,839,902
560,838,899
561,835,900
562,835,894
563,834,895
564,832,890
565,828,890
566,830,888
567,830,892
568,830,889
569,832,895
570,832,897
571,835,894
572,833,899
573,834,896
574,833,898
575,831,897
576,832,893
577,832,892
578,833,892
579,835,896
580,840,897
581,842,897
582,852,897
583,867,902
584,881,908
585,904,925
586,926,948
587,953,984
588,979,1031
589,1004,1080
590,1015,1134
591,1006,1184
592,982,1219
593,938,1236
594,886,1225
595,830,1188
596,776,1126
597,726,1045
598,691,962
599,678,892
600,684,845
601,704,829
602,726,836
603,749,856
604,769,875
605,784,886
606,800,900
607,817,901
608,828,902
609,838,903
610,847,905
611,846,906
612,846,907
613,850,906
614,845,904
615,842,903
616,845,905
617,850,909
618,853,908
619,856,911
620,860,907
621,858,912
622,860,907
623,857,909
624,855,906
625,856,907
626,855,910
627,857,906
628,858,911
629,858,910
630,862,916
631,866,915
632,866,916
633,866,913
634,866,911
635,864,911
636,864,911
637,864,910
638,864,913
639,862,917
640,867,917
641,868,920
642,869,920
643,873,925
644,873,921
645,872,923
646,873,924
647,873,917
648,872,918
649,870,917
650,873,926
651,871,925
652,873,930
653,875,930
654,878,929
655,883,932
656,876,933
657,882,933
658,883,934
659,881,930
660,882,930
661,882,934
662,883,932
663,886,936
664,891,941
665,895,945
666,902,949
667,905,951
668,906,952
669,905,951
670,908,951
671,909,953
672,911,955
673,912,958
674,914,961
675,918,965
676,921,973
677,928,979
678,931,983
679,938,988
680,943,991
681,949,993
682,946,996
683,948,998
684,951,1000
685,955,1003
686,955,1007
687,961,1009
688,964,1017
689,968,1019
690,974,1023
691,974,1026
692,976,1030
693,978,1027
694,979,1027
695,980,1028
696,977,1025
697,977,1027
698,978,1026
699,979,1027
700,975,1031
701,976,1031
702,974,1035
703,974,1030
704,972,1024
705,970,1021
706,963,1014
707,957,1009
708,949,1001
709,941,995
710,934,988
711,928,985
712,924,978
713,923,975
714,914,968
715,909,961
716,907,956
717,901,947
718,895,939
719,888,933
720,880,929
721,874,921
722,869,914
723,869,910
724,864,912
725,862,905
726,862,904
727,861,906
728,860,899
729,856,896
730,851,892
731,849,889
732,847,882
733,844,883
734,846,885
735,845,882
736,844,886
737,847,887
738,847,887
739,847,887
740,846,885
741,848,883
742,847,881
743,845,882
744,842,879
745,843,876
746,842,880
747,845,881
748,846,886
749,846,884
750,848,886
751,851,890
752,851,885
753,851,886
754,853,886
755,847,885
756,850,887
757,848,885
758,844,884
759,845,885
760,847,887
761,850,891
762,850,893
763,853,892
764,854,891
765,854,892
766,853,891
767,851,889
768,850,888
769,849,890
770,845,887
771,843,887
772,845,889
773,845,890
774,844,895
775,849,895
776,847,896
777,847,894
778,847,889
779,844,889
780,842,883
781,841,881
782,838,880
783,836,883
784,837,887
785,838,887
786,841,889
787,842,889
788,840,887
789,843,886
790,839,884
791,835,882
792,836,880
793,832,877
794,829,880
795,831,880
796,832,880
797,833,883
798,833,884
799,830,884
800,835,882
801,835,882
802,835,879
803,831,878
804,830,876
805,828,873
806,825,874
807,822,872
808,820,876
809,825,879
810,826,879
811,830,884
812,830,879
813,830,877
814,831,879
815,826,876
816,825,874
817,823,872
818,821,872
819,824,876
820,825,878
821,826,878
822,826,878
823,826,882
824,824,878
825,825,882
826,824,879
827,824,878
828,823,878
829,820,876
830,817,876
831,818,876
832,819,879
833,820,881
834,822,882
835,825,885
836,823,883
837,824,880
838,822,876
839,818,877
840,819,879
841,818,874
842,815,874
843,815,878
844,819,879
845,817,880
846,820,883
847,823,884
848,823,882
849,823,881
850,822,877
851,820,876
852,821,875
853,817,876
854,816,874
855,815,878
856,814,880
857,818,880
858,819,884
859,821,886
860,820,883
861,821,881
862,822,878
863,816,876
864,817,874
865,814,871
866,814,872
867,814,876
868,815,872
869,815,876
870,820,877
871,824,880
872,824,883
873,821,881
874,822,880
875,822,878
876,820,873
877,817,874
878,812,874
879,812,877
880,818,881
881,816,881
882,818,883
883,822,882
884,821,881
885,820,881
886,824,879
887,822,884
888,821,880
889,818,880
890,818,882
891,817,886
892,817,883
893,817,887
894,818,888
895,819,888
896,824,890
897,823,885
898,819,884
899,818,885
900,819,882
901,815,882
902,814,878
903,816,883
904,816,882
905,822,886
906,822,887
907,823,889
908,822,889
909,822,888
910,820,886
911,820,885
912,822,882
913,820,885
914,819,883
915,816,887
916,820,886
917,821,890
918,823,890
919,826,889
920,825,890
921,828,889
922,828,887
923,827,886
924,824,886
925,824,885
926,825,886
927,827,888
928,831,891
929,833,889
930,838,892
931,839,893
932,839,889
933,840,889
934,838,890
935,840,889
936,844,890
937,845,892
938,847,894
939,849,899
940,849,904
941,855,905
942,859,910
943,860,912
944,863,916
945,862,916
946,860,920
947,856,923
948,851,923
949,846,920
950,844,919
951,841,918
952,843,919
953,845,919
954,842,922
955,841,922
956,836,915
957,832,915
958,829,913
959,823,906
960,823,902
961,822,899
962,822,898
963,818,897
964,817,898
965,816,898
966,821,898
967,821,899
968,819,898
969,820,898
970,819,894
971,815,888
972,815,889
973,813,887
974,812,887
975,812,886
976,812,889
977,815,890
978,816,892
979,817,894
980,821,895
981,822,892
982,823,894
983,817,891
984,820,892
985,817,892
986,817,888
987,820,892
988,828,893
989,842,897
990,858,907
991,881,925
992,904,955
993,932,992
994,957,1038
995,981,1085
996,991,1136
997,984,1177
998,957,1209
999,861,1213
1000,805,1183
1001,749,1132
1002,703,1058
1003,665,977
1004,643,892
1005,639,822
1006,652,785
1007,672,777
1008,695,799
1009,714,824
1010,731,846
1011,745,864
1012,762,874
1013,779,881
1014,793,888
1015,809,890
1016,820,899
1017,827,901
1018,825,903
1019,826,906
1020,824,906
1021,823,905
1022,823,907
1023,826,908
1024,826,909
1025,829,911
1026,832,911
1027,836,911
1028,840,911
1029,839,912
1030,837,912
1031,837,912
1032,838,912
1033,835,915
1034,840,917
1035,838,920
1036,839,923
1037,842,924
1038,846,925
1039,848,927
1040,850,926
1041,850,923
1042,845,924
1043,846,922
1044,843,923
1045,843,923
1046,845,924
1047,845,927
1048,849,930
1049,849,935
1050,854,935
1051,853,936
1052,856,937
1053,855,936
1054,850,936
1055,851,931
1056,851,937
1057,853,935
1058,853,938
1059,857,939
1060,860,944
1061,865,947
1062,862,950
1063,866,950
1064,867,950
1065,868,952
1066,867,954
1067,865,953
1068,866,955
1069,870,957
1070,870,958
1071,875,962
1072,877,966
1073,879,969
1074,885,978
1075,892,980
1076,895,979
1077,894,982
1078,897,986
1079,900,987
1080,901,993
1081,902,993
1082,907,1001
1083,911,1007
1084,917,1009
1085,922,1014
1086,926,1017
1087,930,1023
1088,935,1026
1089,938,1028
1090,938,1031
1091,938,1032
1092,941,1038
1093,944,1039
1094,946,1045
1095,949,1052
1096,953,1056
1097,958,1057
1098,965,1065
1099,967,1066
1100,967,1069
1101,971,1066
1102,968,1064
1103,968,1063
1104,967,1066
1105,961,1066
1106,965,1067
1107,962,1065
1108,965,1067
1109,964,1063
1110,963,1064
1111,960,1055
1112,955,1048
1113,950,1041
1114,944,1034
1115,938,1022
1116,928,1015
1117,919,1006
1118,912,998
1119,905,992
1120,901,987
1121,896,978
1122,893,973
1123,889,963
1124,882,954
1125,878,948
1126,872,941
1127,869,933
1128,864,930
1129,858,924
1130,855,920
1131,852,919
1132,851,918
1133,850,918
1134,852,917
1135,851,913
1136,848,913
1137,846,908
1138,842,904
1139,841,900
1140,837,902
1141,838,898
1142,838,900
1143,838,900
1144,841,899
1145,841,901
1146,843,904
1147,843,901
1148,842,901
1149,844,899
1150,837,894
1151,837,895
1152,832,894
1153,834,892
1154,836,894
1155,838,897
1156,839,896
1157,842,900
1158,845,903
1159,845,903
1160,849,902
1161,847,901
1162,845,901
1163,845,897
1164,842,894
1165,841,899
1166,842,899
1167,845,905
1168,843,906
1169,844,908
1170,847,910
1171,848,909
1172,849,906
1173,847,907
1174,846,902
1175,847,901
1176,845,902
1177,842,905
1178,844,903
1179,843,906
1180,845,909
1181,846,908
1182,846,911
1183,848,908
1184,849,908
1185,843,904
1186,844,905
1187,842,901
1188,838,902
1189,839,900
1190,837,901
1191,838,903
1192,837,902
1193,840,905
1194,843,907
1195,844,904
1196,843,901
1197,843,897
1198,837,894
1199,836,889
1200,834,889
1201,833,890
1202,833,891
1203,831,892
1204,835,894
1205,837,895
1206,838,896
1207,837,897
1208,835,893
1209,837,892
1210,835,893
1211,836,889
1212,831,887
1213,830,885
1214,831,888
1215,832,889
1216,833,893
1217,833,894
1218,833,893
1219,835,891
1220,835,891
1221,834,888
1222,830,885
1223,832,887
1224,830,884
1225,830,884
1226,829,885
1227,831,886
1228,831,889
1229,833,891
1230,833,895
1231,833,891
1232,833,891
1233,831,890
1234,831,888
1235,829,888
1236,828,889
1237,824,887
1238,827,887
1239,829,888
1240,829,891
1241,833,893
1242,834,895
1243,834,894
1244,833,891
1245,831,891
1246,830,891
1247,832,888
1248,831,887
1249,828,888
1250,829,888
1251,829,892
1252,829,893
1253,831,895
1254,834,896
1255,832,890
1256,830,892
1257,828,892
1258,835,890
1259,831,888
1260,828,889
1261,826,887
1262,827,886
1263,829,890
1264,828,892
1265,831,894
1266,832,894
1267,834,893
1268,833,890
1269,833,888
1270,833,891
1271,830,889
1272,830,888
1273,831,888
1274,828,888
1275,830,890
1276,832,891
1277,833,893
1278,834,894
1279,836,896
1280,835,893
1281,835,890
1282,830,887
1283,831,890
1284,830,889
1285,829,889
1286,829,892
1287,829,889
1288,832,894
1289,834,895
1290,834,897
1291,834,898
1292,838,896
1293,839,893
1294,837,893
1295,836,889
1296,834,891
1297,832,890
1298,832,892
1299,833,894
1300,830,897
1301,832,899
1302,834,900
1303,833,899
1304,835,899
1305,835,897
1306,836,894
1307,835,894
1308,831,893
1309,832,895
1310,832,895
1311,834,899
1312,834,898
1313,834,897
1314,838,900
1315,838,899
1316,838,902
1317,838,898
1318,836,896
1319,837,895
1320,832,890
1321,833,889
1322,834,889
1323,835,895
1324,835,894
1325,838,898
1326,839,902
1327,842,901
1328,841,898
1329,840,901
1330,840,898
1331,842,899
1332,845,895
1333,843,897
1334,849,900
1335,849,901
1336,855,903
1337,858,901
1338,857,906
1339,861,905
1340,862,905
1341,864,910
1342,863,912
1343,868,911
1344,866,918
1345,868,916
1346,869,920
1347,870,926
1348,870,932
1349,870,935
1350,867,939
1351,862,940
1352,864,935
1353,862,935
1354,861,933
1355,858,933
1356,855,928
1357,855,929
1358,849,926
1359,844,928
1360,843,928
1361,842,924
1362,839,921
1363,840,917
1364,839,914
1365,840,907
1366,841,908
1367,836,903
1368,833,902
1369,829,901
1370,830,905
1371,830,907
1372,833,906
1373,833,906
1374,833,910
1375,832,906
1376,832,903
1377,837,903
1378,834,902
1379,832,896
1380,831,899
1381,831,900
1382,830,902
1383,831,900
1384,835,904
1385,835,904
1386,837,907
1387,839,904
1388,838,904
1389,840,903
1390,839,904
1391,837,899
1392,843,896
1393,852,897
1394,865,901
1395,884,915
1396,909,938
1397,937,971
1398,971,1015
1399,994,1060
1400,1017,1112
1401,1020,1162
1402,1012,1208
1403,983,1243
1404,939,1257
1405,884,1239
1406,828,1193
1407,775,1130
1408,729,1052
1409,700,976
1410,692,909
1411,701,862
1412,724,852
1413,749,860
1414,771,877
1415,791,891
1416,803,903
1417,815,908
1418,827,908
1419,841,908
1420,843,909
1421,850,913
1422,857,916
1423,857,916
1424,856,915
1425,853,910
1426,850,908
1427,853,906
1428,855,909
1429,853,907
1430,857,909
1431,859,908
1432,860,912
1433,862,916
1434,863,918
1435,865,918
1436,865,919
1437,867,920
1438,867,919
1439,865,919
1440,863,921
1441,863,917
1442,863,919
1443,860,923
1444,866,926
1445,867,927
1446,872,931
1447,874,931
1448,876,929
1449,875,931
1450,876,927
1451,871,928
1452,871,929
1453,868,926
1454,872,930
1455,872,932
1456,875,934
1457,877,938
1458,879,939
1459,880,941
1460,883,941
1461,883,938
1462,882,938
1463,882,938
1464,883,939
1465,877,939
1466,883,941
1467,885,945
1468,887,946
1469,891,950
1470,894,954
1471,895,954
1472,898,955
1473,897,953
1474,897,953
1475,895,954
1476,896,958
1477,901,957
1478,904,962
1479,906,965
1480,908,969
1481,914,974
1482,917,976
1483,921,979
1484,922,976
1485,925,980
1486,928,982
1487,929,984
1488,931,985
1489,933,985
1490,936,990
1491,937,997
1492,942,1001
1493,949,1008
1494,953,1010
1495,958,1014
1496,963,1017
1497,964,1019
1498,964,1023
1499,967,1023
1500,965,1026
1501,972,1031
1502,974,1033
1503,974,1036
1504,981,1044
1505,985,1047
1506,984,1049
1507,989,1051
1508,989,1053
1509,994,1049
1510,992,1049
1511,991,1048
1512,990,1051
1513,987,1050
1514,987,1053
1515,985,1050
1516,986,1049
1517,982,1049
1518,981,1046
1519,978,1039
1520,973,1037
1521,964,1027
1522,958,1020
1523,949,1010
1524,944,1007
1525,938,999
1526,935,994
1527,929,989
1528,923,984
1529,920,977
1530,914,975
1531,913,967
1532,908,957
1533,903,954
1534,894,946
1535,887,940
1536,883,938
1537,879,932
1538,876,929
1539,876,928
1540,874,926
1541,872,925
1542,871,924
1543,872,921
1544,869,921
1545,867,912
1546,866,911
1547,864,908
1548,862,906
1549,859,905
1550,858,904
1551,859,906
1552,859,908
1553,861,906
1554,863,908
1555,861,904
1556,863,905
1557,860,902
1558,860,904
1559,858,898
1560,855,898
1561,855,897
1562,855,897
1563,854,901
1564,856,902
1565,861,901
1566,864,900
1567,864,903
1568,865,904
1569,866,900
1570,865,899
1571,864,899
1572,861,896
1573,860,900
1574,853,898
1575,856,898
1576,858,906
1577,864,906
1578,867,904
1579,868,906
1580,867,903
1581,867,900
1582,866,900
1583,863,902
1584,861,898
1585,858,897
1586,856,900
1587,859,901
1588,861,902
1589,861,904
1590,862,907
1591,861,904
1592,860,902
1593,857,903
1594,860,895
1595,856,895
1596,853,894
1597,853,892
1598,851,897
1599,854,896
1600,853,898
1601,855,899
1602,856,901
1603,854,903
1604,854,899
1605,853,896
1606,849,896
1607,846,895
1608,847,899
1609,845,894
1610,845,895
1611,845,899
1612,847,898
1613,843,897
1614,848,901
1615,847,901
1616,850,899
1617,847,896
1618,848,894
1619,846,891
1620,843,890
1621,843,888
1622,842,890
1623,844,890
1624,841,892
1625,843,893
1626,843,895
1627,847,891
1628,845,891
1629,844,890
1630,844,886
1631,843,886
1632,842,884
1633,842,882
1634,842,885
1635,843,888
1636,838,887
1637,843,889
1638,844,888
1639,844,888
1640,843,890
1641,843,886
1642,837,885
1643,839,883
1644,840,879
1645,837,878
1646,836,884
1647,839,882
1648,837,887
1649,842,884
1650,842,888
1651,841,890
1652,840,888
1653,840,887
1654,840,887
1655,838,884
1656,840,883
1657,836,883
1658,835,884
1659,836,888
1660,837,886
1661,835,887
1662,837,890
1663,839,891
1664,837,889
1665,840,886
1666,837,888
1667,837,886
1668,837,886
1669,835,881
1670,836,882
1671,834,888
1672,839,888
1673,837,889
1674,839,893
1675,839,887
1676,839,887
1677,839,886
1678,835,881
1679,835,880
1680,835,883
1681,832,881
1682,833,883
1683,835,883
1684,836,887
1685,840,887
1686,841,887
1687,842,886
1688,842,884
1689,842,884
1690,838,881
1691,839,881
1692,838,882
1693,834,884
1694,833,884
1695,837,885
1696,840,883
1697,836,890
1698,839,884
1699,841,885
1700,842,884
1701,842,884
1702,839,881
1703,838,879
1704,834,879
1705,834,878
1706,832,880
1707,834,882
1708,837,888
1709,836,887
1710,838,888
1711,838,887
1712,840,885
1713,838,885
1714,839,885
1715,839,881
1716,838,884
1717,836,885
1718,836,883
1719,840,887
1720,841,886
1721,839,889
1722,842,891
1723,841,889
1724,842,889
1725,844,890
1726,842,888
1727,838,884
1728,839,886
1729,835,885
1730,834,884
1731,835,889
1732,837,892
1733,841,891
1734,843,893
1735,844,892
1736,845,893
1737,846,889
1738,845,890
1739,844,885
1740,839,887
1741,837,888
1742,839,888
1743,840,888
1744,840,891
1745,840,890
1746,841,891
1747,845,888
1748,845,890
1749,845,890
1750,844,887
1751,844,889
1752,843,885
1753,844,885
1754,847,887
1755,847,885
1756,851,892
1757,854,894
1758,858,893
1759,858,892
1760,862,892
1761,858,891
1762,860,890
1763,860,891
1764,860,896
1765,862,893
1766,865,894
1767,867,900
1768,873,905
1769,878,910
1770,878,911
1771,882,912
1772,884,915
1773,882,920
1774,875,920
1775,874,921
1776,867,921
1777,860,918
1778,861,920
1779,860,923
1780,862,923
1781,862,921
1782,860,923
1783,860,923
1784,857,918
1785,853,915
1786,845,910
1787,842,905
1788,841,900
1789,839,896
1790,839,894
1791,839,896
1792,841,897
1793,838,895
1794,840,897
1795,840,896
1796,837,895
1797,834,893
1798,831,889
1799,831,889
1800,825,888
1801,828,886
1802,827,887
1803,829,889
1804,833,892
1805,830,891
1806,836,894
1807,839,893
1808,836,890
1809,832,890
1810,834,885
1811,834,887
1812,829,885
1813,831,887
1814,832,890
1815,832,891
1816,839,889
1817,844,889
1818,852,890
1819,866,894
1820,883,906
1821,903,924
1822,925,954
1823,953,991
1824,978,1034
1825,995,1084
1826,1002,1137
1827,988,1179
1828,962,1209
1829,918,1218
1830,870,1199
1831,822,1154
1832,768,1087
1833,725,1011
1834,690,933
1835,682,867
1836,685,825
1837,704,814
1838,726,826
1839,748,847
1840,773,871
1841,793,879
1842,805,889
1843,821,892
1844,832,895
1845,844,895
1846,846,896
1847,849,895
1848,849,895
1849,847,896
1850,844,893
1851,841,896
1852,843,897
1853,848,898
1854,854,899
1855,856,899
1856,857,899
1857,855,899
1858,857,899
1859,859,897
1860,855,899
1861,857,900
1862,854,901
1863,856,905
1864,856,909
1865,859,909
1866,858,912
1867,861,908
1868,863,910
1869,860,909
1870,861,904
1871,860,904
1872,859,906
1873,858,905
1874,860,907
1875,863,911
1876,866,917
1877,867,915
1878,870,920
1879,869,922
1880,871,921
1881,871,921
1882,870,917
1883,871,918
1884,865,916
1885,866,918
1886,865,915
1887,865,924
1888,871,926
1889,874,925
1890,873,931
1891,878,926
1892,877,929
1893,879,929
1894,880,931
1895,879,926
1896,878,929
1897,878,928
1898,879,932
1899,877,935
1900,883,940
1901,887,945
1902,889,950
1903,894,950
1904,897,950
1905,897,954
1906,899,952
1907,899,955
1908,902,959
1909,901,960
1910,904,963
1911,909,968
1912,912,974
1913,915,977
1914,919,984
1915,927,985
1916,929,990
1917,932,994
1918,939,994
1919,939,996
1920,943,996
1921,938,1003
1922,945,1006
1923,949,1010
1924,951,1017
1925,955,1021
1926,965,1025
1927,971,1033
1928,973,1035
1929,975,1034
1930,974,1034
1931,972,1039
1932,972,1039
1933,970,1040
1934,972,1042
1935,972,1046
1936,973,1044
1937,972,1046
1938,970,1046
1939,972,1042
1940,971,1039
1941,966,1035
1942,960,1024
1943,955,1018
1944,946,1011
1945,943,1005
1946,933,1000
1947,926,991
1948,922,987
1949,918,980
1950,910,972
1951,904,962
1952,900,958
1953,894,947
1954,886,938
1955,881,931
1956,873,926
1957,871,920
1958,866,915
1959,862,911
1960,861,913
1961,860,912
1962,862,911
1963,860,914
1964,856,909
1965,853,905
1966,852,906
1967,848,902
1968,847,900
1969,846,898
1970,845,898
1971,845,898
1972,845,898
1973,846,898
1974,848,899
1975,847,898
1976,847,894
1977,850,892
1978,848,892
1979,845,890
1980,844,890
1981,846,887
1982,843,891
1983,841,890
1984,841,895
1985,847,898
1986,845,899
1987,849,898
1988,844,895
1989,841,897
1990,842,892
1991,842,887
1992,843,894
1993,842,891
1994,842,896
1995,839,895
1996,842,898
1997,845,898
1998,845,902
1999,846,900
2000,848,900
2001,845,901
2002,846,901
2003,844,901
2004,843,897
2005,841,897
2006,839,897
2007,839,899
2008,842,900
2009,845,906
2010,845,906
2011,850,907
2012,847,906
2013,847,907
2014,843,905
2015,840,900
2016,838,896
2017,840,897
2018,837,901
2019,835,897
2020,837,902
2021,833,901
2022,838,901
2023,840,906
2024,838,902
2025,835,901
2026,834,896
2027,832,894
2028,828,893
2029,829,891
2030,829,895
2031,826,894
2032,830,894
2033,831,897
2034,832,898
2035,835,896
2036,833,897
2037,834,897
2038,827,891
2039,824,888
2040,821,887
2041,824,888
2042,824,889
2043,826,890
2044,825,892
2045,828,896
2046,829,897
2047,830,895
2048,832,895
2049,831,891
2050,827,891
2051,824,886
2052,823,886
2053,822,886
2054,821,888
2055,821,888
2056,822,890
2057,824,894
2058,826,893
2059,826,895
2060,828,892
2061,829,890
2062,827,891
2063,828,888
2064,825,884
2065,823,884
2066,819,885
2067,819,883
2068,823,887
2069,822,888
2070,826,892
2071,826,893
2072,828,891
2073,824,891
2074,823,888
2075,821,885
2076,818,882
2077,819,884
2078,820,886
2079,819,884
2080,822,888
2081,822,888
2082,825,891
2083,824,892
2084,820,891
2085,820,886
2086,817,886
2087,819,885
2088,818,883
2089,813,880
2090,813,883
2091,813,883
2092,817,888
2093,822,889
2094,823,893
2095,824,896
2096,822,894
2097,824,890
2098,823,887
2099,818,889
2100,819,887
2101,817,887
2102,817,886
2103,818,889
2104,819,889
2105,819,893
2106,821,891
2107,820,889
2108,820,888
2109,822,886
2110,821,885
2111,817,885
2112,815,880
2113,816,882
2114,818,883
2115,816,884
2116,816,885
2117,818,889
2118,820,890
2119,822,890
2120,825,891
2121,824,886
2122,823,885
2123,817,881
2124,812,882
2125,815,882
2126,815,884
2127,816,885
2128,819,886
2129,818,888
2130,822,891
2131,824,888
2132,823,890
2133,821,889
2134,823,892
2135,820,888
2136,819,885
2137,821,887
2138,818,888
2139,820,889
2140,819,892
2141,820,894
2142,819,893
2143,824,894
2144,822,898
2145,822,896
2146,825,889
2147,823,892
2148,822,894
2149,822,893
2150,819,890
2151,818,894
2152,821,894
2153,820,898
2154,823,898
2155,826,897
2156,825,898
2157,827,896
2158,822,897
2159,823,892
2160,823,889
2161,820,891
2162,818,890
2163,821,894
2164,823,895
2165,826,899
2166,830,900
2167,830,902
2168,831,898
2169,830,900
2170,836,894
2171,839,895
2172,839,889
2173,838,888
2174,836,888
2175,836,891
2176,837,895
2177,841,899
2178,845,907
2179,850,907
2180,852,906
2181,858,911
2182,856,911
2183,856,912
2184,855,913
2185,856,916
2186,853,922
2187,851,924
2188,850,926
2189,851,930
2190,852,929
2191,851,928
2192,849,926
2193,849,921
2194,845,926
2195,838,918
2196,832,918
2197,823,914
2198,822,914
2199,821,909
2200,816,912
2201,819,911
2202,822,906
2203,821,903
2204,823,902
2205,822,898
2206,821,895
2207,818,895
2208,816,892
2209,815,893
2210,812,893
2211,812,892
2212,811,893
2213,811,894
2214,815,898
2215,818,897
2216,818,900
2217,821,897
2218,820,896
2219,818,892
2220,818,891
2221,818,890
2222,816,891
2223,816,892
2224,817,896
2225,819,901
2226,821,900
2227,824,904
2228,827,898
2229,825,898
2230,829,897
2231,832,894
2232,847,901
2233,864,911
2234,882,931
2235,904,964
2236,935,1009
2237,964,1058
2238,988,1110
2239,998,1160
2240,985,1201
2241,952,1228
2242,904,1230
2243,847,1211
2244,787,1163
2245,733,1095
2246,684,1012
2247,652,924
2248,640,847
2249,649,795
2250,672,782
2251,700,799
2252,723,825
2253,741,847
2254,756,863
2255,766,867
2256,778,872
2257,791,877
2258,805,884
2259,816,893
2260,826,898
2261,832,900
2262,835,904
2263,837,903
2264,836,903
2265,836,899
2266,835,899
2267,837,899
2268,835,897
2269,838,899
2270,837,902
2271,838,900
2272,842,907
2273,846,907
2274,847,911
2275,850,911
2276,847,909
2277,849,910
2278,849,909
2279,848,907
2280,847,908
2281,848,909
2282,846,910
2283,849,912
2284,850,914
2285,853,914
2286,855,918
2287,860,915
2288,859,919
2289,861,921
2290,858,920
2291,857,916
2292,851,917
2293,852,915
2294,855,922
2295,855,921
2296,858,922
2297,861,927
2298,865,930
2299,863,931
2300,864,932
2301,866,930
2302,869,931
2303,868,930
2304,869,931
2305,869,932
2306,867,935
2307,870,936
2308,875,940
2309,876,944
2310,881,946
2311,883,945
2312,884,946
2313,884,951
2314,887,949
2315,885,953
2316,886,952
2317,891,953
2318,894,957
2319,895,962
2320,900,969
2321,903,972
2322,907,975
2323,913,978
2324,916,983
2325,920,983
2326,925,985
2327,927,986
2328,925,986
2329,929,988
2330,928,994
2331,933,998
2332,940,1006
2333,944,1006
2334,946,1018
2335,951,1017
2336,949,1021
2337,953,1019
2338,951,1024
2339,957,1025
2340,959,1023
2341,960,1027
2342,963,1030
2343,962,1032
2344,965,1034
2345,965,1038
2346,965,1040
2347,967,1043
2348,968,1042
2349,964,1039
2350,963,1038
2351,960,1036
2352,963,1031
2353,957,1030
2354,956,1029
2355,954,1026
2356,951,1025
2357,950,1020
2358,948,1013
2359,946,1007
2360,941,999
2361,932,994
2362,924,985
2363,914,978
2364,911,967
2365,905,960
2366,900,954
2367,893,949
2368,888,947
2369,887,942
2370,884,935
2371,879,928
2372,873,926
2373,869,922
2374,864,911
2375,859,908
2376,857,900
2377,855,900
2378,851,895
2379,852,896
2380,851,898
2381,849,896
2382,848,895
2383,851,893
2384,848,891
2385,844,890
2386,843,884
2387,841,884
2388,842,879
2389,840,880
2390,840,879
2391,841,883
2392,844,882
2393,844,883
2394,845,885
2395,846,885
2396,845,885
2397,845,885
2398,844,880
2399,844,881
2400,842,876
2401,841,875
2402,839,875
2403,842,877
2404,841,881
2405,844,881
2406,847,883
2407,851,887
2408,849,885
2409,849,886
2410,847,883
2411,844,882
2412,844,879
2413,844,879
2414,842,884
2415,839,882
2416,846,885
2417,845,887
2418,849,887
2419,847,890
2420,846,888
2421,845,889
2422,846,885
2423,844,885
2424,842,883
2425,841,884
2426,838,883
2427,843,888
2428,841,887
2429,844,891
2430,845,892
2431,846,891
2432,846,890
2433,845,889
2434,844,888
2435,838,886
2436,837,884
2437,835,883
2438,834,884
2439,831,883
2440,832,884
2441,834,888
2442,837,890
2443,843,889
2444,840,889
2445,840,885
2446,838,882
2447,834,878
2448,834,878
2449,831,879
2450,828,877
2451,831,876
2452,832,880
2453,831,878
2454,836,880
2455,836,879
2456,835,878
2457,836,876
2458,834,874
2459,830,872
2460,830,872
2461,828,870
2462,826,870
2463,828,874
2464,830,876
2465,830,874
2466,832,878
2467,834,876
2468,833,877
2469,833,877
2470,829,873
2471,826,868
2472,826,869
2473,825,869
2474,825,870
2475,826,867
2476,826,868
2477,828,873
2478,828,872
2479,828,871
2480,830,871
2481,831,872
2482,830,870
2483,828,866
2484,826,865
2485,828,864
2486,827,867
2487,824,866
2488,822,869
2489,827,875
2490,829,871
2491,830,875
2492,829,873
2493,828,873
2494,825,870
2495,826,868
2496,823,869
2497,826,871
2498,823,874
2499,822,873
2500,828,876
2501,828,876
2502,828,884
2503,831,880
2504,831,884
2505,830,881
2506,828,877
2507,828,873
2508,827,874
2509,828,874
2510,824,876
2511,826,878
2512,826,875
2513,827,878
2514,832,883
2515,835,880
2516,833,882
2517,829,879
2518,828,876
2519,829,877
2520,827,874
2521,826,873
2522,823,876
2523,822,877
2524,823,880
2525,826,881
2526,828,881
2527,830,881
2528,829,882
2529,825,880
2530,828,877
2531,828,879
2532,826,874
2533,825,875
2534,825,878
2535,826,877
2536,827,879
2537,828,881
2538,830,882
2539,831,884
2540,830,882
2541,827,880
2542,828,880
2543,826,879
2544,824,876
2545,824,874
2546,825,879
2547,825,876
2548,827,878
2549,831,881
2550,832,881
2551,835,881
2552,835,880
2553,834,880
2554,832,880
2555,831,875
2556,828,872
2557,829,875
2558,826,876
2559,828,871
2560,828,876
2561,827,878
2562,830,879
2563,828,880
2564,832,879
2565,832,883
2566,834,879
2567,829,878
2568,829,875
2569,828,878
2570,829,880
2571,827,881
2572,829,883
2573,832,886
2574,833,886
2575,833,885
2576,834,886
2577,833,883
2578,832,880
2579,831,880
2580,832,878
2581,830,881
2582,824,881
2583,827,884
2584,832,885
2585,833,888
2586,835,888
2587,836,888
2588,835,886
2589,838,888
2590,835,883
2591,831,884
2592,832,883
2593,831,883
2594,829,884
2595,833,888
2596,834,890
2597,837,892
2598,840,894
2599,844,893
2600,847,894
2601,850,890
2602,852,889
2603,852,885
2604,854,881
2605,852,881
2606,851,885
2607,850,890
2608,854,896
2609,855,899
2610,864,905
2611,868,907
2612,870,907
2613,868,908
2614,866,908
2615,868,910
2616,865,912
2617,865,916
2618,859,917
2619,856,918
2620,858,921
2621,859,921
2622,856,923
2623,857,924
2624,854,919
2625,853,920
2626,851,916
2627,846,912
2628,841,907
2629,837,904
2630,831,900
2631,831,902
2632,830,900
2633,830,896
2634,830,898
2635,834,896
2636,832,891
2637,835,888
2638,833,889
2639,831,889
2640,826,884
2641,822,885
2642,823,885
2643,822,885
2644,822,888
2645,822,888
2646,826,891
2647,828,888
2648,826,888
2649,831,887
2650,831,884
2651,829,884
2652,828,883
2653,827,883
2654,829,882
2655,831,889
2656,834,890
2657,833,891
2658,834,895
2659,838,895
2660,846,890
2661,850,890
2662,863,896
2663,879,905
2664,905,930
2665,931,969
2666,961,1019
2667,991,1077
2668,1006,1136
2669,1006,1189
2670,983,1228
2671,944,1251
2672,895,1234
2673,839,1191
2674,784,1124
2675,733,1050
2676,695,968
2677,681,898
2678,685,852
2679,704,834
2680,729,847
2681,755,865
2682,776,886
2683,794,896
2684,809,898
2685,821,903
2686,833,900
2687,839,899
2688,842,899
2689,844,897
2690,840,894
2691,841,900
2692,842,899
2693,842,901
2694,843,900
2695,847,901
2696,849,901
2697,851,899
2698,850,903
2699,851,897
2700,848,898
2701,847,897
2702,848,901
2703,849,902
2704,851,903
2705,853,905
2706,854,909
2707,859,915
2708,857,910
2709,855,908
2710,854,909
2711,857,909
2712,856,907
2713,856,908
2714,856,906
2715,853,911
2716,858,915
2717,860,919
2718,862,920
2719,863,919
2720,862,922
2721,865,921
2722,863,919
2723,864,915
2724,866,918
2725,864,916
2726,866,919
2727,864,923
2728,869,928
2729,870,930
2730,872,931
2731,876,931
2732,876,933
2733,875,933
2734,873,932
2735,876,932
2736,877,933
2737,877,933
2738,877,936
2739,879,940
2740,886,945
2741,887,944
2742,889,950
2743,892,952
2744,897,956
2745,900,954
2746,901,957
2747,901,959
2748,902,958
2749,905,959
2750,907,967
2751,908,969
2752,915,973
2753,922,979
2754,927,981
2755,930,985
2756,931,989
2757,932,993
2758,935,995
2759,941,996
2760,943,1000
2761,944,999
2762,947,1004
2763,952,1009
2764,954,1015
2765,960,1020
2766,963,1026
2767,970,1029
2768,973,1031
2769,976,1032
2770,977,1035
2771,977,1035
2772,975,1032
2773,978,1031
2774,978,1036
2775,978,1039
2776,980,1040
2777,983,1049
2778,982,1054
2779,984,1052
2780,981,1046
2781,980,1045
2782,977,1039
2783,973,1037
2784,963,1029
2785,960,1024
2786,952,1018
2787,946,1015
2788,943,1008
2789,935,1002
2790,933,1000
2791,930,991
2792,924,984
2793,914,978
2794,909,966
2795,900,958
2796,889,951
2797,889,945
2798,882,938
2799,874,935
2800,872,933
2801,871,930
2802,868,930
2803,867,925
2804,864,921
2805,861,916
2806,856,912
2807,857,908
2808,851,905
2809,846,903
2810,843,903
2811,845,904
2812,847,903
2813,847,904
2814,847,906
2815,850,903
2816,847,903
2817,847,901
2818,847,899
2819,844,899
2820,842,893
2821,839,893
2822,844,894
2823,843,894
2824,844,898
2825,845,896
2826,846,898
2827,849,901
2828,849,896
2829,845,897
2830,845,897
2831,844,897
2832,842,892
2833,843,891
2834,840,895
2835,841,893
2836,844,895
2837,845,899
2838,847,900
2839,851,901
2840,849,900
2841,851,899
2842,852,896
2843,848,896
2844,849,894
2845,845,895
2846,845,897
2847,847,894
2848,846,901
2849,850,903
2850,850,906
2851,854,904
2852,852,905
2853,849,904
2854,849,904
2855,849,899
2856,843,900
2857,846,897
2858,842,898
2859,842,898
2860,842,900
2861,846,897
2862,846,903
2863,846,904
2864,847,901
2865,847,903
2866,845,898
2867,844,897
2868,838,893
2869,835,894
2870,834,894
2871,834,896
2872,835,897
2873,836,898
2874,839,900
2875,842,902
2876,843,898
2877,837,897
2878,837,893
2879,835,894
2880,831,889
2881,831,887
2882,831,890
2883,831,894
2884,833,894
2885,833,897
2886,834,895
2887,836,896
2888,838,897
2889,836,894
2890,835,890
2891,832,888
2892,833,888
2893,832,886
2894,832,883
2895,832,890
2896,830,891
2897,833,896
2898,832,893
2899,836,895
2900,836,894
2901,838,893
2902,836,890
2903,834,887
2904,829,888
2905,829,884
2906,828,888
2907,830,891
2908,832,891
2909,834,892
2910,837,893
2911,838,898
2912,839,895
2913,839,894
2914,836,892
2915,834,890
2916,835,889
2917,833,888
2918,832,889
2919,832,894
2920,834,896
2921,834,895
2922,834,900
2923,836,897
2924,835,898
2925,834,894
2926,835,893
2927,834,889
2928,833,888
2929,833,890
2930,831,894
2931,832,891
2932,831,894
2933,832,895
2934,834,894
2935,836,899
2936,836,897
2937,835,896
2938,835,893
2939,833,889
2940,832,887
2941,830,886
2942,829,884
2943,833,888
2944,833,891
2945,834,891
2946,835,894
2947,836,893
2948,836,894
2949,836,893
2950,836,888
2951,837,891
2952,830,889
2953,832,888
2954,832,888
2955,832,894
2956,831,894
2957,832,896
2958,837,894
2959,837,898
2960,837,898
2961,838,894
2962,839,893
2963,837,889
2964,836,892
2965,832,889
2966,830,890
2967,830,892
2968,836,893
2969,836,893
2970,837,895
2971,840,895
2972,841,896
2973,840,897
2974,838,894
2975,835,890
2976,833,890
2977,838,889
2978,835,890
2979,833,893
2980,836,895
2981,837,896
2982,840,896
2983,843,897
2984,839,901
2985,836,899
2986,839,899
2987,838,895
2988,836,893
2989,836,892
2990,832,895
2991,831,896
2992,834,895
2993,839,899
2994,838,900
2995,841,898
2996,840,897
2997,838,897
2998,839,895
2999,835,892
3000,837,895
3001,837,896
3002,834,894
3003,834,896
3004,835,900
3005,837,899
3006,842,901
3007,842,902
3008,841,899
3009,840,899
3010,841,898
3011,838,896
3012,839,894
3013,837,895
3014,837,898
3015,835,899
3016,836,899
3017,839,902
3018,840,900
3019,843,903
3020,842,904
3021,838,902
3022,842,902
3023,840,899
3024,837,895
3025,839,894
3026,842,899
3027,843,900
3028,848,899
3029,851,900
3030,857,900
3031,860,903
3032,860,902
3033,862,904
3034,859,905
3035,860,906
3036,861,906
3037,862,907
3038,867,911
3039,871,916
3040,872,918
3041,873,921
3042,873,928
3043,873,933
3044,876,936
3045,873,936
3046,870,937
3047,866,932
3048,863,930
3049,858,930
3050,855,930
3051,856,927
3052,854,933
3053,851,933
3054,850,932
3055,845,934
3056,844,926
3057,845,920
3058,841,916
3059,839,911
3060,837,909
3061,832,904
3062,831,902
3063,834,905
3064,833,906
3065,833,906
3066,836,908
3067,832,906
3068,830,904
3069,830,903
3070,833,901
3071,830,900
3072,829,897
3073,828,895
3074,827,895
3075,826,896
3076,829,897
3077,831,899
3078,831,901
3079,835,899
3080,839,898
3081,840,900
3082,839,895
3083,839,894
3084,835,897
3085,833,897
3086,836,898
3087,838,900
3088,846,903
3089,862,910
3090,877,922
3091,898,942
3092,924,974
3093,953,1015
3094,977,1064
3095,998,1116
3096,1000,1165
3097,983,1201
3098,947,1224
3099,896,1221
3100,839,1187
3101,783,1132
3102,728,1055
3103,691,969
3104,672,890
3105,674,832
3106,690,811
3107,715,816
3108,738,837
3109,760,859
3110,778,875
3111,798,887
3112,811,897
3113,827,903
3114,836,909
3115,843,911
3116,845,912
3117,845,913
3118,843,913
3119,841,909
3120,840,909
3121,839,906
3122,842,908
3123,843,907
3124,848,912
3125,851,918
3126,853,919
3127,857,923
3128,859,919
3129,855,919
3130,858,917
3131,855,919
3132,858,916
3133,856,918
3134,858,921
3135,856,917
3136,858,923
3137,860,923
3138,860,927
3139,860,927
3140,864,928
3141,864,927
3142,864,924
3143,866,923
3144,863,923
3145,864,927
3146,861,927
3147,864,928
3148,864,932
3149,865,932
3150,868,933
3151,870,937
3152,871,935
3153,870,936
3154,870,936
3155,869,938
3156,869,934
3157,870,932
3158,869,938
3159,871,940
3160,872,944
3161,877,943
3162,881,947
3163,882,951
3164,889,957
3165,888,953
3166,888,956
3167,889,955
3168,888,953
3169,890,956
3170,890,958
3171,895,962
3172,898,967
3173,902,973
3174,909,976
3175,912,984
3176,913,986
3177,919,989
3178,922,989
3179,922,993
3180,924,993
3181,926,995
3182,931,1002
3183,935,1006
3184,938,1013
3185,944,1018
3186,948,1025
3187,953,1029
3188,957,1034
3189,961,1036
3190,962,1038
3191,965,1040
3192,966,1041
3193,966,1047
3194,967,1049
3195,969,1055
3196,977,1056
3197,977,1060
3198,980,1065
3199,985,1064
3200,988,1063
3201,990,1064
3202,987,1064
3203,988,1062
3204,984,1063
3205,985,1059
3206,978,1057
3207,976,1062
3208,977,1058
3209,972,1056
3210,970,1056
3211,968,1051
3212,963,1045
3213,960,1038
3214,952,1030
3215,947,1019
3216,940,1012
3217,932,1005
3218,923,999
3219,920,992
3220,913,986
3221,904,982
3222,900,976
3223,897,968
3224,890,959
3225,888,952
3226,882,943
3227,877,943
3228,874,933
3229,870,933
3230,860,928
3231,863,927
3232,862,926
3233,860,924
3234,858,926
3235,860,928
3236,859,925
3237,857,920
3238,853,916
3239,850,911
3240,851,912
3241,850,907
3242,847,907
3243,847,906
3244,847,911
3245,846,910
3246,847,910
3247,849,915
3248,851,914
3249,850,908
3250,851,909
3251,848,902
3252,846,902
3253,847,905
3254,847,902
3255,846,905
3256,846,906
3257,849,911
3258,850,909
3259,853,911
3260,854,910
3261,851,913
3262,850,911
3263,850,912
3264,851,908
3265,849,913
3266,849,913
3267,852,914
3268,852,917
3269,855,916
3270,854,918
3271,857,919
3272,855,918
3273,856,916
3274,853,917
3275,850,914
3276,850,916
3277,848,914
3278,848,912
3279,849,920
3280,851,918
3281,852,919
3282,854,920
3283,855,922
3284,854,920
3285,855,920
3286,851,916
3287,850,913
3288,847,914
3289,844,913
3290,841,910
3291,845,909
3292,844,911
3293,842,914
3294,843,917
3295,847,917
3296,844,916
3297,841,916
3298,845,912
3299,844,909
3300,841,909
3301,835,910
3302,838,908
3303,837,908
3304,837,908
3305,840,910
3306,841,910
3307,841,914
3308,842,909
3309,841,907
3310,842,908
3311,838,908
3312,835,903
3313,832,903
3314,834,897
3315,835,906
3316,838,908
3317,838,907
3318,841,913
3319,842,914
3320,844,907
3321,845,908
3322,843,905
3323,840,905
3324,837,901
3325,828,904
3326,833,898
3327,828,902
3328,831,906
3329,832,908
3330,832,911
3331,837,912
3332,836,911
3333,835,911
3334,838,907
3335,835,906
3336,831,903
3337,830,903
3338,833,901
3339,829,904
3340,834,906
3341,835,906
3342,838,909
3343,839,909
3344,840,910
3345,837,906
3346,835,907
3347,834,906
3348,834,903
3349,833,904
3350,831,904
3351,832,905
3352,833,910
3353,835,908
3354,838,910
3355,839,912
3356,838,909
3357,836,912
3358,832,910
3359,832,907
3360,834,909
3361,829,904
3362,830,906
3363,831,904
3364,831,909
3365,832,907
3366,832,909
3367,835,913
3368,836,912
3369,835,911
3370,837,907
3371,836,908
3372,833,907
3373,831,904
3374,830,905
3375,832,904
3376,834,907
3377,834,909
3378,837,910
3379,838,911
3380,837,907
3381,837,910
3382,835,908
3383,831,905
3384,835,903
3385,831,903
3386,830,904
3387,833,906
3388,834,905
3389,834,909
3390,837,906
3391,842,909
3392,842,907
3393,841,908
3394,839,907
3395,838,906
3396,837,906
3397,828,905
3398,831,902
3399,833,906
3400,831,904
3401,834,907
3402,834,911
3403,832,912
3404,836,912
3405,837,910
3406,836,910
3407,835,910
3408,837,908
3409,832,907
3410,832,907
3411,832,906
3412,832,907
3413,835,910
3414,837,909
3415,839,911
3416,840,909
3417,840,909
3418,839,907
3419,838,905
3420,837,907
3421,835,904
3422,834,908
3423,835,906
3424,835,909
3425,836,908
3426,838,907
3427,841,915
3428,841,909
3429,842,912
3430,840,911
3431,838,906
3432,835,907
3433,835,904
3434,834,904
3435,834,909
3436,836,908
3437,839,910
3438,840,909
3439,841,910
3440,840,910
3441,842,910
3442,842,910
3443,843,907
3444,839,906
3445,840,906
3446,840,907
3447,842,905
3448,843,910
3449,845,910
3450,850,913
3451,855,911
3452,856,914
3453,858,911
3454,859,908
3455,857,906
3456,856,907
3457,858,910
3458,858,908
3459,863,913
3460,868,917
3461,873,918
3462,876,925
3463,879,930
3464,880,932
3465,880,931
3466,878,936
3467,878,939
3468,873,941
3469,871,940
3470,864,940
3471,863,941
3472,864,942
3473,864,943
3474,863,940
3475,862,942
3476,856,939
3477,855,938
3478,849,935
3479,847,930
3480,845,924
3481,843,917
3482,844,915
3483,838,917
3484,839,917
3485,842,917
3486,842,918
3487,844,919
3488,847,920
3489,844,919
3490,841,915
3491,839,914
3492,838,910
3493,833,910
3494,835,907
3495,836,910
3496,839,909
3497,837,911
3498,843,914
3499,843,913
3500,845,913
3501,843,913
3502,844,909
3503,842,909
3504,839,910
3505,839,908
3506,838,906
3507,840,910
3508,841,913
3509,843,914
3510,847,917
3511,851,918
3512,854,917
3513,864,914
3514,874,916
3515,894,925
3516,912,948
3517,936,981
3518,964,1024
3519,993,1074
3520,1018,1133
3521,1024,1188
3522,1016,1235
3523,989,1265
3524,945,1270
3525,892,1249
3526,828,1200
3527,778,1129
3528,729,1043
3529,696,957
3530,685,883
3531,694,838
3532,710,827
3533,737,837
3534,761,863
3535,778,880
3536,793,895
3537,806,899
3538,818,903
3539,832,906
3540,842,907
3541,849,913
3542,853,916
3543,861,914
3544,858,921
3545,859,921
3546,858,925
3547,862,924
3548,865,924
3549,865,924
3550,871,927
3551,868,925
3552,869,923
3553,868,920
3554,866,920
3555,867,922
3556,866,927
3557,869,925
3558,871,930
3559,874,933
3560,876,930
3561,878,929
3562,876,930
3563,877,931
3564,876,928
3565,874,928
3566,874,933
3567,874,934
3568,877,936
3569,880,936
3570,881,941
3571,885,942
3572,886,942
3573,886,941
3574,881,939
3575,884,937
3576,882,937
3577,881,940
3578,883,937
3579,884,938
3580,886,944
3581,888,947
3582,893,950
3583,892,951
3584,898,952
3585,899,950
3586,900,952
3587,897,952
3588,900,954
3589,899,952
3590,900,954
3591,903,955
3592,904,959
3593,908,964
3594,909,967
3595,912,971
3596,916,970
3597,917,973
3598,920,974
3599,920,974
3600,922,976
3601,925,978
3602,927,979
3603,929,983
3604,931,990
3605,938,998
3606,943,1002
3607,949,1008
3608,954,1013
3609,956,1017
3610,960,1020
3611,962,1022
3612,964,1023
3613,967,1028
3614,971,1032
3615,973,1040
3616,975,1044
3617,983,1053
3618,986,1059
3619,991,1061
3620,993,1063
3621,992,1062
3622,993,1062
3623,993,1063
3624,991,1060
3625,991,1061
3626,992,1062
3627,989,1062
3628,989,1064
3629,988,1064
3630,987,1061
3631,985,1065
3632,986,1061
3633,984,1054
3634,979,1047
3635,974,1045
3636,966,1034
3637,962,1027
3638,954,1022
3639,948,1017
3640,943,1011
3641,938,1008
3642,933,1001
3643,931,999
3644,926,986
3645,922,977
3646,916,970
3647,909,962
3648,904,958
3649,899,951
3650,893,943
3651,891,941
3652,887,939
3653,886,936
3654,883,937
3655,885,935
3656,883,932
3657,882,923
3658,877,922
3659,875,918
3660,871,916
3661,866,913
3662,864,912
3663,864,911
3664,865,912
3665,866,910
3666,868,911
3667,872,916
3668,868,910
3669,870,910
3670,866,906
3671,868,906
3672,864,905
3673,860,900
3674,858,902
3675,860,903
3676,861,904
3677,862,908
3678,865,910
3679,865,909
3680,870,909
3681,867,907
3682,869,908
3683,866,907
3684,864,902
3685,864,902
3686,863,900
3687,864,903
3688,863,909
3689,865,909
3690,866,913
3691,867,915
3692,868,916
3693,869,917
3694,869,918
3695,868,915
3696,866,913
3697,866,915
3698,863,912
3699,864,912
3700,867,918
3701,868,917
3702,870,919
3703,871,922
3704,871,924
3705,871,921
3706,871,920
3707,870,913
3708,866,920
3709,864,913
3710,860,913
3711,860,915
3712,860,913
3713,862,918
3714,863,920
3715,864,920
3716,865,918
3717,864,917
3718,864,916
3719,862,913
3720,860,911
3721,857,911
3722,854,911
3723,851,909
3724,852,912
3725,851,912
3726,856,912
3727,859,916
3728,857,908
3729,856,911
3730,856,910
3731,854,908
3732,854,908
3733,854,907
3734,852,903
3735,851,901
3736,852,902
3737,850,909
3738,853,908
3739,855,910
3740,855,907
3741,854,910
3742,850,907
3743,850,900
3744,848,904
3745,846,901
3746,846,902
3747,845,900
3748,841,904
3749,845,906
3750,847,907
3751,851,911
3752,854,909
3753,854,905
3754,853,906
3755,852,902
3756,850,904
3757,844,903
3758,844,906
3759,843,902
3760,847,904
3761,847,911
3762,848,911
3763,850,909
3764,853,907
3765,850,906
3766,851,906
3767,849,902
3768,847,903
3769,843,902
3770,842,901
3771,844,904
3772,843,906
3773,845,909
3774,847,908
3775,852,911
3776,850,909
3777,850,907
3778,851,906
3779,851,904
3780,848,902
3781,847,904
3782,846,903
3783,846,902
3784,848,905
3785,849,909
3786,850,908
3787,847,909
3788,849,911
3789,851,908
3790,850,909
3791,850,906
3792,849,903
3793,845,905
3794,844,903
3795,841,905
3796,841,908
3797,842,909
3798,847,909
3799,848,911
3800,850,910
3801,851,907
3802,851,906
3803,848,904
3804,848,902
3805,848,902
3806,844,901
3807,842,904
3808,842,907
3809,846,906
3810,847,906
3811,851,911
3812,853,910
3813,849,909
3814,850,906
3815,849,905
3816,849,902
3817,844,901
3818,842,902
3819,844,904
3820,843,903
3821,846,908
3822,846,909
3823,850,909
3824,854,910
3825,852,910
3826,853,905
3827,850,904
3828,849,902
3829,848,905
3830,848,904
3831,848,904
3832,848,908
3833,850,909
3834,850,908
3835,848,911
3836,853,908
3837,854,909
3838,852,908
3839,853,909
3840,851,905
3841,848,906
3842,847,907
3843,847,907
3844,846,910
3845,849,913
3846,852,914
3847,849,918
3848,855,913
3849,854,915
3850,853,915
3851,847,910
3852,849,908
3853,850,909
3854,845,906
3855,845,910
3856,846,912
3857,853,911
3858,852,915
3859,854,913
3860,855,917
3861,855,914
3862,855,913
3863,852,913
3864,849,913
3865,845,910
3866,846,907
3867,845,907
3868,846,911
3869,853,911
3870,854,912
3871,855,915
3872,856,916
3873,857,913
3874,853,913
3875,855,910
3876,855,908
3877,853,908
3878,854,908
3879,857,908
3880,860,909
3881,863,912
3882,865,913
3883,869,915
3884,871,913
3885,871,915
3886,876,913
3887,874,916
3888,878,911
3889,877,918
3890,877,920
3891,884,925
3892,887,928
3893,887,936
3894,889,936
3895,891,944
3896,891,946
3897,890,949
3898,886,950
3899,885,948
3900,880,952
3901,876,951
3902,872,947
3903,872,947
3904,871,952
3905,871,950
3906,866,951
3907,865,947
3908,865,945
3909,862,941
3910,860,936
3911,856,930
3912,853,927
3913,852,922
3914,844,921
3915,847,919
3916,850,919
3917,850,923
3918,853,924
3919,851,926
3920,852,926
3921,846,923
3922,848,918
3923,846,918
3924,846,916
3925,845,911
3926,841,910
3927,843,916
3928,844,915
3929,846,917
3930,848,918
3931,849,923
3932,850,922
3933,849,918
3934,848,915
3935,849,913
3936,850,912
3937,849,916
3938,850,915
3939,851,916
3940,855,918
3941,860,918
3942,867,920
3943,880,924
3944,897,934
3945,918,955
3946,942,985
3947,970,1031
3948,994,1079
3949,1014,1133
3950,1021,1184
3951,1010,1231
3952,981,1263
3953,936,1270
3954,883,1247
3955,831,1192
3956,782,1119
3957,738,1035
3958,713,951
3959,699,886
3960,709,855
3961,729,853
3962,756,868
3963,777,890
3964,795,911
3965,811,917
3966,823,928
3967,835,931
3968,851,930
3969,859,932
3970,865,929
3971,864,929
3972,861,930
3973,863,930
3974,857,928
3975,858,925
3976,860,929
3977,861,930
3978,870,934
3979,872,933
3980,874,933
3981,873,932
3982,872,935
3983,874,937
3984,873,933
3985,871,932
3986,869,934
3987,871,937
3988,873,938
3989,876,935
3990,877,940
3991,880,944
3992,883,939
3993,883,942
3994,883,942
3995,881,939
3996,881,939
3997,881,938
3998,879,937
3999,881,942
4000,883,945
4001,885,947
4002,889,948
4003,888,951
4004,892,952
4005,892,950
4006,894,951
4007,892,950
4008,886,947
4009,889,949
4010,885,946
4011,887,950
4012,886,952
4013,893,957
4014,895,961
4015,897,963
4016,902,964
4017,901,966
4018,903,966
4019,906,966
4020,906,964
4021,907,968
4022,907,970
4023,910,974
4024,913,978
4025,917,978
4026,920,982
4027,925,989
4028,925,993
4029,932,996
4030,932,997
4031,933,997
4032,937,1000
4033,938,1008
4034,939,1007
4035,943,1008
4036,947,1021
4037,956,1023
4038,959,1029
4039,964,1034
4040,967,1036
4041,971,1041
4042,978,1042
4043,977,1043
4044,980,1045
4045,982,1047
4046,981,1050
4047,984,1053
4048,987,1060
4049,992,1063
4050,992,1064
4051,995,1069
4052,997,1071
4053,998,1066
4054,996,1067
4055,997,1067
4056,992,1067
4057,989,1066
4058,989,1066
4059,986,1061
4060,984,1060
4061,982,1057
4062,979,1053
4063,973,1050
4064,968,1045
4065,962,1035
4066,957,1030
4067,949,1020
4068,941,1009
4069,937,1005
4070,927,995
4071,923,991
4072,915,985
4073,913,981
4074,909,976
4075,905,972
4076,901,962
4077,896,957
4078,889,948
4079,886,944
4080,883,941
4081,878,936
4082,873,932
4083,870,929
4084,871,930
4085,869,929
4086,869,929
4087,869,928
4088,872,926
4089,871,925
4090,870,924
4091,868,922
4092,864,914
4093,864,917
4094,865,914
4095,861,917
4096,861,918
4097,865,920
4098,865,920
4099,866,922
4100,867,921
4101,866,919
4102,866,919
4103,862,917
4104,862,917
4105,862,914
4106,861,913
4107,862,915
4108,862,917
4109,864,922
4110,865,923
4111,870,922
4112,868,924
4113,868,926
4114,867,923
4115,868,922
4116,867,920
4117,864,919
4118,863,921
4119,862,921
4120,864,924
4121,865,922
4122,867,926
4123,870,926
4124,870,922
4125,872,922
4126,871,922
4127,866,923
4128,867,920
4129,864,917
4130,862,919
4131,863,917
4132,863,918
4133,861,922
4134,862,924
4135,861,927
4136,866,925
4137,867,924
4138,863,923
4139,861,921
4140,858,917
4141,855,912
4142,852,912
4143,856,912
4144,853,916
4145,853,917
4146,854,920
4147,856,917
4148,858,917
4149,855,916
4150,854,912
4151,850,910
4152,850,911
4153,847,909
4154,848,907
4155,849,910
4156,851,911
4157,851,913
4158,850,913
4159,851,916
4160,851,916
4161,853,916
4162,854,916
4163,850,910
4164,847,912
4165,845,910
4166,843,908
4167,844,908
4168,843,911
4169,844,913
4170,847,913
4171,848,916
4172,848,914
4173,852,913
4174,849,915
4175,848,914
4176,845,911
4177,841,912
4178,842,913
4179,841,912
4180,840,915
4181,841,919
4182,843,917
4183,845,916
4184,846,919
4185,847,918
4186,846,915
4187,845,913
4188,843,911
4189,839,910
4190,836,909
4191,836,911
4192,836,908
4193,839,908
4194,841,910
4195,843,911
4196,842,908
4197,845,914
4198,842,909
4199,840,909
4200,841,907
4201,839,907
4202,839,908
4203,836,907
4204,838,909
4205,839,911
4206,842,911
4207,843,914
4208,843,911
4209,843,913
4210,840,911
4211,841,907
4212,837,907
4213,836,903
4214,835,904
4215,835,908
4216,836,908
4217,837,909
4218,839,910
4219,838,911
4220,841,909
4221,841,911
4222,841,910
4223,840,904
4224,841,904
4225,838,908
4226,838,904
4227,837,907
4228,835,911
4229,836,910
4230,840,915
4231,838,914
4232,839,914
4233,844,914
4234,844,914
4235,838,912
4236,838,911
4237,834,910
4238,837,908
4239,836,910
4240,838,911
4241,839,915
4242,839,920
4243,841,921
4244,843,920
4245,845,923
4246,841,920
4247,839,919
4248,838,917
4249,836,918
4250,835,917
4251,836,916
4252,836,918
4253,837,921
4254,838,923
4255,837,926
4256,840,925
4257,838,924
4258,841,925
4259,841,923
4260,839,921
4261,840,920
4262,835,920
4263,833,918
4264,832,922
4265,836,922
4266,840,925
4267,844,927
4268,844,928
4269,842,928
4270,842,925
4271,838,922
4272,841,924
4273,838,921
4274,836,923
4275,837,922
4276,834,923
4277,834,923
4278,836,925
4279,842,927
4280,843,928
4281,842,927
4282,843,927
4283,841,924
4284,840,920
4285,837,920
4286,838,920
4287,835,923
4288,837,921
4289,838,923
4290,841,924
4291,839,926
4292,843,927
4293,845,923
4294,844,924
4295,840,923
4296,837,920
4297,835,921
4298,835,920
4299,836,923
4300,839,924
4301,842,926
4302,848,927
4303,851,931
4304,854,929
4305,856,927
4306,859,926
4307,860,926
4308,858,927
4309,855,927
4310,859,931
4311,861,931
4312,863,937
4313,866,943
4314,873,945
4315,878,946
4316,878,949
4317,874,955
4318,877,957
4319,873,959
4320,869,959
4321,865,961
4322,862,957
4323,857,960
4324,858,959
4325,860,961
4326,858,963
4327,857,958
4328,860,957
4329,853,954
4330,848,951
4331,844,947
4332,840,942
4333,836,938
4334,834,933
4335,834,930
4336,835,932
4337,835,933
4338,836,930
4339,837,932
4340,837,933
4341,838,932
4342,835,927
4343,833,926
4344,828,922
4345,829,919
4346,828,919
4347,828,917
4348,828,923
4349,828,926
4350,831,926
4351,832,928
4352,831,927
4353,831,927
4354,833,925
4355,834,926
4356,833,926
4357,830,923
4358,832,922
4359,832,920
4360,833,924
4361,837,924
4362,838,926
4363,842,929
4364,849,927
4365,860,931
4366,876,939
4367,891,956
4368,911,984
4369,936,1021
4370,963,1064
4371,981,1117
4372,993,1170
4373,991,1215
4374,970,1252
4375,935,1266
4376,884,1254
4377,831,1222
4378,781,1167
4379,734,1094
4380,694,1014
4381,669,928
4382,660,865
4383,667,829
4384,692,824
4385,718,847
4386,739,872
4387,755,891
4388,772,906
4389,786,912
4390,799,913
4391,814,918
4392,826,924
4393,829,926
4394,836,927
4395,836,930
4396,835,932
4397,839,937
4398,836,937
4399,842,937
4400,843,936
4401,844,937
4402,846,936
4403,846,938
4404,847,936
4405,847,935
4406,846,935
4407,847,940
4408,846,942
4409,849,943
4410,852,946
4411,855,946
4412,858,949
4413,857,949
4414,855,947
4415,853,946
4416,854,947
4417,851,945
4418,852,945
4419,854,945
4420,856,948
4421,854,952
4422,856,954
4423,860,956
4424,860,958
4425,862,956
4426,864,958
4427,863,957
4428,861,960
4429,862,959
4430,863,958
4431,865,959
4432,865,958
4433,867,962
4434,867,964
4435,867,965
4436,868,968
4437,873,967
4438,875,970
4439,876,970
4440,872,970
4441,874,972
4442,876,971
4443,877,974
4444,878,979
4445,883,985
4446,885,987
4447,889,993
4448,896,993
4449,895,998
4450,896,996
4451,897,1000
4452,903,1001
4453,901,1002
4454,905,1005
4455,904,1008
4456,911,1017
4457,914,1021
4458,916,1030
4459,919,1034
4460,929,1035
4461,929,1043
4462,935,1045
4463,936,1047
4464,940,1048
4465,944,1051
4466,946,1053
4467,948,1060
4468,956,1067
4469,959,1068
4470,962,1077
4471,966,1082
4472,973,1082
4473,974,1087
4474,979,1090
4475,979,1089
4476,975,1089
4477,976,1088
4478,975,1089
4479,976,1091
4480,972,1092
4481,978,1094
4482,978,1095
4483,980,1096
4484,978,1093
4485,977,1087
4486,970,1082
4487,961,1077
4488,959,1069
4489,949,1060
4490,942,1051
4491,934,1046
4492,927,1037
4493,918,1029
4494,916,1023
4495,910,1017
4496,908,1007
4497,902,1001
4498,895,994
4499,890,983
4500,885,979
4501,877,971
4502,870,965
4503,863,961
4504,863,960
4505,860,956
4506,857,956
4507,858,953
4508,859,948
4509,858,948
4510,853,945
4511,852,942
4512,849,937
4513,847,930
4514,848,932
4515,844,934
4516,845,934
4517,847,938
4518,847,939
4519,849,937
4520,848,941
4521,848,937
4522,847,939
4523,845,936
4524,844,931
4525,840,928
4526,841,928
4527,838,926
4528,837,928
4529,839,931
4530,842,931
4531,843,934
4532,846,936
4533,845,933
4534,847,931
4535,847,931
4536,845,932
4537,842,929
4538,844,930
4539,841,931
4540,845,930
4541,843,934
4542,846,937
4543,848,939
4544,849,936
4545,846,937
4546,848,938
4547,850,935
4548,845,937
4549,846,935
4550,845,933
4551,845,936
4552,846,937
4553,845,937
4554,845,942
4555,850,940
4556,845,943
4557,842,938
4558,844,938
4559,842,937
4560,841,933
4561,840,932
4562,838,931
4563,839,934
4564,839,934
4565,839,932
4566,841,935
4567,840,936
4568,841,935
4569,842,932
4570,839,933
4571,838,933
4572,834,927
4573,834,928
4574,836,927
4575,834,929
4576,833,930
4577,835,932
4578,837,931
4579,835,930
4580,835,937
4581,839,931
4582,837,928
4583,834,928
4584,835,927
4585,834,926
4586,833,927
4587,831,929
4588,829,929
4589,829,931
4590,827,934
4591,831,936
4592,836,934
4593,834,932
4594,834,933
4595,833,928
4596,829,930
4597,832,929
4598,831,928
4599,831,926
4600,829,929
4601,831,928
4602,833,930
4603,835,932
4604,827,933
4605,829,932
4606,832,933
4607,831,933
4608,828,931
4609,827,925
4610,827,927
4611,826,930
4612,828,927
4613,830,932
4614,831,932
4615,832,934
4616,840,932
4617,837,933
4618,837,929
4619,834,927
4620,833,925
4621,831,925
4622,830,923
4623,830,927
4624,829,924
4625,828,930
4626,830,929
4627,834,933
4628,836,929
4629,834,930
4630,832,928
4631,832,926
4632,832,925
4633,830,922
4634,832,924
4635,833,923
4636,830,927
4637,832,926
4638,832,925
4639,834,928
4640,837,931
4641,835,929
4642,835,929
4643,833,924
4644,831,924
4645,831,923
4646,832,923
4647,830,924
4648,832,925
4649,834,928
4650,835,929
4651,837,931
4652,840,931
4653,839,929
4654,838,931
4655,837,930
4656,836,929
4657,834,927
4658,834,927
4659,832,930
4660,831,930
4661,834,933
4662,833,932
4663,837,936
4664,838,934
4665,839,933
4666,838,933
4667,837,930
4668,833,930
4669,835,927
4670,834,929
4671,834,930
4672,833,930
4673,833,929
4674,835,933
4675,838,932
4676,839,934
4677,838,933
4678,838,932
4679,836,930
4680,836,929
4681,834,926
4682,834,926
4683,832,926
4684,834,929
4685,835,931
4686,839,933
4687,840,938
4688,840,935
4689,841,935
4690,840,931
4691,838,934
4692,837,929
4693,835,928
4694,833,931
4695,833,925
4696,834,930
4697,837,933
4698,835,932
4699,837,933
4700,841,936
4701,843,932
4702,842,930
4703,842,928
4704,841,925
4705,839,924
4706,837,924
4707,837,926
4708,835,932
4709,839,934
4710,839,936
4711,841,934
4712,844,938
4713,843,934
4714,843,934
4715,845,930
4716,840,933
4717,843,931
4718,843,931
4719,844,930
4720,844,932
4721,849,934
4722,850,939
4723,856,939
4724,856,936
4725,860,936
4726,859,937
4727,858,937
4728,859,937
4729,859,935
4730,862,937
4731,862,941
4732,868,943
4733,871,948
4734,877,951
4735,879,957
4736,884,960
4737,881,962
4738,882,966
4739,876,968
4740,872,966
4741,869,966
4742,867,964
4743,864,963
4744,862,965
4745,860,965
4746,861,966
4747,860,968
4748,858,964
4749,855,963
4750,848,961
4751,850,956
4752,848,949
4753,844,944
4754,843,939
4755,843,939
4756,841,937
4757,840,938
4758,841,940
4759,844,939
4760,844,937
4761,843,936
4762,842,933
4763,836,930
4764,835,928
4765,835,929
4766,836,928
4767,831,925
4768,832,932
4769,835,933
4770,840,934
4771,842,933
4772,845,931
4773,844,933
4774,843,932
4775,841,927
4776,840,930
4777,843,928
4778,841,929
4779,840,927
4780,840,932
4781,843,929
4782,848,932
4783,855,932
4784,867,935
4785,881,941
4786,902,959
4787,924,984
4788,951,1020
4789,983,1068
4790,1008,1119
4791,1020,1174
4792,1017,1223
4793,998,1259
4794,960,1276
4795,912,1267
4796,857,1225
4797,805,1168
4798,758,1091
4799,716,1013
4800,696,942
4801,694,892
4802,711,872
4803,732,876
4804,756,895
4805,778,916
4806,794,930
4807,811,935
4808,821,941
4809,830,938
4810,844,939
4811,852,935
4812,855,938
4813,851,941
4814,852,936
4815,850,937
4816,850,939
4817,852,939
4818,858,942
4819,858,943
4820,863,944
4821,865,943
4822,863,943
4823,862,941
4824,865,941
4825,865,939
4826,863,939
4827,863,942
4828,862,944
4829,864,946
4830,865,947
4831,868,948
4832,873,950
4833,873,949
4834,873,948
4835,872,948
4836,873,948
4837,869,947
4838,871,944
4839,870,946
4840,870,948
4841,872,953
4842,875,955
4843,877,955
4844,880,957
4845,879,955
4846,881,953
4847,883,953
4848,881,955
4849,877,952
4850,878,955
4851,881,956
4852,881,960
4853,882,965
4854,890,968
4855,892,970
4856,892,971
4857,891,970
4858,892,971
4859,894,973
4860,896,974
4861,894,974
4862,891,975
4863,894,978
4864,900,982
4865,906,986
4866,910,989
4867,913,995
4868,917,996
4869,919,1003
4870,920,1000
4871,922,1002
4872,924,1003
4873,926,1005
4874,931,1007
4875,930,1015
4876,934,1017
4877,941,1022
4878,944,1029
4879,949,1032
4880,958,1033
4881,956,1039
4882,962,1045
4883,964,1044
4884,967,1047
4885,966,1048
4886,969,1054
4887,971,1055
4888,973,1059
4889,982,1064
4890,985,1067
4891,991,1072
4892,992,1073
4893,994,1072
4894,994,1074
4895,995,1075
4896,994,1072
4897,992,1072
4898,989,1069
4899,990,1071
4900,987,1073
4901,989,1074
4902,985,1072
4903,987,1071
4904,985,1070
4905,978,1061
4906,972,1053
4907,970,1048
4908,962,1043
4909,957,1033
4910,949,1024
4911,941,1020
4912,936,1017
4913,929,1011
4914,925,1004
4915,921,1001
4916,917,994
4917,911,986
4918,904,981
4919,900,975
4920,894,965
4921,887,960
4922,883,955
4923,878,952
4924,871,951
4925,872,951
4926,871,949
4927,872,947
4928,872,944
4929,867,942
4930,867,942
4931,866,938
4932,863,934
4933,857,934
4934,857,933
4935,853,934
4936,854,935
4937,855,937
4938,858,937
4939,858,939
4940,861,936
4941,858,935
4942,857,935
4943,856,933
4944,854,926
4945,855,926
4946,852,924
4947,853,926
4948,852,926
4949,856,928
4950,855,933
4951,856,934
4952,861,934
4953,859,932
4954,861,934
4955,861,933
4956,859,933
4957,858,932
4958,857,931
4959,855,932
4960,855,937
4961,857,938
4962,859,937
4963,863,939
4964,864,939
4965,863,938
4966,864,941
4967,863,937
4968,860,936
4969,860,936
4970,859,936
4971,857,934
4972,861,936
4973,863,937
4974,864,941
4975,867,942
4976,867,942
4977,866,941
4978,865,938
4979,861,938
4980,864,933
4981,860,933
4982,858,931
4983,855,933
4984,854,935
4985,857,939
4986,859,939
4987,860,938
4988,862,939
4989,860,936
4990,861,936
4991,858,935
4992,855,930
4993,851,928
4994,852,928
4995,850,931
4996,847,934
4997,851,929
4998,850,932
4999,854,936
5000,854,936
5001,854,935
5002,854,934
5003,852,932
5004,851,930
5005,849,930
5006,847,929
5007,847,927
5008,846,933
5009,847,931
5010,849,934
5011,851,933
5012,853,936
5013,850,933
5014,850,935
5015,850,930
5016,846,928
5017,845,931
5018,843,929
5019,841,928
5020,844,927
5021,843,932
5022,846,933
5023,846,936
5024,848,936
5025,847,932
5026,846,931
5027,848,930
5028,846,928
5029,846,928
5030,843,925
5031,839,928
5032,840,925
5033,841,929
5034,844,931
5035,843,934
5036,845,932
5037,846,932
5038,848,931
5039,847,929
5040,845,927
5041,842,927
5042,843,929
5043,838,929
5044,842,930
5045,843,928
5046,845,933
5047,844,932
5048,847,933
5049,844,933
5050,848,931
5051,845,927
5052,844,927
5053,840,926
5054,841,927
5055,840,928
5056,842,928
5057,842,930
5058,844,932
5059,845,931
5060,845,932
5061,847,931
5062,844,931
5063,842,925
5064,844,926
5065,845,926
5066,840,924
5067,839,924
5068,840,926
5069,840,932
5070,842,931
5071,845,934
5072,845,931
5073,850,931
5074,848,932
5075,846,927
5076,845,930
5077,847,927
5078,846,928
5079,842,926
5080,844,932
5081,844,932
5082,846,932
5083,845,934
5084,848,934
5085,845,933
5086,843,933
5087,843,931
5088,843,931
5089,842,926
5090,841,928
5091,842,929
5092,842,930
5093,845,933
5094,847,931
5095,850,933
5096,851,932
5097,847,932
5098,848,930
5099,845,931
5100,845,925
5101,847,928
5102,847,927
5103,845,929
5104,847,928
5105,846,933
5106,846,932
5107,848,935
5108,850,935
5109,849,935
5110,851,934
5111,851,931
5112,849,927
5113,846,927
5114,846,929
5115,845,928
5116,846,927
5117,847,931
5118,848,931
5119,847,931
5120,850,932
5121,847,933
5122,846,932
5123,846,931
5124,846,925
5125,846,929
5126,846,925
5127,844,922
5128,842,925
5129,845,928
5130,845,931
5131,846,932
5132,849,930
5133,850,930
5134,848,932
5135,848,929
5136,846,928
5137,846,926
5138,846,922
5139,840,926
5140,845,926
5141,843,931
5142,848,933
5143,851,935
5144,853,936
5145,853,934
5146,853,933
5147,852,927
5148,854,931
5149,851,928
5150,850,929
5151,846,929
5152,846,928
5153,851,935
5154,848,932
5155,855,935
5156,857,937
5157,859,937
5158,862,937
5159,859,935
5160,862,932
5161,867,928
5162,869,928
5163,867,929
5164,868,933
5165,869,941
5166,871,942
5167,874,947
5168,881,948
5169,883,949
5170,887,948
5171,887,949
5172,887,951
5173,885,951
5174,883,956
5175,880,955
5176,878,960
5177,877,964
5178,877,965
5179,875,966
5180,877,967
5181,877,963
5182,874,963
5183,871,959
5184,869,955
5185,865,953
5186,858,952
5187,854,951
5188,849,950
5189,849,947
5190,850,946
5191,853,947
5192,855,942
5193,852,941
5194,850,936
5195,850,931
5196,845,932
5197,847,929
5198,846,926
5199,845,927
5200,844,928
5201,845,932
5202,844,931
5203,845,931
5204,848,931
5205,847,930
5206,848,926
5207,845,926
5208,849,925
5209,844,922
5210,839,919
5211,837,925
5212,840,925
5213,842,927
5214,842,925
5215,844,925
5216,847,925
5217,848,928
5218,851,929
5219,850,926
5220,850,924
5221,849,923
5222,854,918
5223,863,922
5224,875,929
5225,895,947
5226,923,970
5227,949,1009
5228,979,1053
5229,1005,1099
5230,1020,1147
5231,1018,1185
5232,1001,1220
5233,965,1235
5234,918,1230
5235,863,1201
5236,811,1158
5237,768,1096
5238,729,1034
5239,704,967
5240,699,912
5241,705,877
5242,722,864
5243,741,869
5244,761,885
5245,776,900
5246,788,911
5247,799,919
5248,811,923
5249,826,927
5250,837,929
5251,851,937
5252,859,937
5253,862,936
5254,861,933
5255,856,932
5256,855,930
5257,854,929
5258,854,926
5259,849,928
5260,853,927
5261,857,933
5262,862,932
5263,864,939
5264,867,939
5265,868,936
5266,867,937
5267,867,937
5268,869,936
5269,866,933
5270,869,933
5271,866,935
5272,866,938
5273,870,939
5274,874,939
5275,873,943
5276,873,944
5277,878,948
5278,877,947
5279,872,939
5280,870,945
5281,870,940
5282,872,942
5283,869,941
5284,869,945
5285,870,946
5286,876,951
5287,879,953
5288,882,955
5289,883,954
5290,883,953
5291,885,950
5292,884,954
5293,881,955
5294,883,949
5295,883,954
5296,882,956
5297,886,960
5298,887,965
5299,889,965
5300,892,969
5301,895,968
5302,895,968
5303,897,967
5304,898,968
5305,896,968
5306,898,968
5307,898,969
5308,901,974
5309,902,980
5310,907,982
5311,912,984
5312,911,990
5313,916,989
5314,917,992
5315,922,990
5316,920,997
5317,924,996
5318,927,999
5319,929,1004
5320,932,1010
5321,940,1015
5322,944,1023
5323,946,1025
5324,956,1029
5325,960,1032
5326,960,1031
5327,960,1036
5328,963,1037
5329,966,1038
5330,966,1039
5331,971,1041
5332,972,1046
5333,977,1053
5334,981,1055
5335,983,1059
5336,987,1061
5337,987,1063
5338,989,1063
5339,990,1061
5340,993,1064
5341,990,1063
5342,991,1061
5343,989,1061
5344,990,1062
5345,991,1065
5346,985,1060
5347,989,1064
5348,986,1062
5349,984,1061
5350,977,1054
5351,972,1044
5352,965,1042
5353,960,1035
5354,953,1027
5355,947,1020
5356,941,1019
5357,935,1014
5358,931,1006
5359,927,1005
5360,923,998
5361,916,992
5362,911,982
5363,903,976
5364,896,966
5365,892,962
5366,884,954
5367,882,949
5368,876,951
5369,872,946
5370,874,948
5371,874,948
5372,874,944
5373,872,945
5374,870,942
5375,865,934
5376,865,933
5377,862,929
5378,860,930
5379,856,927
5380,856,928
5381,858,930
5382,857,929
5383,859,930
5384,860,931
5385,860,926
5386,860,928
5387,858,925
5388,856,926
5389,856,922
5390,853,923
5391,855,922
5392,853,925
5393,856,924
5394,858,924
5395,857,926
5396,862,927
5397,860,926
5398,860,927
5399,860,925
5400,859,923
5401,855,921
5402,853,923
5403,851,925
5404,854,927
5405,855,930
5406,859,930
5407,857,933
5408,856,934
5409,860,932
5410,862,934
5411,861,929
5412,860,930
5413,862,926
5414,857,927
5415,856,931
5416,856,930
5417,858,929
5418,857,933
5419,859,934
5420,859,936
5421,861,934
5422,859,934
5423,858,932
5424,857,930
5425,854,932
5426,855,931
5427,854,933
5428,853,934
5429,855,935
5430,856,939
5431,857,936
5432,856,937
5433,855,934
5434,854,932
5435,849,932
5436,850,930
5437,847,927
5438,847,928
5439,845,927
5440,847,931
5441,846,930
5442,848,931
5443,848,935
5444,850,935
5445,849,934
5446,848,932
5447,845,932
5448,842,930
5449,840,927
5450,839,923
5451,841,922
5452,840,927
5453,838,929
5454,841,930
5455,844,932
5456,846,933
5457,846,931
5458,845,931
5459,843,928
5460,842,925
5461,841,924
5462,841,923
5463,839,922
5464,839,927
5465,841,929
5466,841,929
5467,842,933
5468,841,934
5469,843,930
5470,843,929
5471,842,924
5472,842,921
5473,839,922
5474,838,923
5475,838,921
5476,839,923
5477,841,928
5478,841,929
5479,843,930
5480,843,932
5481,844,929
5482,840,931
5483,840,929
5484,839,924
5485,839,920
5486,836,921
5487,835,921
5488,836,923
5489,838,924
5490,837,926
5491,838,931
5492,841,928
5493,840,933
5494,843,929
5495,844,927
5496,840,927
5497,841,929
5498,841,926
5499,837,931
5500,835,926
5501,836,927
5502,838,932
5503,839,931
5504,842,926
5505,844,929
5506,842,929
5507,839,928
5508,840,927
5509,840,926
5510,838,927
5511,836,928
5512,840,929
5513,839,930
5514,842,931
5515,842,933
5516,844,937
5517,842,933
5518,841,932
5519,839,931
5520,841,932
5521,837,927
5522,835,929
5523,837,925
5524,833,932
5525,839,930
5526,839,936
5527,839,936
5528,844,935
5529,843,932
5530,842,934
5531,841,929
5532,839,930
5533,838,930
5534,835,931
5535,836,927
5536,834,930
5537,834,932
5538,841,932
5539,841,937
5540,842,934
5541,842,934
5542,844,932
5543,839,929
5544,840,932
5545,838,928
5546,840,929
5547,834,928
5548,837,928
5549,838,933
5550,840,937
5551,840,940
5552,841,938
5553,842,934
5554,844,933
5555,841,932
5556,841,929
5557,839,928
5558,838,930
5559,837,931
5560,836,933
5561,838,935
5562,839,934
5563,839,939
5564,844,943
5565,844,939
5566,845,937
5567,843,936
5568,841,938
5569,840,936
5570,836,935
5571,834,935
5572,835,936
5573,835,938
5574,839,941
5575,843,940
5576,844,943
5577,846,942
5578,846,940
5579,842,939
5580,842,938
5581,839,937
5582,837,937
5583,838,936
5584,839,937
5585,843,940
5586,844,940
5587,848,943
5588,851,943
5589,850,943
5590,856,941
5591,857,940
5592,858,940
5593,859,935
5594,858,937
5595,857,938
5596,856,942
5597,858,944
5598,863,951
5599,872,956
5600,878,958
5601,879,958
5602,880,961
5603,879,962
5604,877,964
5605,876,966
5606,869,966
5607,869,970
5608,866,970
5609,863,970
5610,864,972
5611,864,971
5612,866,971
5613,865,968
5614,860,967
5615,856,964
5616,850,958
5617,845,956
5618,842,951
5619,837,946
5620,837,946
5621,839,944
5622,840,943
5623,842,942
5624,843,944
5625,845,941
5626,843,943
5627,842,940
5628,839,937
5629,838,934
5630,834,929
5631,833,932
5632,833,930
5633,835,934
5634,839,936
5635,839,936
5636,838,936
5637,837,937
5638,837,936
5639,839,934
5640,837,933
5641,836,932
5642,833,931
5643,831,930
5644,836,932
5645,840,935
5646,843,937
5647,845,941
5648,847,940
5649,850,938
5650,860,941
5651,871,942
5652,886,956
5653,907,980
5654,931,1017
5655,962,1065
5656,984,1118
5657,1006,1172
5658,1006,1223
5659,984,1255
5660,944,1264
5661,889,1243
5662,832,1198
5663,775,1131
5664,725,1047
5665,689,965
5666,671,891
5667,678,845
5668,699,834
5669,722,851
5670,749,881
5671,768,899
5672,781,914
5673,794,919
5674,806,924
5675,818,925
5676,829,927
5677,838,929
5678,849,935
5679,850,936
5680,853,939
5681,851,940
5682,853,940
5683,853,939
5684,858,944
5685,857,941
5686,857,942
5687,861,940
5688,862,940
5689,860,939
5690,859,939
5691,861,941
5692,863,942
5693,865,942
5694,867,946
5695,868,948
5696,872,951
5697,874,948
5698,874,946
5699,874,948
5700,868,946
5701,872,946
5702,871,946
5703,872,944
5704,871,950
5705,870,950
5706,877,956
5707,877,959
5708,881,960
5709,883,957
5710,883,961
5711,884,960
5712,880,957
5713,880,957
5714,876,959
5715,876,960
5716,881,963
5717,879,966
5718,883,971
5719,887,972
5720,889,974
5721,893,975
5722,891,970
5723,895,972
5724,893,972
5725,893,970
5726,893,972
5727,893,977
5728,895,977
5729,898,980
5730,901,984
5731,908,990
5732,910,991
5733,910,993
5734,917,992
5735,914,989
5736,915,995
5737,917,996
5738,913,1001
5739,918,999
5740,922,1002
5741,928,1011
5742,934,1015
5743,937,1019
5744,945,1025
5745,948,1025
5746,950,1027
5747,956,1031
5748,960,1031
5749,960,1033
5750,960,1036
5751,963,1039
5752,964,1045
5753,969,1050
5754,974,1052
5755,980,1057
5756,982,1061
5757,985,1063
5758,987,1065
5759,990,1066
5760,989,1065
5761,989,1066
5762,989,1065
5763,992,1069
5764,990,1067
5765,992,1070
5766,994,1071
5767,993,1075
5768,994,1075
5769,992,1073
5770,990,1067
5771,986,1064
5772,981,1060
5773,979,1056
5774,970,1052
5775,967,1049
5776,964,1040
5777,957,1039
5778,952,1034
5779,950,1031
5780,945,1023
5781,942,1019
5782,937,1010
5783,932,1002
5784,923,996
5785,918,989
5786,910,981
5787,905,972
5788,899,973
5789,895,969
5790,892,967
5791,890,967
5792,888,961
5793,887,959
5794,883,951
5795,882,946
5796,879,944
5797,877,941
5798,872,939
5799,871,937
5800,870,935
5801,869,938
5802,870,938
5803,874,942
5804,871,943
5805,871,937
5806,868,938
5807,867,936
5808,867,931
5809,867,930
5810,866,933
5811,866,933
5812,866,929
5813,869,927
5814,868,933
5815,869,933
5816,870,935
5817,873,935
5818,868,935
5819,871,930
5820,871,932
5821,869,926
5822,869,930
5823,865,929
5824,867,931
5825,868,935
5826,866,935
5827,869,936
5828,873,938
5829,873,938
5830,873,933
5831,872,935
5832,874,934
5833,873,931
5834,871,933
5835,870,932
5836,869,935
5837,871,934
5838,871,938
5839,873,939
5840,875,938
5841,875,941
5842,875,939
5843,872,940
5844,870,938
5845,869,939
5846,871,936
5847,869,935
5848,871,936
5849,871,939
5850,872,940
5851,873,942
5852,872,943
5853,873,940
5854,872,940
5855,871,938
5856,868,937
5857,868,935
5858,866,934
5859,865,930
5860,862,933
5861,862,937
5862,864,938
5863,859,937
5864,864,940
5865,868,938
5866,870,937
5867,866,937
5868,864,930
5869,863,930
5870,862,927
5871,860,926
5872,860,930
5873,859,933
5874,861,933
5875,861,933
5876,865,936
5877,861,932
5878,863,931
5879,863,931
5880,861,929
5881,859,929
5882,860,924
5883,858,925
5884,859,928
5885,856,928
5886,859,932
5887,861,932
5888,861,933
5889,859,933
5890,862,927
5891,861,927
5892,860,926
5893,856,921
5894,854,925
5895,854,921
5896,855,924
5897,858,926
5898,860,929
5899,859,929
5900,862,931
5901,864,931
5902,865,926
5903,863,927
5904,860,923
5905,858,922
5906,855,922
5907,853,921
5908,853,925
5909,856,926
5910,859,929
5911,856,930
5912,860,931
5913,860,931
5914,861,930
5915,859,928
5916,860,929
5917,859,926
5918,856,926
5919,854,924
5920,853,928
5921,854,929
5922,856,931
5923,858,929
5924,861,934
5925,861,933
5926,859,932
5927,857,928
5928,856,930
5929,855,925
5930,855,925
5931,854,924
5932,855,927
5933,854,931
5934,857,932
5935,859,932
5936,862,929
5937,862,932
5938,860,929
5939,860,928
5940,860,927
5941,857,925
5942,856,926
5943,856,928
5944,858,928
5945,853,929
5946,857,929
5947,858,933
5948,860,933
5949,861,931
5950,860,930
5951,858,931
5952,859,927
5953,857,928
5954,855,924
5955,857,925
5956,856,925
5957,855,926
5958,857,928
5959,858,928
5960,861,931
5961,860,926
5962,858,927
5963,860,927
5964,855,926
5965,855,923
5966,856,925
5967,856,925
5968,857,927
5969,857,928
5970,859,927
5971,860,929
5972,863,932
5973,861,931
5974,862,930
5975,860,927
5976,856,927
5977,855,927
5978,856,924
5979,855,923
5980,856,926
5981,858,927
5982,859,927
5983,861,932
5984,862,934
5985,864,934
5986,862,932
5987,861,932
5988,861,931
5989,860,928
5990,860,927
5991,858,926
5992,858,929
5993,859,933
5994,859,934
5995,859,934
5996,862,937
5997,860,935
5998,861,935
5999,862,932
6000,861,930
6001,861,929
6002,862,931
6003,858,930
6004,860,930
6005,861,933
6006,862,934
6007,863,934
6008,868,937
6009,868,938
6010,866,932
6011,864,932
6012,864,931
6013,866,931
6014,861,932
6015,863,931
6016,864,931
6017,864,934
6018,871,935
6019,873,939
6020,875,939
6021,883,937
6022,885,937
6023,883,937
6024,881,933
6025,880,935
6026,883,937
6027,882,937
6028,886,939
6029,891,944
6030,895,949
6031,897,952
6032,900,955
6033,902,961
6034,903,959
6035,901,958
6036,893,961
6037,889,962
6038,889,960
6039,886,960
6040,885,958
6041,881,960
6042,884,961
6043,884,963
6044,881,963
6045,879,958
6046,871,958
6047,868,951
6048,867,946
6049,865,943
6050,864,940
6051,862,935
6052,861,935
6053,860,936
6054,864,938
6055,864,942
6056,863,943
6057,865,939
6058,864,936
6059,862,937
6060,858,930
6061,855,932
6062,849,928
6063,848,926
6064,851,927
6065,852,929
6066,856,931
6067,861,934
6068,863,935
6069,863,934
6070,863,931
6071,862,930
6072,862,930
6073,860,928
6074,857,929
6075,856,926
6076,856,927
6077,858,929
6078,859,937
6079,865,937
6080,866,938
6081,869,934
6082,878,933
6083,890,935
6084,903,948
6085,920,962
6086,945,994
6087,972,1031
6088,1000,1078
6089,1025,1130
6090,1035,1179
6091,1029,1221
6092,1006,1250
6093,970,1254
6094,918,1233
6095,861,1191
6096,809,1125
6097,759,1053
6098,726,981
6099,712,923
6100,717,885
6101,737,877
6102,757,888
6103,779,908
6104,799,925
6105,816,930
6106,831,931
6107,840,936
6108,849,933
6109,860,933
6110,865,937
6111,868,935
6112,873,938
6113,872,937
6114,872,941
6115,871,941
6116,875,942
6117,876,942
6118,877,938
6119,879,938
6120,879,937
6121,881,935
6122,880,935
6123,878,934
6124,880,938
6125,877,940
6126,881,942
6127,883,946
6128,884,952
6129,890,948
6130,889,947
6131,887,946
6132,886,943
6133,887,944
6134,885,942
6135,888,943
6136,888,941
6137,890,945
6138,890,951
6139,891,952
6140,898,957
6141,897,954
6142,897,953
6143,897,952
6144,896,952
6145,894,951
6146,893,950
6147,891,949
6148,892,954
6149,894,956
6150,895,958
6151,898,962
6152,902,963
6153,902,968
6154,902,969
6155,902,964
6156,905,966
6157,904,963
6158,904,963
6159,904,965
6160,904,969
6161,905,971
6162,909,973
6163,911,975
6164,917,978
6165,918,979
6166,921,977
6167,916,979
6168,915,978
6169,919,979
6170,918,979
6171,922,982
6172,922,986
6173,926,991
6174,931,996
6175,936,999
6176,943,1003
6177,948,1004
6178,951,1002
6179,949,1007
6180,955,1008
6181,956,1010
6182,955,1014
6183,960,1017
6184,964,1021
6185,969,1028
6186,971,1030
6187,977,1036
6188,980,1040
6189,986,1041
6190,987,1046
6191,990,1044
6192,990,1045
6193,992,1048
6194,994,1051
6195,994,1052
6196,998,1054
6197,999,1057
6198,1000,1063
6199,1004,1062
6200,1005,1067
6201,1007,1066
6202,1006,1066
6203,1005,1066
6204,1003,1067
6205,1002,1062
6206,997,1059
6207,994,1058
6208,990,1058
6209,990,1057
6210,987,1055
6211,987,1053
6212,983,1049
6213,981,1046
6214,974,1038
6215,968,1034
6216,960,1022
6217,950,1017
6218,946,1011
6219,941,1005
6220,934,1003
6221,925,998
6222,924,992
6223,919,988
6224,915,981
6225,911,979
6226,910,973
6227,905,965
6228,899,962
6229,894,955
6230,889,951
6231,887,947
6232,883,948
6233,883,945
6234,883,944
6235,882,948
6236,884,944
6237,881,945
6238,878,944
6239,878,936
6240,874,937
6241,869,933
6242,871,935
6243,868,931
6244,866,930
6245,870,932
6246,870,931
6247,873,934
6248,870,933
6249,872,934
6250,873,930
6251,874,927
6252,872,930
6253,870,926
6254,869,924
6255,869,923
6256,869,922
6257,868,926
6258,868,931
6259,868,932
6260,870,930
6261,874,932
6262,875,928
6263,873,928
6264,872,928
6265,871,926
6266,872,923
6267,872,922
6268,872,923
6269,875,925
6270,874,927
6271,877,931
6272,878,931
6273,878,932
6274,879,935
6275,879,934
6276,875,929
6277,873,929
6278,874,928
6279,872,927
6280,872,929
6281,871,932
6282,869,934
6283,874,936
6284,877,939
6285,878,939
6286,879,934
6287,877,934
6288,875,930
6289,872,929
6290,871,928
6291,870,926
6292,866,929
6293,867,930
6294,870,931
6295,871,933
6296,875,934
6297,871,933
6298,870,931
6299,871,930
6300,867,928
6301,868,926
6302,866,924
6303,867,925
6304,865,926
6305,865,925
6306,865,929
6307,867,930
6308,869,932
6309,867,931
6310,867,928
6311,863,928
6312,863,927
6313,862,923
6314,859,921
6315,857,922
6316,858,923
6317,859,927
6318,861,927
6319,861,927
6320,864,929
6321,865,927
6322,862,925
6323,863,925
6324,858,920
6325,856,921
6326,856,919
6327,853,922
6328,856,922
6329,856,921
6330,858,924
6331,857,928
6332,858,928
6333,859,925
6334,862,927
6335,862,925
6336,856,921
6337,857,919
6338,858,921
6339,857,922
6340,855,921
6341,854,925
6342,856,925
6343,855,924
6344,856,930
6345,859,926
6346,857,928
6347,857,927
6348,852,927
6349,853,924
6350,851,922
6351,846,917
6352,849,922
6353,850,923
6354,849,929
6355,855,929
6356,858,930
6357,860,930
6358,855,931
6359,855,929
6360,853,926
6361,852,924
6362,850,924
6363,850,922
6364,848,925
6365,850,928
6366,852,927
6367,854,927
6368,853,930
6369,855,932
6370,853,930
6371,850,928
6372,847,925
6373,847,925
6374,844,923
6375,847,925
6376,845,924
6377,848,929
6378,848,927
6379,850,930
6380,851,931
6381,854,929
6382,854,927
6383,853,925
6384,851,925
6385,848,922
6386,847,923
6387,846,923
6388,847,922
6389,846,927
6390,850,930
6391,850,931
6392,850,933
6393,854,932
6394,852,930
6395,849,929
6396,853,924
6397,850,924
6398,849,921
6399,850,921
6400,847,924
6401,849,928
6402,850,925
6403,852,929
6404,852,928
6405,855,930
6406,854,929
6407,853,927
6408,850,924
6409,848,924
6410,847,925
6411,850,923
6412,847,925
6413,851,927
6414,851,930
6415,850,934
6416,853,935
6417,854,934
6418,855,936
6419,853,934
6420,854,929
6421,852,928
6422,849,930
6423,848,928
6424,849,931
6425,846,932
6426,849,932
6427,849,936
6428,854,936
6429,856,934
6430,855,933
6431,854,931
6432,853,933
6433,850,928
6434,848,934
6435,844,931
6436,847,932
6437,849,935
6438,850,934
6439,856,934
6440,855,937
6441,853,938
6442,852,936
6443,852,935
6444,853,936
6445,848,933
6446,850,932
6447,851,930
6448,849,930
6449,850,935
6450,849,933
6451,851,937
6452,856,940
6453,855,936
6454,857,939
6455,858,939
6456,856,936
6457,854,935
6458,849,930
6459,850,932
6460,850,932
6461,850,932
6462,852,934
6463,855,934
6464,857,935
6465,856,935
6466,856,936
6467,857,937
6468,856,934
6469,858,932
6470,858,930
6471,860,931
6472,862,930
6473,864,933
6474,867,938
6475,870,937
6476,872,940
6477,872,937
6478,871,941
6479,875,939
6480,878,943
6481,880,944
6482,882,944
6483,877,945
6484,877,948
6485,879,952
6486,884,957
6487,888,962
6488,886,963
6489,885,965
6490,883,969
6491,877,967
6492,873,961
6493,871,956
6494,868,960
6495,864,953
6496,860,955
6497,857,955
6498,858,955
6499,857,955
6500,855,955
6501,856,952
6502,855,947
6503,854,942
6504,853,939
6505,850,937
6506,848,933
6507,846,933
6508,846,934
6509,844,932
6510,849,932
6511,847,936
6512,849,930
6513,846,933
6514,846,934
6515,845,933
6516,841,931
6517,843,929
6518,839,929
6519,839,930
6520,839,931
6521,841,933
6522,845,933
6523,846,934
6524,847,936
6525,851,936
6526,847,933
6527,849,931
6528,851,931
6529,845,930
6530,847,934
6531,845,929
6532,850,931
6533,859,933
6534,873,940
6535,891,957
6536,915,987
6537,942,1021
6538,965,1065
6539,992,1115
6540,1005,1167
6541,1000,1205
6542,976,1236
6543,934,1247
6544,880,1225
6545,825,1188
6546,775,1122
6547,731,1047
6548,701,966
6549,684,896
6550,686,850
6551,702,833
6552,726,845
6553,749,866
6554,764,886
6555,783,904
6556,794,916
6557,806,921
6558,824,930
6559,836,933
6560,848,942
6561,859,940
6562,859,945
6563,861,944
6564,859,942
6565,857,940
6566,854,938
6567,856,940
6568,851,942
6569,854,942
6570,859,947
6571,863,948
6572,866,951
6573,869,950
6574,868,950
6575,868,948
6576,867,950
6577,861,949
6578,861,948
6579,863,945
6580,866,949
6581,867,952
6582,869,953
6583,868,956
6584,871,958
6585,874,956
6586,873,954
6587,872,955
6588,869,954
6589,869,955
6590,872,954
6591,872,951
6592,870,954
6593,874,960
6594,876,961
6595,877,964
6596,880,969
6597,879,968
6598,883,969
6599,884,964
6600,882,967
6601,881,963
6602,878,965
6603,879,964
6604,881,967
6605,880,972
6606,881,975
6607,887,977
6608,887,978
6609,888,982
6610,893,983
6611,895,983
6612,896,981
6613,894,982
6614,897,981
6615,899,980
6616,897,986
6617,901,987
6618,906,991
6619,910,996
6620,914,1001
6621,916,1007
6622,919,1009
6623,918,1013
6624,921,1011
6625,924,1013
6626,925,1017
6627,927,1022
6628,932,1023
6629,937,1029
6630,943,1040
6631,946,1043
6632,955,1049
6633,958,1053
6634,962,1055
6635,964,1057
6636,967,1055
6637,969,1059
6638,970,1058
6639,971,1062
6640,973,1066
6641,978,1070
6642,981,1074
6643,986,1079
6644,989,1086
6645,990,1086
6646,992,1086
6647,986,1084
6648,993,1083
6649,994,1081
6650,990,1081
6651,989,1080
6652,986,1084
6653,982,1086
6654,989,1083
6655,991,1085
6656,987,1088
6657,987,1082
6658,980,1075
6659,979,1072
6660,973,1064
6661,965,1058
6662,959,1051
6663,952,1042
6664,946,1034
6665,942,1029
6666,936,1027
6667,929,1023
6668,923,1018
6669,918,1010
6670,914,1002
6671,907,993
6672,901,983
6673,896,977
6674,886,970
6675,883,965
6676,881,963
6677,878,960
6678,877,960
6679,877,958
6680,875,956
6681,877,954
6682,873,951
6683,869,947
6684,869,945
6685,865,939
6686,861,935
6687,856,936
6688,858,935
6689,856,934
6690,856,934
6691,859,937
6692,860,941
6693,861,939
6694,861,937
6695,860,935
6696,860,931
6697,859,931
6698,854,926
6699,858,927
6700,853,933
6701,854,931
6702,853,938
6703,855,939
6704,857,939
6705,857,939
6706,859,938
6707,860,939
6708,858,935
6709,856,935
6710,856,932
6711,854,931
6712,855,931
6713,855,934
6714,858,939
6715,859,945
6716,863,941
6717,862,942
6718,862,941
6719,862,941
6720,858,935
6721,853,935
6722,851,935
6723,850,936
6724,850,937
6725,851,935
6726,856,939
6727,858,943
6728,860,943
6729,865,945
6730,858,942
6731,860,942
6732,858,945
6733,856,939
6734,855,938
6735,856,932
6736,853,938
6737,854,938
6738,853,940
6739,851,939
6740,853,943
6741,854,940
6742,855,940
6743,853,936
6744,852,937
6745,849,934
6746,849,935
6747,847,930
6748,848,930
6749,845,932
6750,844,933
6751,851,932
6752,853,936
6753,851,936
6754,852,933
6755,852,930
6756,850,931
6757,845,927
6758,847,925
6759,843,925
6760,842,925
6761,844,929
6762,845,931
6763,846,931
6764,851,930
6765,851,930
6766,851,927
6767,853,931
6768,850,927
6769,848,921
6770,843,924
6771,841,925
6772,838,928
6773,842,925
6774,843,928
6775,844,929
6776,846,932
6777,845,929
6778,847,934
6779,845,931
6780,843,925
6781,844,926
6782,845,923
6783,841,925
6784,843,927
6785,845,924
6786,844,930
6787,841,932
6788,844,930
6789,847,929
6790,849,927
6791,850,926
6792,847,926
6793,846,924
6794,843,924
6795,840,921
6796,840,922
6797,839,923
6798,842,924
6799,845,927
6800,842,929
6801,845,929
6802,845,928
6803,846,925
6804,845,923
6805,845,923
6806,844,921
6807,843,923
6808,843,923
6809,843,925
6810,845,928
6811,846,930
6812,847,928
6813,851,929
6814,850,926
6815,849,926
6816,845,919
6817,846,919
6818,845,920
6819,846,919
6820,845,918
6821,848,921
6822,846,923
6823,847,926
6824,849,922
6825,851,927
6826,849,926
6827,852,923
6828,849,921
6829,847,920
6830,845,920
6831,843,917
6832,841,916
6833,845,921
6834,848,922
6835,850,928
6836,850,928
6837,849,927
6838,851,927
6839,851,921
6840,849,922
6841,849,918
6842,845,917
6843,847,920
6844,847,919
6845,847,923
6846,849,926
6847,848,926
6848,850,926
6849,854,925
6850,850,925
6851,855,919
6852,853,921
6853,850,919
6854,849,917
6855,849,915
6856,850,916
6857,850,920
6858,853,924
6859,852,922
6860,851,924
6861,855,923
6862,855,924
6863,854,922
6864,851,919
6865,851,917
6866,850,918
6867,850,915
6868,850,919
6869,851,923
6870,851,923
6871,855,926
6872,857,927
6873,859,926
6874,858,926
6875,859,922
6876,857,923
6877,855,922
6878,854,916
6879,854,917
6880,852,921
6881,852,922
6882,853,925
6883,854,927
6884,857,926
6885,862,927
6886,858,926
6887,861,921
6888,857,921
6889,858,921
6890,856,916
6891,855,917
6892,853,916
6893,852,920
6894,854,920
6895,856,921
6896,858,925
6897,860,923
6898,861,924
6899,859,923
6900,859,920
6901,858,920
6902,856,916
6903,857,919
6904,855,917
6905,864,918
6906,866,924
6907,871,922
6908,876,925
6909,879,923
6910,878,925
6911,877,924
6912,876,921
6913,877,923
6914,875,925
6915,881,924
6916,884,928
6917,886,935
6918,892,941
6919,895,943
6920,897,947
6921,897,952
6922,893,954
6923,890,953
6924,885,953
6925,880,949
6926,878,946
6927,875,945
6928,875,947
6929,874,948
6930,874,946
6931,873,947
6932,872,947
6933,868,943
6934,867,937
6935,864,937
6936,862,930
6937,857,924
6938,859,920
6939,854,919
6940,856,916
6941,855,918
6942,855,916
6943,858,920
6944,858,920
6945,854,916
6946,856,919
6947,856,915
6948,851,909
6949,846,912
6950,847,910
6951,848,911
6952,849,909
6953,850,913
6954,851,919
6955,855,917
6956,856,919
6957,858,916
6958,858,917
6959,859,915
6960,857,913
6961,855,911
6962,856,911
6963,858,910
6964,854,911
6965,854,911
6966,859,916
6967,873,917
6968,885,922
6969,903,935
6970,924,958
6971,948,994
6972,978,1038
6973,1003,1088
6974,1020,1140
6975,1024,1184
6976,1008,1227
6977,975,1243
6978,928,1233
6979,877,1197
6980,819,1136
6981,771,1065
6982,734,983
6983,714,916
6984,713,868
6985,730,855
6986,749,861
6987,770,879
6988,791,896
6989,810,909
6990,824,920
6991,835,923
6992,849,924
6993,859,927
6994,866,923
6995,870,927
6996,869,922
6997,865,920
6998,864,920
6999,864,921
7000,864,918
7001,866,923
7002,870,922
7003,873,926
7004,875,928
7005,878,929
7006,878,927
7007,877,925
7008,876,926
7009,875,920
7010,877,925
7011,876,921
7012,875,922
7013,877,926
7014,878,928
7015,878,931
7016,880,932
7017,884,936
7018,885,933
7019,882,933
7020,885,930
7021,884,931
7022,884,931
7023,883,929
7024,884,934
7025,883,935
7026,886,939
7027,885,938
7028,886,940
7029,891,938
7030,891,938
7031,891,938
7032,891,937
7033,891,937
7034,887,937
7035,890,935
7036,891,937
7037,893,936
7038,898,943
7039,898,947
7040,899,948
7041,904,950
7042,904,951
7043,906,951
7044,903,952
7045,904,947
7046,906,950
7047,905,953
7048,908,955
7049,907,958
7050,913,962
7051,916,966
7052,921,969
7053,927,970
7054,928,973
7055,931,974
7056,935,975
7057,936,980
7058,939,981
7059,936,984
7060,936,986
7061,942,992
7062,947,997
7063,951,1003
7064,957,1004
7065,963,1009
7066,966,1012
7067,972,1016
7068,971,1018
7069,972,1018
7070,974,1020
7071,975,1022
7072,979,1026
7073,980,1032
7074,988,1037
7075,989,1039
7076,994,1043
7077,997,1046
7078,998,1047
7079,998,1046
7080,999,1044
7081,997,1045
7082,997,1041
7083,996,1044
7084,991,1044
7085,990,1044
7086,989,1047
7087,992,1046
7088,993,1042
7089,993,1045
7090,990,1038
7091,987,1034
7092,981,1029
7093,976,1022
7094,969,1013
7095,959,1009
7096,953,1004
7097,947,999
7098,943,994
7099,938,990
7100,935,983
7101,931,977
7102,925,969
7103,918,962
7104,912,953
7105,905,949
7106,902,941
7107,895,937
7108,893,932
7109,888,930
7110,890,931
7111,889,926
7112,887,926
7113,881,926
7114,881,924
7115,882,922
7116,879,917
7117,876,917
7118,873,911
7119,870,911
7120,869,910
7121,869,912
7122,870,912
7123,873,911
7124,872,913
7125,874,916
7126,872,915
7127,874,913
7128,871,912
7129,871,912
7130,871,909
7131,866,906
7132,867,909
7133,866,908
7134,870,913
7135,872,915
7136,874,916
7137,876,916
7138,875,915
7139,874,912
7140,875,913
7141,874,910
7142,875,909
7143,873,909
7144,871,913
7145,871,912
7146,876,914
7147,877,915
7148,875,918
7149,876,918
7150,876,916
7151,876,915
7152,875,914
7153,877,913
7154,874,910
7155,872,912
7156,872,912
7157,870,914
7158,873,918
7159,876,916
7160,880,918
7161,883,917
7162,879,919
7163,880,917
7164,880,916
7165,874,915
7166,872,910
7167,869,908
7168,868,910
7169,869,911
7170,868,913
7171,867,917
7172,872,914
7173,874,916
7174,872,914
7175,871,913
7176,872,909
7177,870,907
7178,867,905
7179,866,905
7180,864,905
7181,865,908
7182,863,908
7183,865,908
7184,866,909
7185,869,909
7186,865,908
7187,865,907
7188,865,902
7189,861,903
7190,861,903
7191,859,900
7192,860,901
7193,861,903
7194,859,904
7195,861,904
7196,865,907
7197,867,907
7198,864,906
7199,862,905
7200,860,903
7201,861,901
7202,858,898
7203,858,899
7204,855,905
7205,856,903
7206,859,903
7207,856,905
7208,860,909
7209,863,906
7210,860,907
7211,860,907
7212,861,904
7213,857,902
7214,858,901
7215,858,898
7216,854,901
7217,853,901
7218,855,907
7219,857,904
7220,859,904
7221,862,906
7222,862,907
7223,859,903
7224,859,900
7225,858,901
7226,855,896
7227,855,896
7228,851,898
7229,855,900
7230,856,899
7231,856,904
7232,858,905
7233,861,905
7234,858,903
7235,859,900
7236,856,898
7237,855,896
7238,851,896
7239,855,896
7240,854,897
7241,853,895
7242,853,901
7243,854,900
7244,855,902
7245,859,902
7246,859,902
7247,857,903
7248,859,897
7249,857,894
7250,853,893
7251,853,894
7252,852,895
7253,852,895
7254,853,896
7255,854,898
7256,853,902
7257,856,901
7258,860,901
7259,858,896
7260,860,900
7261,856,897
7262,855,896
7263,853,893
7264,854,894
7265,853,896
7266,855,896
7267,859,898
7268,858,901
7269,860,901
7270,859,901
7271,859,900
7272,857,898
7273,852,897
7274,849,896
7275,851,896
7276,849,897
7277,851,899
7278,854,902
7279,858,900
7280,859,902
7281,861,901
7282,862,903
7283,858,903
7284,855,898
7285,854,897
7286,851,897
7287,852,897
7288,852,895
7289,851,896
7290,855,901
7291,854,900
7292,854,900
7293,858,903
7294,856,906
7295,856,902
7296,855,900
7297,855,897
7298,853,894
7299,854,896
7300,854,895
7301,854,896
7302,852,900
7303,856,902
7304,857,902
7305,859,902
7306,860,902
7307,857,903
7308,856,898
7309,854,899
7310,855,894
7311,852,893
7312,851,893
7313,851,894
7314,856,896
7315,854,899
7316,856,899
7317,859,901
7318,861,900
7319,857,900
7320,858,898
7321,855,898
7322,855,894
7323,853,893
7324,851,894
7325,851,893
7326,855,900
7327,855,898
7328,856,899
7329,857,900
7330,858,898
7331,859,899
7332,858,896
7333,860,896
7334,857,893
7335,855,889
7336,854,892
7337,852,891
7338,852,896
7339,855,898
7340,858,897
7341,858,899
7342,855,899
7343,856,899
7344,856,896
7345,855,894
7346,855,892
7347,855,894
7348,854,897
7349,855,897
7350,859,901
7351,861,903
7352,866,903
7353,871,903
7354,868,901
7355,871,902
7356,869,899
7357,873,899
7358,873,897
7359,870,898
7360,868,900
7361,870,905
7362,872,907
7363,881,912
7364,886,917
7365,888,915
7366,888,918
7367,892,919
7368,890,921
7369,888,924
7370,886,927
7371,881,927
7372,874,926
7373,870,926
7374,871,929
7375,873,931
7376,873,926
7377,875,931
7378,872,930
7379,868,925
7380,866,920
7381,858,919
7382,854,911
7383,851,909
7384,849,903
7385,847,903
7386,845,905
7387,846,901
7388,852,903
7389,853,901
7390,851,901
7391,849,899
7392,842,896
7393,842,893
7394,842,891
7395,840,887
7396,839,887
7397,840,890
7398,841,891
7399,843,889
7400,846,896
7401,850,893
7402,849,895
7403,848,894
7404,845,890
7405,845,888
7406,841,885
7407,843,888
7408,843,885
7409,842,890
7410,842,893
7411,846,896
7412,850,899
7413,855,901
7414,858,897
7415,869,897
7416,878,902
7417,895,923
7418,917,954
7419,943,992
7420,966,1040
7421,990,1094
7422,998,1148
7423,995,1187
7424,964,1209
7425,921,1204
7426,866,1170
7427,810,1110
7428,764,1037
7429,725,959
7430,700,889
7431,696,838
7432,704,818
7433,727,821
7434,750,842
7435,771,864
7436,791,881
7437,808,890
7438,822,892
7439,827,898
7440,841,896
7441,846,898
7442,848,898
7443,852,900
7444,852,901
7445,849,902
7446,848,904
7447,851,904
7448,855,906
7449,859,904
7450,859,909
7451,861,905
7452,861,906
7453,861,904
7454,859,901
7455,860,902
7456,858,903
7457,858,906
7458,859,909
7459,863,912
7460,864,910
7461,867,912
7462,865,911
7463,865,909
7464,865,909
7465,865,908
7466,866,904
7467,868,906
7468,864,908
7469,864,910
7470,867,915
7471,867,914
7472,870,918
7473,874,918
7474,875,919
7475,875,917
7476,874,920
7477,872,914
7478,871,914
7479,871,916
7480,873,917
7481,874,919
7482,873,921
7483,878,925
7484,883,930
7485,883,930
7486,886,929
7487,885,930
7488,886,930
7489,883,932
7490,886,930
7491,883,930
7492,883,929
7493,884,932
7494,886,937
7495,891,940
7496,896,946
7497,899,948
7498,899,951
7499,901,953
7500,903,953
7501,902,956
7502,908,955
7503,906,958
7504,906,963
7505,909,967
7506,914,967
7507,919,974
7508,921,981
7509,926,982
7510,932,984
7511,938,987
7512,939,985
7513,940,992
7514,944,991
7515,946,999
7516,948,1001
7517,953,1005
7518,955,1010
7519,954,1016
7520,963,1021
7521,967,1023
7522,968,1024
7523,972,1025
7524,973,1028
7525,976,1031
7526,977,1028
7527,975,1026
7528,977,1028
7529,977,1033
7530,980,1036
7531,979,1035
7532,981,1039
7533,983,1038
7534,983,1037
7535,984,1033
7536,979,1031
7537,975,1027
7538,968,1023
7539,965,1020
7540,959,1015
7541,952,1010
7542,949,1006
7543,944,1005
7544,940,1001
7545,938,994
7546,932,986
7547,926,980
7548,916,971
7549,910,961
7550,904,954
7551,897,948
7552,889,943
7553,883,939
7554,878,937
7555,877,933
7556,875,928
7557,874,924
7558,870,918
7559,866,916
7560,864,910
7561,857,906
7562,854,904
7563,854,899
7564,850,900
7565,852,898
7566,851,901
7567,853,904
7568,852,904
7569,855,904
7570,853,901
7571,853,901
7572,855,894
7573,849,896
7574,848,891
7575,847,892
7576,844,892
7577,846,896
7578,847,897
7579,849,899
7580,850,901
7581,853,896
7582,851,898
7583,852,897
7584,851,897
7585,848,899
7586,846,894
7587,847,895
7588,844,898
7589,843,893
7590,845,897
7591,846,897
7592,850,903
7593,854,901
7594,851,902
7595,850,898
7596,849,899
7597,848,894
7598,846,891
7599,843,894
7600,843,892
7601,842,896
7602,843,896
7603,846,903
7604,848,902
7605,850,902
7606,849,902
7607,849,900
7608,847,898
7609,847,899
7610,843,897
7611,842,895
7612,840,895
7613,840,897
7614,839,898
7615,840,898
7616,841,899
7617,843,898
7618,845,899
7619,845,896
7620,842,893
7621,841,893
7622,843,891
7623,839,893
7624,839,892
7625,841,896
7626,837,898
7627,839,902
7628,841,901
7629,841,903
7630,840,897
7631,838,896
7632,837,892
7633,835,893
7634,837,890
7635,830,889
7636,831,888
7637,833,887
7638,832,891
7639,835,892
7640,837,897
7641,835,895
7642,837,896
7643,833,892
7644,836,892
7645,835,889
7646,831,889
7647,831,890
7648,830,888
7649,829,888
7650,831,891
7651,835,890
7652,835,893
7653,837,894
7654,838,892
7655,837,891
7656,835,888
7657,833,885
7658,830,886
7659,830,887
7660,826,882
7661,824,883
7662,826,888
7663,827,889
7664,828,893
7665,831,890
7666,832,891
7667,833,892
7668,831,890
7669,831,890
7670,830,884
7671,828,887
7672,827,884
7673,828,884
7674,829,889
7675,830,888
7676,829,890
7677,831,893
7678,832,892
7679,831,890
7680,830,887
7681,830,884
7682,823,883
7683,824,882
7684,823,885
7685,824,885
7686,826,885
7687,828,890
7688,826,890
7689,830,892
7690,833,889
7691,832,888
7692,831,889
7693,829,888
7694,825,883
7695,825,883
7696,824,885
7697,825,884
7698,824,890
7699,826,892
7700,826,895
7701,827,890
7702,826,893
7703,826,892
7704,829,893
7705,833,888
7706,830,886
7707,829,887
7708,826,889
7709,825,887
7710,824,893
7711,828,892
7712,829,894
7713,831,894
7714,832,894
7715,830,894
7716,828,890
7717,828,892
7718,825,886
7719,825,890
7720,825,889
7721,824,890
7722,827,890
7723,828,892
7724,829,894
7725,830,896
7726,828,896
7727,833,894
7728,833,891
7729,832,891
7730,828,890
7731,827,887
7732,828,889
7733,827,887
7734,826,893
7735,828,891
7736,833,893
7737,832,895
7738,833,895
7739,833,893
7740,834,894
7741,832,893
7742,832,889
7743,829,887
7744,827,889
7745,828,889
7746,826,892
7747,830,894
7748,831,897
7749,831,895
7750,833,896
7751,832,892
7752,831,890
7753,830,892
7754,825,887
7755,826,887
7756,830,887
7757,829,890
7758,829,891
7759,835,893
7760,836,894
7761,835,895
7762,835,894
7763,834,894
7764,836,894
7765,838,886
7766,835,888
7767,834,889
7768,830,889
7769,830,890
7770,831,893
7771,833,893
7772,838,897
7773,837,898
7774,839,899
7775,840,896
7776,837,894
7777,835,892
7778,834,890
7779,832,891
7780,833,890
7781,834,890
7782,838,895
7783,839,899
7784,842,896
7785,846,898
7786,848,897
7787,850,896
7788,852,894
7789,853,892
7790,856,891
7791,852,888
7792,851,889
7793,853,894
7794,856,898
7795,858,902
7796,865,908
7797,870,908
7798,871,909
7799,871,916
7800,874,914
7801,870,915
7802,871,915
7803,868,918
7804,868,920
7805,865,920
7806,866,927
7807,863,924
7808,864,927
7809,865,929
7810,863,923
7811,863,924
7812,859,920
7813,854,916
7814,846,911
7815,840,907
7816,837,905
7817,833,901
7818,835,900
7819,840,895
7820,840,898
7821,843,895
7822,843,897
7823,842,894
7824,842,893
7825,837,888
7826,835,886
7827,832,882
7828,832,886
7829,834,885
7830,836,889
7831,836,890
7832,839,892
7833,837,891
7834,839,891
7835,835,894
7836,835,888
7837,831,884
7838,837,885
7839,837,885
7840,835,889
7841,838,888
7842,837,889
7843,842,891
7844,845,896
7845,849,891
7846,849,891
7847,853,891
7848,856,891
7849,871,896
7850,887,912
7851,908,940
7852,935,986
7853,965,1035
7854,993,1093
7855,1007,1147
7856,1008,1189
7857,984,1218
7858,945,1215
7859,893,1188
7860,838,1133
7861,785,1065
7862,740,981
7863,704,902
7864,693,845
7865,700,815
7866,720,816
7867,743,833
7868,765,855
7869,784,872
7870,794,880
7871,805,885
7872,815,883
7873,829,886
7874,838,887
7875,849,891
7876,852,892
7877,855,895
7878,859,895
7879,856,897
7880,856,896
7881,860,898
7882,860,897
7883,862,899
7884,863,895
7885,865,895
7886,864,893
7887,863,892
7888,863,893
7889,863,895
7890,866,896
7891,869,895
7892,870,898
7893,869,899
7894,873,905
7895,873,899
7896,878,900
7897,874,900
7898,870,896
7899,871,899
7900,872,901
7901,875,904
7902,875,907
7903,876,908
7904,877,908
7905,879,910
7906,882,909
7907,881,907
7908,882,910
7909,882,908
7910,882,907
7911,882,908
7912,881,910
7913,884,911
7914,884,915
7915,886,913
7916,889,921
7917,894,923
7918,893,922
7919,894,924
7920,894,922
7921,893,921
7922,892,919
7923,891,921
7924,894,924
7925,890,926
7926,897,928
7927,900,930
7928,901,933
7929,905,937
7930,907,936
7931,908,936
7932,911,940
7933,912,936
7934,912,938
7935,912,941
7936,914,943
7937,915,948
7938,919,955
7939,924,960
7940,928,962
7941,931,966
7942,934,967
7943,937,969
7944,940,972
7945,940,974
7946,945,975
7947,947,980
7948,950,982
7949,952,983
7950,953,992
7951,958,998
7952,967,1003
7953,970,1008
7954,974,1009
7955,979,1012
7956,981,1011
7957,981,1011
7958,980,1012
7959,981,1012
7960,980,1016
7961,984,1016
7962,985,1018
7963,991,1022
7964,989,1023
7965,991,1023
7966,990,1024
7967,991,1020
7968,990,1019
7969,983,1016
7970,981,1010
7971,977,1005
7972,973,1005
7973,970,1002
7974,966,1001
7975,965,998
7976,961,994
7977,960,991
7978,955,983
7979,949,977
7980,944,968
7981,937,960
7982,928,954
7983,920,941
7984,914,937
7985,907,934
7986,906,931
7987,902,929
7988,900,924
7989,895,924
7990,894,917
7991,890,911
7992,887,908
7993,881,901
7994,879,899
7995,874,895
7996,871,892
7997,870,893
7998,870,890
7999,873,891
8000,874,894
8001,876,893
8002,875,890
8003,873,891
8004,873,885
8005,865,883
8006,867,883
8007,864,880
8008,865,882
8009,864,883
8010,867,885
8011,866,885
8012,868,887
8013,869,888
8014,869,887
8015,869,883
8016,870,884
8017,867,884
8018,867,881
8019,860,879
8020,863,881
8021,862,883
8022,862,885
8023,865,886
8024,866,887
8025,869,889
8026,869,888
8027,871,887
8028,870,884
8029,869,883
8030,869,883
8031,865,886
8032,864,883
8033,865,885
8034,870,888
8035,867,890
8036,873,892
8037,875,891
8038,873,891
8039,871,889
8040,873,888
8041,867,886
8042,866,882
8043,865,883
8044,863,885
8045,866,884
8046,867,886
8047,869,887
8048,869,891
8049,874,891
8050,874,889
8051,874,889
8052,868,889
8053,868,885
8054,866,883
8055,865,885
8056,859,884
8057,862,884
8058,862,889
8059,864,889
8060,865,893
8061,865,893
8062,868,893
8063,866,887
8064,863,886
8065,862,884
8066,863,883
8067,862,885
8068,855,881
8069,854,885
8070,856,888
8071,860,887
8072,860,889
8073,863,890
8074,862,886
8075,863,884
8076,861,881
8077,858,882
8078,858,880
8079,857,878
8080,854,880
8081,856,880
8082,858,881
8083,858,884
8084,860,886
8085,861,883
8086,860,884
8087,861,886
8088,859,881
8089,856,883
8090,855,877
8091,853,878
8092,854,879
8093,853,879
8094,854,884
8095,856,884
8096,858,885
8097,856,886
8098,858,886
8099,859,884
8100,858,885
8101,857,879
8102,858,880
8103,854,878
8104,853,877
8105,857,880
8106,857,885
8107,859,884
8108,864,885
8109,863,890
8110,863,887
8111,861,884
8112,860,885
8113,859,882
8114,855,882
8115,855,880
8116,855,880
8117,856,883
8118,856,883
8119,859,889
8120,860,889
8121,861,887
8122,862,886
8123,864,883
8124,861,887
8125,858,887
8126,858,884
8127,855,882
8128,855,885
8129,852,886
8130,854,887
8131,860,889
8132,860,891
8133,863,895
8134,860,891
8135,860,892
8136,861,890
8137,861,887
8138,861,886
8139,859,887
8140,859,887
8141,858,886
8142,855,889
8143,856,892
8144,856,893
8145,859,894
8146,859,892
8147,859,896
8148,859,890
8149,859,891
8150,858,891
8151,858,889
8152,856,890
8153,856,892
8154,858,892
8155,862,893
8156,863,898
8157,862,896
8158,864,897
8159,863,895
8160,862,893
8161,860,893
8162,857,891
8163,855,889
8164,854,892
8165,855,892
8166,857,895
8167,859,896
8168,860,899
8169,863,901
8170,865,899
8171,863,897
8172,864,896
8173,862,894
8174,857,892
8175,856,891
8176,857,893
8177,861,894
8178,859,895
8179,858,896
8180,859,898
8181,864,897
8182,865,898
8183,860,897
8184,860,895
8185,859,894
8186,861,892
8187,860,890
8188,859,892
8189,858,893
8190,861,894
8191,860,897
8192,863,900
8193,862,900
8194,864,901
8195,865,897
8196,862,897
8197,862,895
8198,860,890
8199,856,894
8200,854,894
8201,857,894
8202,859,895
8203,860,902
8204,862,900
8205,864,901
8206,866,901
8207,868,902
8208,867,899
8209,863,899
8210,864,897
8211,862,893
8212,859,895
8213,860,894
8214,862,899
8215,861,900
8216,865,902
8217,867,906
8218,867,901
8219,867,901
8220,864,897
8221,866,897
8222,863,898
8223,863,898
8224,863,897
8225,863,900
8226,859,902
8227,864,903
8228,864,904
8229,866,905
8230,867,906
8231,869,904
8232,866,901
8233,861,900
8234,862,897
8235,861,899
8236,863,900
8237,861,903
8238,861,901
8239,866,904
8240,870,905
8241,874,912
8242,875,910
8243,880,907
8244,881,907
8245,880,905
8246,883,900
8247,881,903
8248,876,905
8249,878,903
8250,877,910
8251,883,912
8252,887,918
8253,891,919
8254,894,920
8255,897,920
8256,900,922
8257,898,925
8258,899,924
8259,895,925
8260,893,928
8261,894,931
8262,890,932
8263,887,934
8264,884,938
8265,890,940
8266,889,935
8267,887,936
8268,886,932
8269,879,927
8270,876,926
8271,869,924
8272,866,924
8273,865,920
8274,862,917
8275,866,917
8276,868,916
8277,868,916
8278,869,914
8279,866,913
8280,866,910
8281,862,907
8282,854,904
8283,856,906
8284,856,902
8285,851,903
8286,851,903
8287,852,908
8288,853,908
8289,859,910
8290,861,908
8291,859,906
8292,861,908
8293,860,904
8294,857,903
8295,857,899
8296,854,901
8297,856,903
8298,856,904
8299,858,907
8300,861,910
8301,863,912
8302,866,909
8303,869,906
8304,875,903
8305,889,910
8306,903,926
8307,923,953
8308,947,986
8309,974,1026
8310,997,1076
8311,1020,1127
8312,1020,1173
8313,1011,1210
8314,985,1223
8315,944,1213
8316,891,1184
8317,840,1130
8318,793,1060
8319,748,990
8320,720,917
8321,712,867
8322,722,846
8323,747,850
8324,770,867
8325,792,885
8326,810,898
8327,825,907
8328,835,907
8329,844,907
8330,855,905
8331,864,908
8332,867,909
8333,870,910
8334,869,913
8335,871,917
8336,870,918
8337,873,919
8338,871,915
8339,871,914
8340,870,912
8341,871,911
8342,873,911
8343,874,913
8344,874,911
8345,871,914
8346,874,915
8347,878,918
8348,878,922
8349,882,922
8350,881,923
8351,882,919
8352,881,918
8353,880,916
8354,879,916
8355,878,917
8356,877,917
8357,878,919
8358,881,922
8359,882,925
8360,885,929
8361,890,930
8362,889,928
8363,890,931
8364,888,930
8365,885,928
8366,883,927
8367,885,928
8368,884,930
8369,885,929
8370,881,932
8371,886,933
8372,889,935
8373,894,938
8374,895,940
8375,896,939
8376,899,939
8377,898,936
8378,896,939
8379,896,943
8380,894,939
8381,897,942
8382,898,946
8383,899,951
8384,904,955
8385,909,958
8386,912,957
8387,912,956
8388,914,963
8389,913,962
8390,917,961
8391,917,963
8392,920,964
8393,923,969
8394,927,974
8395,933,978
8396,935,982
8397,938,991
8398,943,992
8399,950,991
8400,949,995
8401,948,993
8402,951,1000
8403,953,999
8404,956,1004
8405,959,1006
8406,963,1012
8407,971,1018
8408,974,1022
8409,979,1024
8410,984,1031
8411,982,1029
8412,985,1033
8413,985,1032
8414,988,1034
8415,983,1035
8416,985,1036
8417,987,1039
8418,990,1041
8419,991,1045
8420,993,1045
8421,994,1048
8422,995,1044
8423,994,1039
8424,988,1040
8425,987,1033
8426,979,1027
8427,971,1021
8428,964,1017
8429,957,1014
8430,952,1009
8431,948,1005
8432,939,995
8433,937,993
8434,931,986
8435,927,978
8436,918,971
8437,910,963
8438,902,953
8439,894,952
8440,887,944
8441,884,939
8442,884,937
8443,881,936
8444,882,934
8445,883,932
8446,879,934
8447,877,929
8448,872,924
8449,870,922
8450,866,918
8451,861,915
8452,860,911
8453,856,911
8454,860,914
8455,861,915
8456,863,915
8457,863,914
8458,865,913
8459,865,914
8460,865,912
8461,863,911
8462,861,908
8463,859,908
8464,857,907
8465,854,908
8466,855,907
8467,859,910
8468,859,911
8469,861,914
8470,860,912
8471,861,910
8472,859,909
8473,860,912
8474,857,907
8475,853,907
8476,854,904
8477,855,906
8478,858,911
8479,857,911
8480,859,914
8481,861,913
8482,862,912
8483,859,911
8484,860,911
8485,863,913
8486,858,908
8487,854,911
8488,855,911
8489,857,911
8490,855,915
8491,857,917
8492,859,917
8493,861,919
8494,860,919
8495,859,918
8496,864,917
8497,863,914
8498,861,913
8499,857,912
8500,855,910
8501,855,914
8502,855,914
8503,855,915
8504,855,920
8505,859,919
8506,857,920
8507,852,917
8508,853,916
8509,851,912
8510,850,912
8511,850,912
8512,847,910
8513,846,910
8514,847,913
8515,846,914
8516,852,914
8517,854,914
8518,854,916
8519,853,910
8520,852,911
8521,850,907
8522,843,906
8523,842,902
8524,841,900
8525,840,905
8526,839,902
8527,842,905
8528,844,906
8529,844,908
8530,850,907
8531,849,906
8532,847,908
8533,848,904
8534,846,902
8535,843,902
8536,840,899
8537,837,898
8538,840,903
8539,844,904
8540,844,906
8541,845,907
8542,847,906
8543,846,905
8544,845,903
8545,843,900
8546,843,899
8547,842,899
8548,840,898
8549,840,903
8550,841,903
8551,842,904
8552,843,905
8553,845,909
8554,848,906
8555,846,907
8556,845,904
8557,842,903
8558,843,896
8559,841,901
8560,840,901
8561,838,901
8562,839,904
8563,840,905
8564,843,907
8565,843,909
8566,846,907
8567,846,904
8568,842,904
8569,842,901
8570,839,899
8571,837,899
8572,835,899
8573,832,903
8574,835,910
8575,838,906
8576,839,910
8577,842,912
8578,844,912
8579,844,908
8580,843,908
8581,844,907
8582,839,904
8583,837,904
8584,839,906
8585,837,907
8586,837,906
8587,839,911
8588,839,912
8589,842,917
8590,845,912
8591,845,913
8592,842,910
8593,843,906
8594,842,905
8595,835,903
8596,836,902
8597,841,903
8598,841,907
8599,846,909
8600,842,912
8601,844,916
8602,845,912
8603,845,912
8604,842,910
8605,841,910
8606,842,903
8607,841,905
8608,839,904
8609,840,904
8610,842,911
8611,841,911
8612,842,909
8613,843,913
8614,846,911
8615,848,911
8616,846,912
8617,843,909
8618,838,907
8619,840,907
8620,839,906
8621,838,905
8622,839,906
8623,842,910
8624,844,913
8625,846,916
8626,844,913
8627,846,911
8628,846,911
8629,843,909
8630,844,906
8631,842,910
8632,842,908
8633,840,914
8634,842,913
8635,842,916
8636,846,915
8637,844,918
8638,846,916
8639,845,914
8640,848,915
8641,846,912
8642,843,912
8643,840,907
8644,839,911
8645,840,909
8646,843,914
8647,843,915
8648,848,919
8649,847,916
8650,847,919
8651,848,917
8652,849,915
8653,847,914
8654,844,913
8655,846,914
8656,843,911
8657,842,913
8658,843,911
8659,844,913
8660,845,913
8661,846,917
8662,845,913
8663,845,913
8664,845,913
8665,849,911
8666,843,913
8667,846,913
8668,843,913
8669,845,913
8670,842,918
8671,845,918
8672,844,919
8673,845,921
8674,851,917
8675,849,918
8676,847,918
8677,846,914
8678,847,913
8679,845,914
8680,848,912
8681,849,915
8682,852,916
8683,854,920
8684,863,918
8685,866,921
8686,867,921
8687,866,917
8688,868,918
8689,865,916
8690,864,916
8691,865,915
8692,868,914
8693,869,918
8694,873,924
8695,876,932
8696,878,935
8697,880,939
8698,883,945
8699,883,948
8700,878,949
8701,875,948
8702,873,946
8703,873,947
8704,871,944
8705,865,947
8706,869,947
8707,868,949
8708,867,948
8709,863,947
8710,859,941
8711,856,939
8712,854,935
8713,850,930
8714,846,924
8715,846,921
8716,845,920
8717,847,918
8718,847,917
8719,847,919
8720,850,919
8721,850,923
8722,846,919
8723,848,916
8724,846,914
8725,841,912
8726,839,908
8727,838,906
8728,840,908
8729,842,907
8730,842,907
8731,845,909
8732,847,911
8733,845,914
8734,849,911
8735,850,911
8736,851,909
8737,851,909
8738,846,908
8739,845,912
8740,845,910
8741,845,909
8742,849,914
8743,853,913
8744,858,912
8745,870,918
8746,881,926
8747,899,939
8748,923,970
8749,946,1007
8750,974,1052
8751,997,1103
8752,1016,1153
8753,1013,1199
8754,992,1232
8755,953,1238
8756,905,1219
8757,851,1174
8758,798,1106
8759,752,1025
8760,714,941
8761,690,871
8762,689,830
8763,709,819
8764,731,835
8765,756,857
8766,777,882
8767,792,895
8768,808,903
8769,820,909
8770,836,914
8771,847,915
8772,856,916
8773,855,918
8774,859,915
8775,858,912
8776,855,914
8777,858,912
8778,856,915
8779,860,918
8780,864,917
8781,870,920
8782,871,922
8783,874,922
8784,875,920
8785,875,920
8786,875,919
8787,876,916
8788,871,919
8789,870,921
8790,871,920
8791,875,925
8792,875,927
8793,879,930
8794,881,925
8795,877,932
8796,880,925
8797,878,925
8798,877,926
8799,878,926
8800,877,922
8801,877,930
8802,884,928
8803,882,935
8804,886,935
8805,888,937
8806,886,936
8807,888,936
8808,893,935
8809,892,935
8810,892,934
8811,890,936
8812,890,934
8813,890,937
8814,891,939
8815,897,944
8816,898,943
8817,901,946
8818,904,950
8819,906,948
8820,903,949
8821,905,949
8822,904,950
8823,903,950
8824,902,953
8825,904,956
8826,911,959
8827,914,966
8828,916,965
8829,919,967
8830,924,972
8831,925,973
8832,931,974
8833,930,974
8834,929,974
8835,931,975
8836,933,976
8837,932,983
8838,941,987
8839,946,993
8840,950,998
8841,955,1005
8842,960,1007
8843,964,1012
8844,965,1013
8845,965,1014
8846,968,1015
8847,970,1017
8848,973,1020
8849,974,1022
8850,978,1026
8851,982,1029
8852,986,1037
8853,990,1039
8854,993,1040
8855,995,1039
8856,996,1043
8857,995,1038
8858,991,1040
8859,990,1036
8860,987,1038
8861,988,1040
8862,987,1037
8863,987,1043
8864,987,1039
8865,986,1038
8866,983,1031
8867,979,1028
8868,974,1023
8869,970,1015
8870,963,1005
8871,957,999
8872,948,992
8873,943,984
8874,938,980
8875,934,977
8876,929,970
8877,927,969
8878,921,962
8879,917,954
8880,909,947
8881,907,941
8882,900,935
8883,894,930
8884,893,927
8885,887,921
8886,886,921
8887,887,920
8888,884,918
8889,883,920
8890,882,918
8891,881,917
8892,879,911
8893,879,908
8894,877,905
8895,874,904
8896,870,903
8897,872,903
8898,874,904
8899,875,905
8900,877,908
8901,875,908
8902,879,908
8903,882,904
8904,879,904
8905,875,901
8906,873,900
8907,873,899
8908,869,900
8909,870,898
8910,869,902
8911,871,902
8912,872,906
8913,875,911
8914,875,910
8915,873,907
8916,872,906
8917,873,907
8918,871,906
8919,870,902
8920,871,902
8921,872,901
8922,873,905
8923,872,908
8924,875,909
8925,877,911
8926,878,909
8927,875,911
8928,876,910
8929,875,907
8930,874,906
8931,874,903
8932,871,905
8933,870,904
8934,870,909
8935,874,909
8936,875,911
8937,878,912
8938,878,915
8939,876,913
8940,877,910
8941,874,909
8942,871,908
8943,871,905
8944,872,903
8945,869,905
8946,868,906
8947,871,910
8948,870,911
8949,872,912
8950,873,911
8951,873,908
8952,871,907
8953,871,906
8954,870,903
8955,866,902
8956,863,902
8957,866,901
8958,867,903
8959,866,904
8960,864,905
8961,868,906
8962,865,905
8963,867,903
8964,866,901
8965,865,903
8966,862,895
8967,861,895
8968,860,897
8969,860,898
8970,859,900
8971,862,899
8972,862,904
8973,865,904
8974,866,901
8975,868,898
8976,866,899
8977,866,895
8978,862,897
8979,860,893
8980,858,890
8981,858,894
8982,858,898
8983,859,898
8984,860,899
8985,861,901
8986,867,898
8987,868,898
8988,865,899
8989,862,899
8990,861,896
8991,860,897
8992,859,894
8993,857,897
8994,856,899
8995,858,900
8996,860,898
8997,860,904
8998,861,899
8999,861,899
9000,861,901
9001,859,899
9002,858,897
9003,857,895
9004,856,895
9005,857,896
9006,856,897
9007,859,897
9008,860,899
9009,863,901
9010,865,900
9011,862,897
9012,861,899
9013,860,895
9014,857,892
9015,857,892
9016,856,893
9017,855,894
9018,854,896
9019,857,899
9020,860,902
9021,860,900
9022,860,897
9023,860,899
9024,864,899
9025,861,895
9026,857,893
9027,862,894
9028,861,895
9029,863,894
9030,858,897
9031,860,899
9032,861,898
9033,860,899
9034,862,901
9035,864,897
9036,862,892
9037,862,895
9038,856,894
9039,859,892
9040,859,891
9041,857,893
9042,855,894
9043,857,897
9044,857,898
9045,861,901
9046,865,899
9047,863,897
9048,862,897
9049,863,890
9050,861,894
9051,859,891
9052,858,888
9053,857,892
9054,860,890
9055,859,892
9056,861,894
9057,862,895
9058,864,893
9059,862,895
9060,861,898
9061,862,899
9062,861,896
9063,860,895
9064,858,893
9065,854,896
9066,856,896
9067,860,898
9068,860,897
9069,861,902
9070,863,899
9071,865,900
9072,863,899
9073,863,899
9074,861,895
9075,856,892
9076,855,894
9077,857,895
9078,856,894
9079,859,897
9080,863,900
9081,861,900
9082,866,902
9083,863,899
9084,865,898
9085,863,895
9086,863,897
9087,858,894
9088,853,893
9089,853,895
9090,857,899
9091,861,900
9092,860,902
9093,862,902
9094,864,900
9095,863,900
9096,863,901
9097,864,897
9098,863,896
9099,862,893
9100,859,894
9101,860,894
9102,858,897
9103,861,900
9104,862,899
9105,863,902
9106,865,901
9107,867,900
9108,864,898
9109,863,897
9110,861,894
9111,862,894
9112,862,892
9113,859,895
9114,863,894
9115,864,895
9116,864,898
9117,866,895
9118,866,896
9119,869,893
9120,869,892
9121,865,893
9122,867,894
9123,864,891
9124,864,889
9125,863,891
9126,865,892
9127,867,895
9128,870,900
9129,876,899
9130,876,900
9131,880,898
9132,882,897
9133,884,897
9134,885,897
9135,883,898
9136,885,900
9137,883,905
9138,885,906
9139,889,911
9140,895,915
9141,899,920
9142,904,921
9143,904,924
9144,902,923
9145,901,927
9146,896,929
9147,895,927
9148,892,928
9149,890,932
9150,887,933
9151,888,934
9152,888,934
9153,891,936
9154,888,934
9155,885,934
9156,881,929
9157,878,926
9158,869,921
9159,865,915
9160,864,910
9161,861,911
9162,860,906
9163,861,906
9164,862,904
9165,866,906
9166,868,905
9167,869,905
9168,865,903
9169,861,898
9170,859,897
9171,857,892
9172,857,891
9173,855,891
9174,856,898
9175,857,899
9176,859,901
9177,863,903
9178,864,900
9179,863,901
9180,867,898
9181,860,894
9182,860,892
9183,858,892
9184,858,893
9185,858,893
9186,860,897
9187,862,897
9188,864,898
9189,868,901
9190,870,901
9191,875,901
9192,879,902
9193,893,907
9194,908,924
9195,928,948
9196,953,984
9197,973,1025
9198,1000,1076
9199,1020,1124
9200,1031,1169
9201,1027,1210
9202,1007,1232
9203,972,1233
9204,926,1211
9205,879,1172
9206,833,1116
9207,789,1050
9208,750,988
9209,725,921
9210,716,875
9211,724,849
9212,738,851
9213,762,865
9214,782,882
9215,799,892
9216,814,902
9217,825,901
9218,836,905
9219,848,904
9220,856,902
9221,867,909
9222,872,910
9223,874,911
9224,877,914
9225,878,914
9226,873,911
9227,872,912
9228,874,910
9229,875,906
9230,873,906
9231,874,904
9232,876,906
9233,876,907
