'sample #','MLII','V1'
0,825,930
1,825,930
2,825,930
3,825,930
4,825,930
5,825,930
6,825,930
7,821,930
8,827,933
9,827,934
10,830,935
11,829,942
12,830,939
13,826,941
14,824,940
15,820,939
16,819,935
17,818,934
18,815,933
19,819,935
20,817,939
21,821,943
22,821,944
23,825,947
24,826,948
25,826,947
26,825,947
27,823,943
28,823,944
29,821,941
30,822,942
31,826,943
32,820,944
33,822,948
34,821,946
35,824,950
36,826,949
37,825,947
38,822,945
39,823,941
40,821,940
41,825,942
42,823,941
43,823,940
44,827,942
45,827,950
46,828,951
47,832,954
48,836,950
49,832,950
50,836,947
51,835,948
52,835,946
53,836,947
54,834,943
55,837,948
56,841,947
57,843,950
58,846,950
59,849,952
60,852,948
61,851,947
62,852,947
63,855,948
64,854,942
65,854,947
66,856,949
67,860,946
68,863,951
69,869,954
70,873,954
71,879,959
72,883,957
73,887,958
74,890,953
75,890,951
76,892,951
77,894,951
78,898,949
79,903,947
80,904,948
81,912,951
82,918,954
83,920,953
84,925,952
85,929,952
86,930,950
87,934,944
88,934,943
89,935,944
90,937,942
91,939,944
92,941,944
93,947,948
94,950,948
95,951,951
96,951,952
97,954,947
98,950,945
99,945,943
100,940,941
101,935,942
102,930,942
103,926,943
104,919,948
105,914,948
106,913,949
107,906,947
108,901,950
109,894,952
110,887,950
111,876,951
112,871,944
113,864,944
114,858,944
115,855,946
116,854,950
117,851,949
118,849,951
119,850,950
120,851,947
121,850,947
122,846,947
123,843,945
124,839,943
125,838,938
126,835,939
127,834,938
128,837,941
129,838,943
130,838,943
131,839,945
132,838,945
133,837,945
134,836,943
135,838,941
136,834,940
137,837,937
138,834,939
139,833,942
140,832,941
141,835,942
142,840,948
143,841,949
144,843,945
145,840,946
146,841,944
147,838,943
148,837,941
149,835,941
150,840,938
151,841,938
152,843,941
153,844,940
154,843,943
155,848,946
156,849,943
157,850,946
158,850,945
159,848,943
160,848,940
161,843,940
162,844,938
163,842,937
164,844,939
165,847,942
166,851,941
167,854,944
168,854,941
169,855,940
170,853,939
171,851,939
172,849,939
173,846,936
174,845,935
175,845,934
176,846,938
177,847,937
178,849,942
179,849,943
180,852,944
181,850,943
182,848,942
183,846,940
184,844,937
185,841,939
186,838,938
187,838,938
188,843,939
189,840,938
190,848,941
191,846,942
192,847,943
193,843,940
194,847,939
195,842,935
196,844,934
197,840,933
198,839,934
199,840,938
200,839,939
201,840,939
202,840,946
203,843,946
204,844,944
205,841,942
206,840,942
207,837,938
208,835,935
209,836,936
210,831,934
211,834,935
212,832,935
213,836,939
214,836,939
215,839,940
216,842,939
217,841,942
218,840,939
219,841,936
220,840,935
221,838,934
222,836,932
223,836,934
224,837,938
225,841,941
226,841,940
227,843,945
228,845,941
229,843,942
230,844,939
231,842,937
232,842,939
233,842,935
234,839,935
235,842,939
236,846,941
237,851,944
238,855,945
239,860,951
240,864,950
241,866,951
242,870,950
243,870,950
244,873,950
245,875,956
246,880,953
247,889,956
248,896,955
249,903,959
250,908,954
251,914,955
252,912,946
253,909,942
254,902,934
255,903,931
256,899,930
257,893,931
258,891,928
259,883,928
260,875,928
261,868,928
262,854,933
263,849,933
264,842,933
265,842,936
266,839,933
267,837,930
268,834,931
269,835,929
270,834,926
271,833,928
272,832,928
273,832,929
274,835,931
275,837,934
276,836,929
277,835,932
278,834,930
279,833,925
280,831,928
281,828,926
282,830,923
283,829,924
284,829,923
285,834,926
286,833,927
287,835,931
288,838,934
289,835,932
290,830,930
291,833,932
292,834,929
293,833,927
294,831,929
295,829,930
296,826,933
297,823,939
298,824,944
299,830,957
300,846,969
301,873,975
302,910,979
303,957,972
304,1016,953
305,1088,924
306,1157,889
307,1213,843
308,1247,799
309,1265,757
310,1259,729
311,1232,718
312,1188,715
313,1114,723
314,1018,735
315,917,747
316,843,766
317,807,785
318,810,806
319,831,826
320,858,846
321,877,866
322,886,880
323,882,894
324,873,905
325,859,912
326,848,922
327,840,925
328,833,925
329,833,926
330,831,927
331,833,930
332,836,933
333,837,935
334,835,940
335,838,943
336,832,944
337,835,945
338,831,944
339,830,944
340,830,942
341,828,942
342,828,939
343,827,943
344,828,943
345,828,943
346,830,947
347,831,947
348,829,946
349,830,947
350,828,946
351,829,945
352,827,943
353,824,944
354,821,942
355,826,942
356,830,946
357,830,948
358,832,950
359,832,954
360,836,953
361,834,954
362,834,953
363,829,951
364,830,948
365,831,948
366,834,944
367,832,946
368,833,946
369,838,947
370,837,952
371,841,953
372,843,951
373,843,949
374,844,947
375,842,945
376,842,945
377,840,942
378,844,945
379,845,943
380,847,949
381,847,952
382,851,952
383,857,957
384,859,957
385,860,955
386,862,952
387,861,953
388,863,953
389,862,952
390,864,954
391,868,955
392,869,960
393,875,955
394,879,959
395,887,960
396,891,961
397,894,959
398,894,958
399,894,957
400,894,959
401,902,957
402,906,953
403,913,956
404,917,960
405,924,959
406,927,961
407,933,962
408,938,960
409,943,963
410,943,956
411,945,955
412,945,953
413,947,951
414,949,951
415,950,948
416,952,950
417,956,952
418,957,952
419,963,955
420,962,951
421,955,950
422,951,951
423,948,950
424,943,949
425,939,948
426,933,949
427,927,952
428,921,951
429,917,954
430,915,958
431,908,956
432,907,959
433,899,959
434,895,954
435,887,953
436,880,949
437,877,948
438,871,947
439,867,949
440,864,948
441,863,950
442,863,950
443,863,949
444,858,948
445,859,949
446,856,947
447,850,944
448,849,945
449,846,946
450,845,941
451,846,945
452,842,945
453,844,946
454,844,945
455,843,947
456,846,949
457,842,947
458,844,947
459,842,943
460,841,941
461,841,943
462,838,941
463,839,938
464,842,943
465,845,944
466,846,945
467,850,949
468,851,948
469,850,946
470,849,944
471,847,945
472,846,942
473,846,943
474,850,941
475,853,945
476,851,948
477,854,950
478,853,954
479,853,954
480,854,955
481,853,957
482,854,959
483,852,961
484,854,965
485,858,968
486,870,978
487,887,985
488,914,989
489,942,984
490,975,969
491,1004,942
492,1039,912
493,1071,882
494,1113,848
495,1150,815
496,1191,780
497,1236,735
498,1276,690
499,1312,650
500,1346,611
501,1371,586
502,1389,575
503,1401,567
504,1406,565
505,1405,562
506,1399,563
507,1389,563
508,1376,563
509,1359,567
510,1339,579
511,1330,594
512,1326,617
513,1334,636
514,1336,655
515,1332,675
516,1331,691
517,1313,709
518,1291,729
519,1264,742
520,1237,755
521,1202,767
522,1166,784
523,1120,799
524,1060,818
525,989,837
526,920,852
527,862,873
528,829,898
529,815,918
530,811,936
531,814,949
532,814,954
533,811,952
534,802,954
535,793,955
536,780,962
537,775,966
538,770,975
539,770,979
540,768,987
541,764,989
542,760,986
543,758,990
544,751,986
545,750,987
546,746,989
547,741,989
548,743,993
549,739,995
550,739,1002
551,735,1005
552,737,1004
553,735,1004
554,728,1007
555,726,1004
556,723,1005
557,716,1007
558,717,1008
559,713,1011
560,715,1013
561,711,1020
562,711,1022
563,710,1030
564,710,1032
565,709,1037
566,707,1038
567,707,1041
568,706,1043
569,704,1043
570,701,1045
571,700,1054
572,698,1059
573,698,1065
574,695,1068
575,701,1075
576,702,1082
577,700,1083
578,701,1086
579,702,1083
580,703,1084
581,698,1083
582,696,1081
583,689,1084
584,684,1085
585,679,1086
586,675,1090
587,673,1095
588,668,1102
589,661,1109
590,647,1113
591,640,1109
592,627,1114
593,613,1113
594,600,1117
595,588,1124
596,579,1127
597,574,1130
598,570,1139
599,565,1137
600,564,1140
601,563,1135
602,562,1130
603,561,1127
604,563,1124
605,565,1121
606,567,1119
607,567,1115
608,574,1113
609,580,1111
610,588,1105
611,595,1104
612,599,1094
613,605,1089
614,614,1081
615,621,1072
616,625,1065
617,636,1055
618,648,1047
619,659,1038
620,670,1034
621,684,1030
622,698,1022
623,709,1018
624,721,1009
625,727,1003
626,734,996
627,740,990
628,744,980
629,750,978
630,758,972
631,762,969
632,767,965
633,773,968
634,778,965
635,778,966
636,785,964
637,785,963
638,785,961
639,782,960
640,780,954
641,777,953
642,778,950
643,780,952
644,779,953
645,781,955
646,782,955
647,789,960
648,788,960
649,787,958
650,782,961
651,786,957
652,784,956
653,783,955
654,782,955
655,782,953
656,782,956
657,783,956
658,787,959
659,785,961
660,792,962
661,789,961
662,791,960
663,790,959
664,790,958
665,789,953
666,789,952
667,791,953
668,789,955
669,793,957
670,795,957
671,792,960
672,794,963
673,796,961
674,793,958
675,793,957
676,794,959
677,796,953
678,795,957
679,793,953
680,792,956
681,797,959
682,797,959
683,800,961
684,799,960
685,798,958
686,799,959
687,798,952
688,797,951
689,795,951
690,794,952
691,795,949
692,797,950
693,799,954
694,800,955
695,804,958
696,805,957
697,804,956
698,804,954
699,802,952
700,800,953
701,797,947
702,797,947
703,797,945
704,799,947
705,799,949
706,805,949
707,802,953
708,805,951
709,800,948
710,796,947
711,801,946
712,798,946
713,804,944
714,800,943
715,798,943
716,798,946
717,800,947
718,802,948
719,804,949
720,806,948
721,804,950
722,805,948
723,805,945
724,804,945
725,799,940
726,800,943
727,798,941
728,801,942
729,803,944
730,804,944
731,807,946
732,809,946
733,807,940
734,806,944
735,807,941
736,806,937
737,804,939
738,806,939
739,805,939
740,804,944
741,808,943
742,808,944
743,807,944
744,810,946
745,808,946
746,807,941
747,809,940
748,810,943
749,808,939
750,806,938
751,807,937
752,808,939
753,809,939
754,810,942
755,811,943
756,813,941
757,814,943
758,814,941
759,812,940
760,811,940
761,809,938
762,807,938
763,807,938
764,809,938
765,808,942
766,809,944
767,809,946
768,812,946
769,812,944
770,814,944
771,813,941
772,812,940
773,810,937
774,809,936
775,811,934
776,810,937
777,810,936
778,813,940
779,814,942
780,814,938
781,815,942
782,813,942
783,813,939
784,812,938
785,812,939
786,811,934
787,810,938
788,810,935
789,809,940
790,811,940
791,814,942
792,816,940
793,816,940
794,815,938
795,814,935
796,813,934
797,810,929
798,812,932
799,808,931
800,808,930
801,810,931
802,811,938
803,813,939
804,817,939
805,816,940
806,815,938
807,817,939
808,814,933
809,813,930
810,812,929
811,813,930
812,811,931
813,814,933
814,811,934
815,813,932
816,817,937
817,815,936
818,815,936
819,817,932
820,816,932
821,816,927
822,815,925
823,815,926
824,816,931
825,815,934
826,819,938
827,822,939
828,823,941
829,820,938
830,821,942
831,819,936
832,818,933
833,814,930
834,813,931
835,811,933
836,815,935
837,820,934
838,817,937
839,819,940
840,821,938
841,818,934
842,823,938
843,820,934
844,819,934
845,818,929
846,818,930
847,816,931
848,817,937
849,817,935
850,821,937
851,818,943
852,824,941
853,825,940
854,825,940
855,823,935
856,822,935
857,817,933
858,816,934
859,815,930
860,817,934
861,818,933
862,822,935
863,821,939
864,824,939
865,824,936
866,823,937
867,822,935
868,820,934
869,820,933
870,817,930
871,814,931
872,815,934
873,814,936
874,815,938
875,818,938
876,822,942
877,824,941
878,822,939
879,822,936
880,821,933
881,819,932
882,815,930
883,815,932
884,816,932
885,820,934
886,821,936
887,821,936
888,822,934
889,822,938
890,824,935
891,825,934
892,822,934
893,821,934
894,820,932
895,819,935
896,820,933
897,821,938
898,822,936
899,827,940
900,828,939
901,827,941
902,826,939
903,825,934
904,821,936
905,821,934
906,820,930
907,822,931
908,821,935
909,826,932
910,827,936
911,830,936
912,834,937
913,838,939
914,838,941
915,841,940
916,843,940
917,845,944
918,849,945
919,852,946
920,851,951
921,858,954
922,863,953
923,868,958
924,876,958
925,884,956
926,891,955
927,898,949
928,899,942
929,893,938
930,889,931
931,883,926
932,884,931
933,887,927
934,886,927
935,883,932
936,880,932
937,870,930
938,860,932
939,847,932
940,833,928
941,825,928
942,820,927
943,821,925
944,820,926
945,820,927
946,821,927
947,827,927
948,828,926
949,824,929
950,825,928
951,820,925
952,817,925
953,818,919
954,817,918
955,818,919
956,818,920
957,817,923
958,822,924
959,824,928
960,826,931
961,825,931
962,825,928
963,821,925
964,819,924
965,812,923
966,806,927
967,808,932
968,815,940
969,831,954
970,864,966
971,909,970
972,970,964
973,1041,949
974,1115,919
975,1180,879
976,1230,830
977,1253,784
978,1252,748
979,1222,732
980,1161,727
981,1072,738
982,964,749
983,873,771
984,816,790
985,801,810
986,817,829
987,840,844
988,861,862
989,870,871
990,866,882
991,850,897
992,841,906
993,828,917
994,824,921
995,823,926
996,823,927
997,823,928
998,821,931
999,820,927
1000,816,926
1001,818,929
1002,816,933
1003,812,935
1004,815,939
1005,813,942
1006,815,941
1007,814,944
1008,815,942
1009,818,941
1010,819,939
1011,815,938
1012,813,935
1013,811,937
1014,810,935
1015,812,936
1016,813,940
1017,813,940
1018,814,941
1019,815,942
1020,819,940
1021,815,942
1022,811,938
1023,811,939
1024,812,937
1025,810,937
1026,808,942
1027,810,939
1028,812,942
1029,812,943
1030,813,944
1031,817,945
1032,819,945
1033,818,947
1034,819,941
1035,816,939
1036,817,939
1037,815,939
1038,816,940
1039,819,938
1040,819,940
1041,823,942
1042,822,942
1043,825,946
1044,826,945
1045,827,947
1046,829,943
1047,827,943
1048,827,944
1049,827,944
1050,826,944
1051,830,944
1052,832,948
1053,834,949
1054,841,951
1055,842,954
1056,842,954
1057,847,954
1058,847,952
1059,847,954
1060,849,953
1061,851,952
1062,852,951
1063,854,950
1064,857,953
1065,865,957
1066,867,961
1067,871,960
1068,875,962
1069,880,963
1070,882,961
1071,885,957
1072,886,960
1073,889,953
1074,892,959
1075,894,957
1076,900,955
1077,900,961
1078,909,959
1079,915,961
1080,915,958
1081,917,958
1082,920,955
1083,921,948
1084,922,948
1085,923,946
1086,925,946
1087,927,946
1088,930,945
1089,932,946
1090,933,947
1091,934,950
1092,932,949
1093,928,944
1094,924,942
1095,919,943
1096,914,936
1097,910,936
1098,905,937
1099,901,940
1100,898,941
1101,894,943
1102,889,942
1103,885,944
1104,884,943
1105,876,939
1106,871,939
1107,868,938
1108,862,935
1109,862,935
1110,857,938
1111,856,939
1112,854,940
1113,854,940
1114,856,942
1115,857,942
1116,856,940
1117,854,941
1118,853,939
1119,849,938
1120,845,932
1121,842,934
1122,841,931
1123,841,931
1124,843,935
1125,846,937
1126,850,937
1127,848,938
1128,848,937
1129,849,937
1130,847,937
1131,846,935
1132,848,935
1133,845,933
1134,844,934
1135,845,935
1136,847,936
1137,850,936
1138,852,934
1139,854,939
1140,856,936
1141,854,935
1142,851,931
1143,854,932
1144,852,926
1145,853,927
1146,852,927
1147,852,928
1148,850,930
1149,854,932
1150,853,932
1151,855,935
1152,856,934
1153,851,936
1154,852,933
1155,853,932
1156,854,929
1157,853,930
1158,849,930
1159,849,929
1160,849,930
1161,852,933
1162,855,938
1163,856,936
1164,857,938
1165,853,934
1166,851,930
1167,849,927
1168,846,928
1169,844,926
1170,846,927
1171,845,926
1172,846,931
1173,844,934
1174,845,936
1175,848,936
1176,852,936
1177,847,937
1178,847,931
1179,844,932
1180,843,929
1181,840,927
1182,839,927
1183,839,929
1184,842,931
1185,839,933
1186,838,935
1187,840,937
1188,838,934
1189,842,932
1190,838,928
1191,840,926
1192,835,929
1193,833,926
1194,835,926
1195,833,927
1196,834,926
1197,834,930
1198,836,932
1199,840,931
1200,841,931
1201,839,933
1202,836,929
1203,835,926
1204,833,923
1205,832,922
1206,834,921
1207,833,922
1208,833,924
1209,835,926
1210,833,927
1211,834,929
1212,836,928
1213,837,922
1214,836,922
1215,834,921
1216,832,918
1217,832,919
1218,831,921
1219,832,922
1220,831,927
1221,835,928
1222,841,928
1223,838,929
1224,837,929
1225,835,927
1226,838,925
1227,833,921
1228,835,923
1229,835,922
1230,833,923
1231,837,920
1232,834,924
1233,835,926
1234,837,923
1235,839,928
1236,840,925
1237,840,927
1238,842,925
1239,841,925
1240,840,924
1241,841,923
1242,843,924
1243,846,930
1244,854,935
1245,858,936
1246,862,938
1247,866,941
1248,870,940
1249,871,946
1250,872,944
1251,877,944
1252,879,943
1253,882,944
1254,890,944
1255,897,942
1256,904,941
1257,907,939
1258,908,935
1259,906,935
1260,905,932
1261,902,926
1262,901,920
1263,901,921
1264,900,917
1265,894,919
1266,887,919
1267,878,917
1268,871,917
1269,861,918
1270,851,920
1271,845,921
1272,840,924
1273,836,923
1274,835,920
1275,832,916
1276,832,914
1277,831,913
1278,830,912
1279,829,912
1280,831,917
1281,832,918
1282,834,921
1283,832,920
1284,832,920
1285,832,920
1286,832,920
1287,831,920
1288,830,917
1289,830,916
1290,828,917
1291,830,916
1292,830,918
1293,830,917
1294,834,919
1295,838,920
1296,835,919
1297,839,919
1298,838,919
1299,835,918
1300,835,916
1301,828,914
1302,820,916
1303,816,924
1304,821,936
1305,832,951
1306,852,956
1307,885,969
1308,928,969
1309,979,960
1310,1042,941
1311,1103,914
1312,1167,880
1313,1215,838
1314,1247,798
1315,1258,755
1316,1257,728
1317,1243,713
1318,1209,711
1319,1152,716
1320,1070,725
1321,971,735
1322,883,748
1323,822,759
1324,807,775
1325,814,797
1326,844,817
1327,870,832
1328,882,847
1329,884,865
1330,880,880
1331,870,894
1332,855,903
1333,843,912
1334,841,917
1335,839,918
1336,837,920
1337,835,920
1338,835,921
1339,836,920
1340,836,925
1341,837,930
1342,837,930
1343,839,932
1344,837,935
1345,835,931
1346,834,928
1347,833,930
1348,831,929
1349,829,928
1350,824,926
1351,827,928
1352,828,933
1353,827,934
1354,830,935
1355,831,940
1356,831,940
1357,829,939
1358,828,937
1359,830,936
1360,830,932
1361,828,933
1362,826,933
1363,831,935
1364,830,935
1365,832,936
1366,835,937
1367,836,940
1368,836,937
1369,835,939
1370,835,937
1371,834,936
1372,832,931
1373,832,932
1374,832,930
1375,834,933
1376,835,932
1377,835,936
1378,838,937
1379,842,942
1380,842,942
1381,842,943
1382,839,942
1383,842,935
1384,840,933
1385,837,936
1386,840,937
1387,841,938
1388,843,935
1389,848,939
1390,850,943
1391,852,945
1392,854,943
1393,851,942
1394,853,942
1395,857,937
1396,856,935
1397,859,939
1398,862,939
1399,861,940
1400,868,942
1401,867,947
1402,873,947
1403,877,951
1404,882,950
1405,882,949
1406,883,946
1407,889,946
1408,890,942
1409,894,944
1410,895,940
1411,899,947
1412,903,946
1413,906,949
1414,911,950
1415,917,951
1416,922,952
1417,924,946
1418,927,946
1419,927,941
1420,929,942
1421,930,939
1422,929,936
1423,936,938
1424,939,947
1425,944,946
1426,946,948
1427,951,947
1428,951,945
1429,953,944
1430,954,944
1431,954,937
1432,952,936
1433,950,936
1434,946,935
1435,945,935
1436,942,938
1437,939,939
1438,936,941
1439,934,944
1440,926,940
1441,922,942
1442,914,939
1443,905,937
1444,900,935
1445,893,934
1446,888,931
1447,884,934
1448,881,936
1449,875,939
1450,875,942
1451,871,945
1452,869,940
1453,866,939
1454,864,934
1455,858,935
1456,856,932
1457,854,932
1458,850,927
1459,848,927
1460,846,929
1461,845,931
1462,846,933
1463,850,934
1464,849,932
1465,846,930
1466,847,928
1467,847,929
1468,842,928
1469,840,927
1470,841,928
1471,839,931
1472,840,935
1473,842,935
1474,842,941
1475,844,936
1476,844,936
1477,844,934
1478,841,935
1479,840,931
1480,839,930
1481,838,932
1482,839,930
1483,839,927
1484,841,933
1485,844,930
1486,848,931
1487,848,936
1488,851,934
1489,851,931
1490,846,931
1491,846,929
1492,844,927
1493,840,929
1494,844,929
1495,846,928
1496,846,929
1497,846,932
1498,849,932
1499,848,935
1500,849,932
1501,852,932
1502,852,930
1503,848,928
1504,848,927
1505,844,925
1506,845,926
1507,840,923
1508,843,927
1509,846,926
1510,850,928
1511,848,931
1512,849,930
1513,847,933
1514,846,933
1515,843,928
1516,843,927
1517,844,926
1518,841,926
1519,840,924
1520,840,926
1521,843,930
1522,841,931
1523,841,935
1524,846,932
1525,839,930
1526,839,927
1527,838,926
1528,838,926
1529,837,923
1530,835,920
1531,837,925
1532,839,924
1533,838,929
1534,840,927
1535,840,932
1536,842,932
1537,842,930
1538,838,929
1539,835,926
1540,833,924
1541,832,924
1542,831,920
1543,833,924
1544,832,925
1545,835,928
1546,836,927
1547,837,928
1548,836,929
1549,836,927
1550,838,925
1551,835,927
1552,833,920
1553,833,921
1554,831,921
1555,834,921
1556,833,925
1557,834,928
1558,832,930
1559,835,930
1560,834,930
1561,833,930
1562,835,929
1563,833,925
1564,831,925
1565,827,922
1566,826,922
1567,831,924
1568,831,925
1569,832,926
1570,833,933
1571,832,930
1572,836,928
1573,835,929
1574,836,928
1575,836,928
1576,838,927
1577,836,926
1578,840,923
1579,840,932
1580,844,936
1581,847,938
1582,856,942
1583,857,946
1584,861,948
1585,866,945
1586,864,946
1587,867,944
1588,874,943
1589,877,945
1590,886,943
1591,894,940
1592,894,939
1593,896,933
1594,896,929
1595,895,930
1596,896,925
1597,894,924
1598,891,923
1599,892,921
1600,890,918
1601,880,918
1602,877,921
1603,867,918
1604,858,920
1605,847,920
1606,838,923
1607,835,924
1608,832,925
1609,829,924
1610,829,920
1611,824,916
1612,820,915
1613,821,914
1614,821,913
1615,820,913
1616,821,915
1617,822,915
1618,822,919
1619,822,923
1620,822,917
1621,821,920
1622,822,919
1623,821,916
1624,817,916
1625,817,918
1626,818,916
1627,816,916
1628,816,916
1629,816,920
1630,821,920
1631,822,921
1632,823,919
1633,826,922
1634,825,918
1635,824,917
1636,822,915
1637,816,914
1638,815,919
1639,809,916
1640,805,925
1641,809,937
1642,825,949
1643,850,960
1644,888,966
1645,938,961
1646,1003,946
1647,1075,918
1648,1142,884
1649,1200,842
1650,1235,793
1651,1246,757
1652,1236,730
1653,1206,717
1654,1147,721
1655,1063,733
1656,965,747
1657,872,759
1658,810,772
1659,787,788
1660,797,807
1661,823,824
1662,848,838
1663,861,854
1664,865,870
1665,856,883
1666,847,897
1667,835,911
1668,826,917
1669,822,921
1670,819,925
1671,820,922
1672,817,921
1673,816,922
1674,813,920
1675,813,925
1676,813,928
1677,814,933
1678,815,934
1679,815,937
1680,816,934
1681,813,935
1682,814,934
1683,813,932
1684,811,929
1685,808,931
1686,810,930
1687,809,930
1688,812,934
1689,808,936
1690,810,939
1691,810,938
1692,811,942
1693,810,939
1694,811,938
1695,812,933
1696,811,935
1697,809,931
1698,806,929
1699,809,933
1700,810,935
1701,809,933
1702,813,935
1703,816,938
1704,817,936
1705,815,935
1706,813,937
1707,813,932
1708,812,931
1709,812,933
1710,808,931
1711,813,933
1712,812,934
1713,817,936
1714,821,939
1715,821,941
1716,824,942
1717,825,941
1718,823,936
1719,822,936
1720,821,932
1721,822,932
1722,823,932
1723,827,932
1724,829,938
1725,832,934
1726,836,936
1727,841,940
1728,842,939
1729,843,936
1730,844,935
1731,845,935
1732,848,935
1733,848,936
1734,846,937
1735,848,937
1736,854,941
1737,861,940
1738,867,943
1739,874,945
1740,877,945
1741,881,937
1742,883,938
1743,883,937
1744,886,934
1745,887,932
1746,890,928
1747,892,928
1748,898,930
1749,897,931
1750,906,930
1751,912,933
1752,913,933
1753,918,935
1754,920,933
1755,920,931
1756,922,930
1757,922,930
1758,922,929
1759,924,929
1760,926,929
1761,928,933
1762,930,934
1763,931,933
1764,932,934
1765,928,933
1766,925,934
1767,918,930
1768,915,929
1769,907,929
1770,903,929
1771,897,929
1772,894,932
1773,890,936
1774,882,937
1775,880,940
1776,875,943
1777,869,939
1778,861,942
1779,856,938
1780,851,938
1781,844,937
1782,840,934
1783,840,936
1784,835,935
1785,835,936
1786,832,937
1787,829,940
1788,829,940
1789,826,939
1790,823,936
1791,823,935
1792,818,933
1793,815,931
1794,811,927
1795,812,928
1796,815,930
1797,817,932
1798,818,934
1799,816,936
1800,818,936
1801,814,935
1802,812,934
1803,812,934
1804,812,933
1805,810,933
1806,810,932
1807,811,933
1808,812,934
1809,815,933
1810,817,934
1811,818,938
1812,821,935
1813,822,936
1814,821,935
1815,816,932
1816,816,929
1817,818,928
1818,817,930
1819,814,929
1820,819,928
1821,822,931
1822,820,937
1823,823,938
1824,825,939
1825,828,935
1826,826,935
1827,823,932
1828,822,932
1829,821,930
1830,823,930
1831,821,930
1832,822,931
1833,825,930
1834,827,934
1835,829,937
1836,829,937
1837,831,935
1838,831,929
1839,825,930
1840,825,929
1841,824,930
1842,823,924
1843,820,926
1844,823,929
1845,823,932
1846,824,935
1847,829,936
1848,827,935
1849,823,937
1850,824,931
1851,820,930
1852,820,929
1853,818,927
1854,822,928
1855,822,931
1856,821,929
1857,822,932
1858,824,933
1859,825,933
1860,822,933
1861,823,931
1862,821,927
1863,818,927
1864,819,927
1865,815,924
1866,812,926
1867,814,924
1868,816,929
1869,816,934
1870,818,935
1871,817,933
1872,821,935
1873,818,931
1874,817,934
1875,816,930
1876,817,928
1877,814,926
1878,812,924
1879,809,925
1880,812,924
1881,814,928
1882,815,929
1883,816,933
1884,818,930
1885,818,930
1886,817,925
1887,815,927
1888,814,927
1889,812,924
1890,811,923
1891,809,929
1892,812,925
1893,814,930
1894,817,934
1895,817,935
1896,821,934
1897,822,934
1898,825,934
1899,825,932
1900,827,930
1901,827,932
1902,830,933
1903,834,934
1904,835,938
1905,839,937
1906,842,941
1907,846,943
1908,851,948
1909,852,944
1910,859,946
1911,862,946
1912,870,946
1913,876,943
1914,880,939
1915,882,937
1916,885,931
1917,884,932
1918,883,929
1919,880,930
1920,885,927
1921,882,929
1922,880,923
1923,873,921
1924,864,919
1925,856,915
1926,844,913
1927,831,913
1928,821,917
1929,815,921
1930,816,921
1931,813,924
1932,812,926
1933,815,926
1934,813,921
1935,814,921
1936,809,921
1937,807,915
1938,808,915
1939,808,916
1940,808,918
1941,810,920
1942,811,923
1943,809,922
1944,810,921
1945,808,923
1946,806,919
1947,807,918
1948,804,919
1949,807,913
1950,804,913
1951,803,915
1952,807,919
1953,809,920
1954,813,921
1955,811,925
1956,814,925
1957,813,926
1958,812,924
1959,807,925
1960,800,929
1961,800,932
1962,806,941
1963,826,954
1964,857,962
1965,909,963
1966,973,953
1967,1053,931
1968,1131,893
1969,1197,845
1970,1237,793
1971,1257,749
1972,1246,719
1973,1204,710
1974,1129,714
1975,1021,726
1976,909,746
1977,824,767
1978,782,788
1979,782,813
1980,807,834
1981,833,852
1982,853,862
1983,858,873
1984,853,887
1985,837,895
1986,826,905
1987,817,912
1988,814,916
1989,807,922
1990,813,922
1991,812,925
1992,819,927
1993,817,927
1994,815,930
1995,814,927
1996,813,931
1997,806,927
1998,806,927
1999,807,928
2000,807,933
2001,808,934
2002,808,935
2003,810,935
2004,813,937
2005,811,938
2006,810,939
2007,812,934
2008,808,931
2009,806,930
2010,806,927
2011,806,929
2012,807,933
2013,810,934
2014,810,934
2015,814,935
2016,815,936
2017,813,937
2018,811,938
2019,811,934
2020,816,931
2021,812,927
2022,813,928
2023,814,928
2024,811,932
2025,816,932
2026,818,933
2027,820,936
2028,819,934
2029,822,936
2030,826,933
2031,825,933
2032,826,932
2033,826,930
2034,827,933
2035,828,933
2036,830,936
2037,833,937
2038,837,941
2039,837,941
2040,842,942
2041,843,942
2042,843,941
2043,846,936
2044,844,941
2045,841,934
2046,843,933
2047,848,937
2048,855,937
2049,860,939
2050,861,942
2051,869,942
2052,871,941
2053,875,941
2054,882,942
2055,879,939
2056,885,941
2057,889,937
2058,896,940
2059,899,938
2060,903,939
2061,910,942
2062,914,944
2063,918,942
2064,922,945
2065,927,942
2066,930,940
2067,930,936
2068,934,936
2069,935,933
2070,940,934
2071,939,934
2072,941,933
2073,942,936
2074,945,935
2075,945,936
2076,950,942
2077,944,938
2078,942,934
2079,934,931
2080,927,934
2081,924,933
2082,918,933
2083,907,934
2084,901,934
2085,900,940
2086,894,939
2087,891,940
2088,883,943
2089,876,940
2090,871,939
2091,864,938
2092,858,936
2093,854,932
2094,852,931
2095,847,930
2096,842,932
2097,843,935
2098,841,934
2099,840,935
2100,838,939
2101,838,936
2102,833,933
2103,832,934
2104,830,935
2105,829,930
2106,827,930
2107,825,927
2108,824,928
2109,828,932
2110,826,931
2111,829,931
2112,832,932
2113,831,928
2114,828,931
2115,827,927
2116,826,928
2117,825,927
2118,828,924
2119,827,926
2120,827,927
2121,831,929
2122,835,932
2123,835,935
2124,839,936
2125,839,935
2126,836,933
2127,834,931
2128,833,930
2129,833,926
2130,837,925
2131,835,926
2132,835,926
2133,838,932
2134,841,929
2135,841,932
2136,842,929
2137,841,929
2138,840,929
2139,838,925
2140,836,923
2141,840,922
2142,839,923
2143,837,923
2144,841,924
2145,843,927
2146,845,929
2147,847,929
2148,846,928
2149,844,933
2150,844,926
2151,843,927
2152,843,927
2153,841,921
2154,838,921
2155,839,924
2156,838,919
2157,841,922
2158,840,926
2159,841,926
2160,840,926
2161,841,927
2162,840,925
2163,839,924
2164,838,923
2165,839,918
2166,835,918
2167,833,922
2168,833,924
2169,833,925
2170,836,927
2171,840,928
2172,840,929
2173,835,925
2174,835,925
2175,837,923
2176,835,921
2177,834,923
2178,831,921
2179,832,921
2180,831,925
2181,835,926
2182,834,925
2183,836,925
2184,839,924
2185,835,926
2186,834,923
2187,830,924
2188,831,921
2189,830,919
2190,830,919
2191,826,921
2192,826,922
2193,832,925
2194,829,925
2195,835,928
2196,834,928
2197,834,928
2198,832,927
2199,833,922
2200,831,920
2201,826,923
2202,829,919
2203,829,920
2204,829,920
2205,832,922
2206,832,923
2207,835,922
2208,836,923
2209,837,922
2210,838,923
2211,835,918
2212,835,917
2213,831,916
2214,834,919
2215,832,918
2216,833,920
2217,840,926
2218,843,926
2219,848,932
2220,852,934
2221,855,933
2222,854,933
2223,857,932
2224,858,934
2225,861,931
2226,860,931
2227,861,932
2228,868,934
2229,875,939
2230,879,942
2231,887,946
2232,898,945
2233,903,945
2234,906,937
2235,906,932
2236,904,926
2237,900,922
2238,897,918
2239,891,916
2240,895,917
2241,896,920
2242,895,923
2243,894,920
2244,882,920
2245,873,917
2246,860,919
2247,849,915
2248,839,918
2249,832,916
2250,825,912
2251,820,913
2252,822,915
2253,826,919
2254,830,920
2255,832,920
2256,830,921
2257,829,921
2258,829,921
2259,826,918
2260,822,918
2261,822,917
2262,821,913
2263,819,917
2264,822,918
2265,823,917
2266,821,919
2267,825,919
2268,826,918
2269,828,919
2270,827,919
2271,826,918
2272,826,918
2273,826,915
2274,826,915
2275,826,911
2276,827,917
2277,825,917
2278,827,917
2279,827,919
2280,826,923
2281,822,926
2282,817,928
2283,814,935
2284,817,944
2285,827,955
2286,848,965
2287,882,971
2288,934,961
2289,995,946
2290,1069,923
2291,1144,886
2292,1208,842
2293,1250,792
2294,1265,747
2295,1264,711
2296,1241,690
2297,1193,689
2298,1114,699
2299,1015,714
2300,910,733
2301,837,751
2302,800,775
2303,805,797
2304,825,821
2305,855,838
2306,873,855
2307,875,872
2308,869,880
2309,859,892
2310,842,903
2311,832,909
2312,826,915
2313,826,918
2314,830,923
2315,829,925
2316,834,924
2317,832,926
2318,831,927
2319,833,927
2320,830,927
2321,823,923
2322,823,927
2323,820,925
2324,823,925
2325,824,930
2326,825,932
2327,824,937
2328,826,939
2329,826,938
2330,822,936
2331,825,934
2332,822,935
2333,821,933
2334,821,931
2335,819,933
2336,821,932
2337,824,934
2338,826,936
2339,825,941
2340,826,940
2341,826,941
2342,824,938
2343,825,934
2344,822,934
2345,818,932
2346,818,930
2347,823,933
2348,821,932
2349,825,934
2350,826,937
2351,830,943
2352,833,944
2353,833,945
2354,833,942
2355,833,943
2356,829,940
2357,831,937
2358,830,936
2359,830,936
2360,830,937
2361,837,939
2362,839,944
2363,840,940
2364,839,942
2365,837,943
2366,839,940
2367,841,939
2368,842,937
2369,842,939
2370,843,937
2371,845,938
2372,844,943
2373,849,944
2374,853,948
2375,859,948
2376,862,950
2377,864,950
2378,867,950
2379,869,949
2380,871,946
2381,871,945
2382,871,941
2383,875,945
2384,880,947
2385,885,949
2386,890,951
2387,897,951
2388,904,952
2389,906,951
2390,909,951
2391,912,945
2392,916,946
2393,917,945
2394,921,943
2395,923,943
2396,928,946
2397,932,947
2398,937,947
2399,940,951
2400,944,950
2401,948,950
2402,953,945
2403,950,944
2404,951,939
2405,950,939
2406,949,938
2407,947,939
2408,944,935
2409,940,937
2410,936,940
2411,932,942
2412,930,943
2413,923,942
2414,917,945
2415,909,943
2416,898,941
2417,896,942
2418,886,942
2419,881,941
2420,874,942
2421,873,944
2422,869,942
2423,868,945
2424,866,941
2425,861,941
2426,856,942
2427,854,938
2428,845,938
2429,842,933
2430,839,931
2431,838,931
2432,838,933
2433,836,935
2434,837,934
2435,840,939
2436,841,935
2437,839,937
2438,838,940
2439,837,939
2440,837,934
2441,837,933
2442,834,933
2443,831,934
2444,830,931
2445,831,934
2446,832,938
2447,832,937
2448,838,938
2449,836,936
2450,837,937
2451,837,935
2452,837,933
2453,834,930
2454,835,929
2455,835,929
2456,837,929
2457,836,932
2458,839,933
2459,839,940
2460,841,943
2461,841,941
2462,841,942
2463,842,944
2464,839,942
2465,840,944
2466,835,948
2467,834,953
2468,842,958
2469,851,966
2470,865,983
2471,886,989
2472,913,988
2473,943,972
2474,968,950
2475,997,920
2476,1025,886
2477,1059,858
2478,1096,830
2479,1135,802
2480,1180,768
2481,1224,733
2482,1267,699
2483,1303,658
2484,1338,621
2485,1367,590
2486,1390,566
2487,1404,554
2488,1411,548
2489,1412,543
2490,1413,542
2491,1407,545
2492,1400,549
2493,1387,557
2494,1371,563
2495,1359,581
2496,1350,595
2497,1344,619
2498,1345,636
2499,1346,650
2500,1338,667
2501,1330,685
2502,1312,703
2503,1284,721
2504,1254,737
2505,1221,760
2506,1180,779
2507,1130,796
2508,1060,817
2509,982,832
2510,904,853
2511,848,876
2512,810,894
2513,798,918
2514,795,930
2515,798,940
2516,804,947
2517,800,948
2518,795,953
2519,786,955
2520,779,961
2521,773,963
2522,764,967
2523,759,966
2524,753,966
2525,749,968
2526,745,971
2527,744,973
2528,741,976
2529,739,980
2530,738,984
2531,733,986
2532,733,988
2533,732,990
2534,731,991
2535,729,990
2536,725,991
2537,720,990
2538,717,990
2539,715,991
2540,712,995
2541,712,1001
2542,712,1005
2543,710,1012
2544,711,1013
2545,709,1018
2546,711,1021
2547,709,1022
2548,709,1023
2549,706,1025
2550,706,1031
2551,706,1034
2552,703,1040
2553,700,1047
2554,703,1054
2555,703,1057
2556,707,1062
2557,709,1066
2558,704,1065
2559,710,1066
2560,707,1060
2561,703,1059
2562,697,1056
2563,689,1055
2564,687,1059
2565,682,1060
2566,679,1067
2567,680,1073
2568,675,1078
2569,664,1081
2570,653,1087
2571,642,1088
2572,628,1091
2573,617,1092
2574,604,1095
2575,590,1102
2576,581,1106
2577,575,1113
2578,569,1119
2579,568,1119
2580,561,1123
2581,558,1126
2582,560,1122
2583,557,1120
2584,554,1120
2585,552,1115
2586,551,1111
2587,549,1110
2588,550,1106
2589,554,1107
2590,561,1104
2591,566,1102
2592,572,1097
2593,579,1092
2594,585,1086
2595,591,1077
2596,595,1071
2597,602,1063
2598,616,1053
2599,627,1046
2600,640,1039
2601,652,1031
2602,666,1026
2603,672,1019
2604,690,1016
2605,699,1002
2606,708,997
2607,716,987
2608,725,982
2609,733,974
2610,741,967
2611,748,963
2612,754,961
2613,758,958
2614,764,960
2615,770,958
2616,770,960
2617,773,954
2618,777,951
2619,778,949
2620,779,944
2621,779,943
2622,780,939
2623,772,938
2624,776,941
2625,781,943
2626,783,943
2627,780,946
2628,783,946
2629,783,943
2630,784,944
2631,782,941
2632,781,936
2633,782,934
2634,781,938
2635,779,937
2636,784,938
2637,783,943
2638,785,942
2639,786,948
2640,790,949
2641,790,947
2642,789,948
2643,790,943
2644,788,942
2645,786,942
2646,787,942
2647,788,940
2648,789,942
2649,789,942
2650,793,945
2651,795,945
2652,798,947
2653,801,945
2654,800,945
2655,797,941
2656,797,939
2657,795,942
2658,796,936
2659,797,935
2660,795,939
2661,798,944
2662,798,941
2663,799,949
2664,801,950
2665,803,946
2666,801,943
2667,805,940
2668,805,939
2669,802,940
2670,801,938
2671,802,936
2672,801,935
2673,804,936
2674,800,938
2675,805,941
2676,808,944
2677,807,943
2678,808,938
2679,808,938
2680,809,934
2681,807,932
2682,804,931
2683,803,930
2684,806,930
2685,804,933
2686,808,933
2687,809,937
2688,812,937
2689,814,935
2690,817,934
2691,815,938
2692,813,934
2693,812,930
2694,810,926
2695,811,929
2696,808,929
2697,808,931
2698,812,931
2699,815,934
2700,817,932
2701,816,934
2702,816,933
2703,816,932
2704,815,930
2705,812,930
2706,814,929
2707,815,927
2708,815,928
2709,814,929
2710,818,928
2711,817,934
2712,821,933
2713,821,934
2714,820,930
2715,819,929
2716,820,926
2717,818,927
2718,818,924
2719,820,921
2720,819,923
2721,817,922
2722,821,926
2723,822,929
2724,823,929
2725,825,930
2726,824,926
2727,822,929
2728,822,928
2729,821,926
2730,819,926
2731,818,924
2732,819,926
2733,821,927
2734,822,929
2735,828,929
2736,829,931
2737,832,931
2738,827,928
2739,827,926
2740,823,924
2741,825,920
2742,822,920
2743,818,920
2744,823,919
2745,822,921
2746,825,925
2747,829,929
2748,831,927
2749,832,929
2750,833,928
2751,830,927
2752,826,925
2753,827,924
2754,823,925
2755,827,920
2756,827,922
2757,830,923
2758,828,926
2759,833,926
2760,834,928
2761,834,925
2762,832,923
2763,833,923
2764,828,921
2765,828,920
2766,827,918
2767,827,916
2768,826,919
2769,830,923
2770,832,924
2771,832,924
2772,835,930
2773,834,928
2774,834,927
2775,834,928
2776,832,922
2777,831,921
2778,826,921
2779,829,920
2780,830,918
2781,832,920
2782,832,921
2783,831,927
2784,838,929
2785,835,925
2786,834,922
2787,833,922
2788,831,921
2789,831,917
2790,829,916
2791,829,919
2792,833,919
2793,833,921
2794,836,922
2795,833,930
2796,834,925
2797,834,928
2798,835,922
2799,834,924
2800,833,921
2801,832,918
2802,831,917
2803,830,917
2804,832,917
2805,832,920
2806,833,920
2807,837,922
2808,835,923
2809,837,921
2810,839,922
2811,838,922
2812,837,922
2813,835,922
2814,834,919
2815,831,918
2816,829,919
2817,834,923
2818,837,923
2819,834,927
2820,839,925
2821,841,927
2822,839,924
2823,839,923
2824,838,924
2825,838,919
2826,837,920
2827,835,914
2828,837,914
2829,837,918
2830,836,920
2831,840,926
2832,843,925
2833,845,923
2834,843,922
2835,843,921
2836,842,921
2837,840,918
2838,837,919
2839,832,916
2840,833,919
2841,839,921
2842,840,920
2843,840,921
2844,841,921
2845,843,922
2846,847,920
2847,844,921
2848,845,918
2849,843,914
2850,840,916
2851,841,911
2852,838,914
2853,840,915
2854,840,919
2855,840,921
2856,841,921
2857,847,921
2858,847,921
2859,847,920
2860,842,921
2861,839,919
2862,837,921
2863,841,920
2864,843,916
2865,843,922
2866,845,921
2867,844,923
2868,848,924
2869,847,923
2870,846,922
2871,850,921
2872,846,918
2873,843,915
2874,842,916
2875,838,911
2876,838,915
2877,839,916
2878,845,917
2879,846,920
2880,850,925
2881,851,922
2882,850,924
2883,849,922
2884,849,920
2885,847,918
2886,846,918
2887,845,915
2888,847,918
2889,849,921
2890,854,924
2891,859,923
2892,862,929
2893,869,929
2894,869,928
2895,871,930
2896,868,932
2897,869,930
2898,875,929
2899,880,931
2900,886,933
2901,893,935
2902,903,939
2903,913,939
2904,920,941
2905,920,937
2906,920,930
2907,915,922
2908,915,919
2909,908,915
2910,909,912
2911,909,912
2912,909,913
2913,907,913
2914,903,912
2915,895,914
2916,887,920
2917,875,917
2918,861,915
2919,856,913
2920,848,914
2921,846,911
2922,842,913
2923,843,910
2924,844,909
2925,845,910
2926,845,911
2927,846,914
2928,848,916
2929,847,916
2930,847,914
2931,846,912
2932,845,912
2933,841,906
2934,842,908
2935,840,908
2936,842,907
2937,843,910
2938,847,914
2939,844,913
2940,843,914
2941,847,913
2942,845,913
2943,837,914
2944,831,914
2945,828,918
2946,834,927
2947,849,940
2948,877,948
2949,919,955
2950,972,950
2951,1038,939
2952,1111,920
2953,1183,888
2954,1239,847
2955,1279,803
2956,1293,764
2957,1288,735
2958,1262,719
2959,1211,716
2960,1133,722
2961,1033,734
2962,932,748
2963,856,765
2964,824,784
2965,828,801
2966,852,821
2967,875,839
2968,890,851
2969,891,863
2970,885,876
2971,868,888
2972,858,896
2973,847,904
2974,842,911
2975,838,914
2976,843,917
2977,845,918
2978,846,918
2979,844,918
2980,845,918
2981,842,917
2982,839,918
2983,837,918
2984,834,919
2985,835,924
2986,838,924
2987,837,926
2988,839,927
2989,842,931
2990,841,930
2991,837,928
2992,837,924
2993,837,926
2994,832,926
2995,827,924
2996,832,927
2997,833,927
2998,833,931
2999,837,931
3000,837,932
3001,839,933
3002,839,931
3003,838,934
3004,835,930
3005,833,925
3006,828,925
3007,830,926
3008,833,927
3009,834,929
3010,836,930
3011,837,935
3012,839,939
3013,840,936
3014,838,938
3015,840,937
3016,839,936
3017,835,931
3018,837,932
3019,836,928
3020,837,930
3021,841,931
3022,841,936
3023,845,938
3024,847,939
3025,849,937
3026,850,938
3027,849,941
3028,852,936
3029,851,935
3030,848,935
3031,850,934
3032,854,935
3033,854,941
3034,862,941
3035,862,943
3036,868,947
3037,870,946
3038,870,949
3039,872,949
3040,871,945
3041,874,944
3042,871,941
3043,876,939
3044,878,943
3045,885,945
3046,890,947
3047,894,949
3048,900,952
3049,903,950
3050,905,951
3051,909,945
3052,910,944
3053,911,944
3054,913,943
3055,915,943
3056,917,942
3057,921,945
3058,928,946
3059,929,950
3060,931,952
3061,937,948
3062,939,950
3063,942,947
3064,942,943
3065,940,942
3066,944,941
3067,943,936
3068,948,934
3069,952,939
3070,955,938
3071,956,938
3072,957,940
3073,960,940
3074,958,936
3075,958,934
3076,954,931
3077,950,930
3078,946,929
3079,941,927
3080,935,930
3081,934,932
3082,929,937
3083,927,935
3084,922,938
3085,920,934
3086,915,932
3087,908,930
3088,903,928
3089,898,925
3090,894,922
3091,887,923
3092,882,923
3093,879,926
3094,879,924
3095,878,927
3096,878,932
3097,877,928
3098,873,928
3099,869,927
3100,868,923
3101,865,922
3102,862,921
3103,863,923
3104,864,923
3105,865,927
3106,863,929
3107,864,932
3108,866,933
3109,868,932
3110,865,931
3111,866,933
3112,866,929
3113,864,928
3114,864,924
3115,860,922
3116,861,926
3117,865,927
3118,866,927
3119,868,929
3120,870,928
3121,869,928
3122,869,929
3123,870,927
3124,868,924
3125,866,924
3126,867,924
3127,867,924
3128,866,925
3129,868,926
3130,871,925
3131,870,931
3132,873,930
3133,872,931
3134,869,929
3135,870,927
3136,869,924
3137,867,920
3138,866,918
3139,865,917
3140,863,920
3141,864,921
3142,866,926
3143,868,927
3144,869,932
3145,868,926
3146,867,925
3147,867,925
3148,864,922
3149,862,921
3150,859,925
3151,859,923
3152,856,925
3153,859,925
3154,862,925
3155,864,926
3156,866,927
3157,865,929
3158,864,925
3159,858,927
3160,856,922
3161,854,922
3162,855,920
3163,854,919
3164,855,919
3165,856,919
3166,856,925
3167,859,923
3168,860,925
3169,859,924
3170,858,927
3171,855,925
3172,848,924
3173,848,925
3174,848,921
3175,846,923
3176,846,922
3177,845,925
3178,844,928
3179,846,926
3180,850,929
3181,847,929
3182,850,926
3183,850,927
3184,846,923
3185,845,919
3186,843,918
3187,844,917
3188,842,920
3189,844,916
3190,842,921
3191,846,923
3192,848,928
3193,850,924
3194,848,926
3195,849,924
3196,846,923
3197,847,922
3198,841,922
3199,843,920
3200,839,923
3201,843,923
3202,848,924
3203,848,926
3204,847,927
3205,849,928
3206,848,926
3207,848,926
3208,846,920
3209,844,921
3210,842,918
3211,840,917
3212,840,920
3213,845,922
3214,846,921
3215,847,922
3216,849,924
3217,846,927
3218,846,925
3219,847,923
3220,848,924
3221,845,921
3222,847,921
3223,847,926
3224,845,923
3225,854,925
3226,858,927
3227,863,929
3228,868,932
3229,872,937
3230,874,939
3231,875,938
3232,879,938
3233,880,935
3234,880,938
3235,884,937
3236,886,935
3237,893,944
3238,906,944
3239,912,943
3240,920,946
3241,925,942
3242,921,937
3243,917,933
3244,911,928
3245,910,922
3246,911,919
3247,907,917
3248,909,916
3249,906,918
3250,905,919
3251,903,920
3252,894,920
3253,883,918
3254,873,917
3255,863,919
3256,852,918
3257,845,912
3258,846,914
3259,841,910
3260,844,913
3261,841,909
3262,846,910
3263,843,911
3264,846,916
3265,846,916
3266,842,917
3267,838,912
3268,835,908
3269,836,906
3270,835,905
3271,836,905
3272,835,905
3273,839,907
3274,839,911
3275,841,911
3276,842,913
3277,843,916
3278,842,917
3279,842,913
3280,844,914
3281,838,906
3282,838,911
3283,836,913
3284,830,910
3285,829,919
3286,829,928
3287,838,942
3288,854,953
3289,884,960
3290,924,961
3291,987,951
3292,1055,925
3293,1131,890
3294,1200,847
3295,1250,799
3296,1280,754
3297,1282,718
3298,1270,699
3299,1231,696
3300,1166,705
3301,1074,715
3302,967,727
3303,881,742
3304,826,757
3305,810,776
3306,829,795
3307,853,814
3308,880,831
3309,891,852
3310,890,868
3311,882,884
3312,870,895
3313,859,903
3314,850,908
3315,846,914
3316,843,913
3317,841,910
3318,840,913
3319,844,913
3320,841,917
3321,840,917
3322,842,919
3323,845,923
3324,845,926
3325,844,923
3326,841,922
3327,840,928
3328,837,923
3329,836,922
3330,837,923
3331,836,922
3332,834,923
3333,834,927
3334,838,926
3335,838,928
3336,843,929
3337,844,932
3338,843,929
3339,839,928
3340,840,926
3341,838,924
3342,835,926
3343,836,923
3344,836,922
3345,837,923
3346,841,928
3347,842,929
3348,842,929
3349,846,929
3350,845,929
3351,844,927
3352,840,929
3353,841,926
3354,839,925
3355,840,925
3356,838,927
3357,836,925
3358,844,931
3359,848,931
3360,851,933
3361,852,931
3362,853,934
3363,853,931
3364,853,927
3365,854,928
3366,852,922
3367,855,925
3368,851,924
3369,856,926
3370,861,926
3371,860,932
3372,864,928
3373,869,933
3374,869,930
3375,873,933
3376,871,930
3377,877,929
3378,876,930
3379,878,929
3380,882,929
3381,883,931
3382,890,934
3383,891,935
3384,900,938
3385,905,937
3386,911,936
3387,912,932
3388,916,933
3389,917,931
3390,917,927
3391,921,926
3392,924,931
3393,929,933
3394,935,935
3395,942,938
3396,948,941
3397,952,939
3398,954,942
3399,958,941
3400,955,938
3401,957,934
3402,960,932
3403,958,930
3404,960,929
3405,959,930
3406,965,928
3407,962,932
3408,964,934
3409,962,930
3410,959,931
3411,955,928
3412,946,925
3413,943,923
3414,937,925
3415,933,923
3416,924,926
3417,921,924
3418,917,929
3419,911,931
3420,905,931
3421,902,934
3422,897,932
3423,890,932
3424,883,926
3425,879,926
3426,874,924
3427,869,922
3428,867,921
3429,865,921
3430,864,927
3431,862,927
3432,864,929
3433,860,925
3434,855,923
3435,856,921
3436,852,921
3437,847,917
3438,850,918
3439,851,917
3440,847,919
3441,848,921
3442,849,923
3443,853,925
3444,852,928
3445,854,926
3446,850,925
3447,852,925
3448,853,921
3449,851,917
3450,851,921
3451,842,920
3452,843,918
3453,845,922
3454,847,922
3455,854,924
3456,853,923
3457,856,921
3458,855,925
3459,858,919
3460,852,922
3461,852,920
3462,849,917
3463,850,920
3464,846,913
3465,849,918
3466,854,922
3467,854,926
3468,857,926
3469,858,922
3470,857,924
3471,856,924
3472,857,919
3473,855,917
3474,852,915
3475,852,914
3476,847,914
3477,851,917
3478,854,918
3479,855,920
3480,855,918
3481,858,918
3482,858,921
3483,856,921
3484,855,915
3485,853,917
3486,851,914
3487,851,914
3488,849,916
3489,850,918
3490,852,916
3491,856,918
3492,856,921
3493,856,921
3494,856,919
3495,852,916
3496,848,917
3497,845,914
3498,845,911
3499,846,910
3500,845,909
3501,844,910
3502,846,913
3503,849,916
3504,851,914
3505,851,918
3506,850,916
3507,845,917
3508,846,913
3509,843,910
3510,843,910
3511,842,914
3512,841,914
3513,843,913
3514,846,915
3515,847,916
3516,849,921
3517,849,922
3518,849,918
3519,843,914
3520,847,913
3521,845,911
3522,842,911
3523,843,910
3524,842,908
3525,842,908
3526,848,913
3527,849,915
3528,848,915
3529,846,920
3530,846,917
3531,842,917
3532,842,915
3533,840,914
3534,843,911
3535,840,912
3536,841,908
3537,841,913
3538,843,914
3539,846,916
3540,849,917
3541,853,919
3542,855,919
3543,857,919
3544,859,920
3545,860,921
3546,861,922
3547,864,920
3548,865,923
3549,870,929
3550,873,931
3551,879,936
3552,881,938
3553,891,942
3554,898,942
3555,907,939
3556,907,935
3557,912,930
3558,910,925
3559,907,918
3560,906,915
3561,906,912
3562,908,914
3563,911,911
3564,909,911
3565,906,914
3566,898,907
3567,885,904
3568,873,906
3569,861,904
3570,849,907
3571,843,907
3572,836,906
3573,834,905
3574,837,909
3575,840,913
3576,838,912
3577,842,911
3578,840,908
3579,838,907
3580,838,905
3581,832,903
3582,833,900
3583,829,898
3584,828,901
3585,832,903
3586,834,905
3587,835,908
3588,835,906
3589,837,907
3590,837,904
3591,836,903
3592,832,907
3593,830,900
3594,832,901
3595,830,904
3596,830,899
3597,827,902
3598,829,908
3599,830,905
3600,828,909
3601,823,910
3602,822,918
3603,824,926
3604,837,931
3605,856,945
3606,887,947
3607,929,944
3608,990,933
3609,1063,909
3610,1139,878
3611,1203,838
3612,1251,795
3613,1277,755
3614,1281,726
3615,1264,711
3616,1221,708
3617,1158,718
3618,1071,718
3619,962,730
3620,872,746
3621,812,765
3622,796,783
3623,813,800
3624,841,820
3625,869,839
3626,884,850
3627,883,864
3628,870,872
3629,857,882
3630,843,888
3631,836,894
3632,827,900
3633,827,903
3634,831,906
3635,834,905
3636,834,913
3637,836,913
3638,833,914
3639,831,917
3640,830,917
3641,829,917
3642,826,916
3643,822,913
3644,823,915
3645,821,914
3646,826,916
3647,828,919
3648,829,920
3649,832,922
3650,829,923
3651,828,919
3652,828,921
3653,825,916
3654,823,914
3655,822,914
3656,821,917
3657,818,916
3658,823,916
3659,825,920
3660,828,924
3661,829,928
3662,826,925
3663,826,928
3664,826,925
3665,826,922
3666,824,919
3667,825,921
3668,824,922
3669,822,924
3670,825,922
3671,827,925
3672,831,927
3673,830,927
3674,827,929
3675,829,927
3676,830,923
3677,829,923
3678,829,921
3679,830,922
3680,830,922
3681,830,923
3682,832,927
3683,840,927
3684,845,929
3685,848,929
3686,850,929
3687,851,930
3688,851,928
3689,848,926
3690,848,925
3691,851,923
3692,851,924
3693,852,928
3694,858,928
3695,862,933
3696,865,930
3697,873,932
3698,872,933
3699,874,929
3700,876,923
3701,881,924
3702,883,924
3703,888,923
3704,892,923
3705,897,925
3706,902,925
3707,911,930
3708,914,934
3709,918,931
3710,919,930
3711,922,927
3712,927,925
3713,929,921
3714,929,919
3715,932,918
3716,933,919
3717,938,918
3718,942,920
3719,945,920
3720,946,919
3721,952,924
3722,950,920
3723,949,918
3724,948,919
3725,942,918
3726,939,916
3727,932,918
3728,930,917
3729,926,919
3730,925,924
3731,917,925
3732,913,930
3733,910,929
3734,904,927
3735,897,931
3736,888,927
3737,882,927
3738,875,925
3739,868,923
3740,865,926
3741,860,923
3742,857,925
3743,856,927
3744,855,929
3745,850,930
3746,850,927
3747,843,928
3748,840,928
3749,835,924
3750,834,920
3751,833,923
3752,832,925
3753,829,924
3754,830,922
3755,832,926
3756,834,931
3757,833,930
3758,833,929
3759,833,927
3760,831,925
3761,830,923
3762,825,920
3763,823,919
3764,824,920
3765,827,922
3766,824,925
3767,828,925
3768,831,926
3769,833,930
3770,830,929
3771,830,930
3772,832,927
3773,828,925
3774,829,923
3775,828,921
3776,828,924
3777,827,923
3778,831,926
3779,836,926
3780,838,929
3781,841,929
3782,838,927
3783,841,927
3784,838,923
3785,836,922
3786,834,917
3787,835,919
3788,836,920
3789,835,920
3790,836,922
3791,837,925
3792,837,928
3793,842,933
3794,839,929
3795,840,931
3796,837,929
3797,838,926
3798,835,924
3799,836,920
3800,832,922
3801,834,921
3802,834,923
3803,838,928
3804,836,928
3805,837,929
3806,840,927
3807,837,926
3808,835,923
3809,833,921
3810,834,920
3811,831,920
3812,831,920
3813,830,923
3814,832,926
3815,829,924
3816,831,933
3817,832,932
3818,834,928
3819,832,929
3820,830,925
3821,829,923
3822,826,921
3823,825,920
3824,826,921
3825,826,924
3826,828,923
3827,829,926
3828,829,927
3829,833,926
3830,829,926
3831,828,926
3832,827,924
3833,825,922
3834,826,920
3835,827,918
3836,824,922
3837,825,923
3838,826,926
3839,826,929
3840,826,929
3841,826,929
3842,827,928
3843,827,928
3844,825,924
3845,822,921
3846,822,921
3847,823,921
3848,826,921
3849,826,921
3850,830,925
3851,837,930
3852,842,932
3853,847,936
3854,852,941
3855,854,935
3856,854,938
3857,856,937
3858,858,937
3859,862,936
3860,864,938
3861,874,939
3862,882,941
3863,890,942
3864,894,941
3865,896,939
3866,896,932
3867,891,925
3868,888,921
3869,886,917
3870,887,916
3871,882,914
3872,878,913
3873,869,916
3874,861,919
3875,851,920
3876,843,920
3877,837,926
3878,831,928
3879,825,928
3880,823,923
3881,819,920
3882,817,917
3883,815,915
3884,816,915
3885,819,915
3886,817,916
3887,817,918
3888,817,923
3889,820,922
3890,820,922
3891,817,919
3892,814,914
3893,814,911
3894,813,908
3895,809,908
3896,811,908
3897,812,911
3898,812,915
3899,811,917
3900,817,919
3901,815,922
3902,819,921
3903,816,924
3904,815,920
3905,813,918
3906,813,915
3907,813,912
3908,813,916
3909,812,914
3910,810,918
3911,809,922
3912,807,929
3913,812,935
3914,819,947
3915,836,956
3916,868,962
3917,909,958
3918,966,944
3919,1034,918
3920,1106,890
3921,1172,853
3922,1223,814
3923,1253,773
3924,1262,745
3925,1250,723
3926,1215,717
3927,1150,721
3928,1062,727
3929,956,740
3930,863,750
3931,802,764
3932,784,784
3933,799,803
3934,827,824
3935,858,839
3936,873,855
3937,874,869
3938,863,878
3939,848,887
3940,838,897
3941,827,903
3942,822,905
3943,818,909
3944,820,909
3945,820,913
3946,822,920
3947,823,924
3948,825,929
3949,824,929
3950,824,931
3951,821,930
3952,819,927
3953,816,927
3954,817,924
3955,816,927
3956,818,926
3957,816,928
3958,820,930
3959,820,932
3960,820,934
3961,821,935
3962,822,933
3963,819,932
3964,821,932
3965,817,926
3966,815,926
3967,816,927
3968,813,928
3969,815,928
3970,819,932
3971,819,932
3972,823,935
3973,825,939
3974,827,936
3975,826,936
3976,824,934
3977,822,934
3978,819,930
3979,818,926
3980,818,926
3981,819,930
3982,822,932
3983,828,933
3984,828,936
3985,827,938
3986,830,937
3987,827,935
3988,829,933
3989,828,930
3990,828,929
3991,830,931
3992,830,930
3993,831,934
3994,830,937
3995,835,937
3996,839,939
3997,840,940
3998,841,938
3999,842,940
4000,843,936
4001,840,937
4002,843,936
4003,845,933
4004,848,934
4005,851,935
4006,855,937
4007,858,937
4008,862,940
4009,869,940
4010,871,941
4011,873,942
4012,873,939
4013,875,940
4014,878,933
4015,883,935
4016,884,937
4017,891,942
4018,894,941
4019,900,942
4020,905,943
4021,913,948
4022,917,945
4023,922,942
4024,920,938
4025,927,939
4026,925,936
4027,927,934
4028,931,933
4029,936,937
4030,939,935
4031,944,936
4032,949,938
4033,952,937
4034,956,935
4035,958,935
4036,955,934
4037,955,928
4038,954,927
4039,952,930
4040,952,928
4041,950,930
4042,947,933
4043,944,934
4044,945,935
4045,942,939
4046,934,936
4047,929,936
4048,922,936
4049,917,929
4050,907,932
4051,901,930
4052,895,931
4053,890,933
4054,885,936
4055,881,931
4056,878,934
4057,875,935
4058,870,934
4059,868,932
4060,866,933
4061,859,930
4062,853,926
4063,848,925
4064,845,924
4065,843,930
4066,847,929
4067,847,931
4068,846,930
4069,845,930
4070,843,927
4071,844,930
4072,840,926
4073,839,926
4074,837,922
4075,836,924
4076,837,922
4077,837,922
4078,836,927
4079,834,923
4080,834,924
4081,839,928
4082,838,926
4083,838,924
4084,838,924
4085,837,925
4086,834,924
4087,834,924
4088,836,925
4089,837,924
4090,841,926
4091,842,925
4092,843,930
4093,846,929
4094,847,929
4095,846,927
4096,847,926
4097,844,923
4098,845,922
4099,844,925
4100,843,922
4101,847,923
4102,846,924
4103,848,925
4104,851,926
4105,851,928
4106,851,925
4107,853,925
4108,852,923
4109,851,925
4110,848,924
4111,846,924
4112,847,923
4113,847,923
4114,846,928
4115,852,926
4116,851,928
4117,856,927
4118,856,927
4119,854,925
4120,855,922
4121,852,922
4122,851,918
4123,848,918
4124,847,917
4125,849,920
4126,848,918
4127,849,921
4128,848,922
4129,850,926
4130,852,920
4131,846,922
4132,846,923
4133,845,918
4134,845,920
4135,846,919
4136,843,922
4137,843,919
4138,846,921
4139,846,924
4140,844,924
4141,848,925
4142,846,924
4143,845,924
4144,845,922
4145,845,919
4146,846,920
4147,843,916
4148,840,916
4149,839,916
4150,841,917
4151,844,920
4152,845,923
4153,847,925
4154,847,923
4155,844,923
4156,844,924
4157,840,922
4158,844,919
4159,841,917
4160,836,918
4161,841,917
4162,840,919
4163,843,918
4164,844,923
4165,847,921
4166,846,925
4167,844,919
4168,842,918
4169,844,916
4170,840,916
4171,839,915
4172,839,911
4173,841,914
4174,839,915
4175,843,919
4176,845,925
4177,846,922
4178,847,923
4179,847,923
4180,845,924
4181,845,920
4182,841,923
4183,844,920
4184,846,917
4185,849,922
4186,857,927
4187,862,929
4188,866,932
4189,869,937
4190,871,935
4191,872,937
4192,875,933
4193,877,934
4194,878,931
4195,882,933
4196,888,934
4197,897,938
4198,905,942
4199,911,939
4200,916,935
4201,914,934
4202,915,929
4203,909,922
4204,907,917
4205,905,916
4206,906,913
4207,901,913
4208,897,908
4209,893,912
4210,884,911
4211,874,913
4212,865,913
4213,856,917
4214,846,918
4215,842,912
4216,834,910
4217,833,911
4218,834,905
4219,832,908
4220,831,905
4221,833,910
4222,835,907
4223,835,911
4224,834,916
4225,836,914
4226,837,913
4227,836,910
4228,833,912
4229,830,907
4230,829,907
4231,829,908
4232,829,904
4233,830,903
4234,832,909
4235,832,908
4236,832,912
4237,832,912
4238,836,911
4239,835,908
4240,838,909
4241,831,909
4242,832,907
4243,833,907
4244,830,910
4245,825,914
4246,821,919
4247,826,925
4248,833,938
4249,850,955
4250,879,959
4251,925,954
4252,981,944
4253,1053,916
4254,1129,884
4255,1192,837
4256,1243,787
4257,1265,745
4258,1271,714
4259,1253,694
4260,1213,690
4261,1153,701
4262,1054,711
4263,951,727
4264,865,744
4265,816,764
4266,810,787
4267,828,807
4268,854,823
4269,872,843
4270,885,861
4271,881,874
4272,870,890
4273,858,898
4274,849,907
4275,839,912
4276,836,909
4277,836,910
4278,834,911
4279,833,913
4280,833,912
4281,833,918
4282,831,921
4283,833,921
4284,833,927
4285,831,926
4286,830,931
4287,827,930
4288,828,930
4289,826,929
4290,829,926
4291,828,923
4292,828,924
4293,827,923
4294,829,928
4295,827,930
4296,832,931
4297,835,935
4298,834,934
4299,829,932
4300,828,931
4301,829,928
4302,828,926
4303,827,925
4304,825,927
4305,829,926
4306,826,929
4307,831,931
4308,832,934
4309,835,937
4310,835,938
4311,832,938
4312,834,937
4313,833,935
4314,832,935
4315,831,932
4316,830,930
4317,834,935
4318,833,933
4319,837,938
4320,838,939
4321,842,938
4322,845,940
4323,843,935
4324,839,937
4325,842,935
4326,840,931
4327,842,935
4328,844,933
4329,842,933
4330,849,934
4331,853,942
4332,858,945
4333,862,947
4334,866,943
4335,868,945
4336,869,940
4337,865,940
4338,866,938
4339,872,938
4340,876,934
4341,877,937
4342,880,939
4343,886,940
4344,891,944
4345,901,946
4346,903,946
4347,903,941
4348,908,941
4349,910,938
4350,915,938
4351,916,935
4352,922,935
4353,923,936
4354,930,940
4355,939,942
4356,943,940
4357,951,943
4358,951,938
4359,953,941
4360,955,935
4361,954,937
4362,956,929
4363,959,931
4364,956,930
4365,957,928
4366,961,929
4367,965,928
4368,963,931
4369,962,932
4370,958,934
4371,953,932
4372,946,932
4373,939,931
4374,931,931
4375,928,930
4376,921,930
4377,912,933
4378,906,935
4379,900,940
4380,897,942
4381,895,941
4382,888,941
4383,883,939
4384,879,932
4385,874,937
4386,866,931
4387,862,933
4388,859,931
4389,856,930
4390,855,930
4391,855,931
4392,856,932
4393,853,934
4394,852,933
4395,848,931
4396,844,931
4397,844,929
4398,842,930
4399,839,929
4400,838,925
4401,836,927
4402,839,930
4403,839,931
4404,843,932
4405,845,937
4406,845,934
4407,843,933
4408,844,933
4409,842,929
4410,839,930
4411,838,927
4412,838,924
4413,838,927
4414,841,926
4415,844,932
4416,846,931
4417,841,932
4418,843,931
4419,849,934
4420,850,931
4421,849,933
4422,847,934
4423,846,933
4424,841,934
4425,843,937
4426,843,941
4427,846,946
4428,848,951
4429,856,958
4430,867,965
4431,884,972
4432,904,976
4433,932,969
4434,962,954
4435,993,925
4436,1026,893
4437,1065,857
4438,1100,829
4439,1142,799
4440,1188,769
4441,1232,735
4442,1276,694
4443,1319,653
4444,1351,618
4445,1376,587
4446,1397,568
4447,1406,558
4448,1413,558
4449,1415,559
4450,1413,563
4451,1413,566
4452,1405,574
4453,1393,582
4454,1376,585
4455,1359,600
4456,1349,616
4457,1342,634
4458,1344,651
4459,1342,668
4460,1334,688
4461,1319,706
4462,1300,725
4463,1271,746
4464,1239,764
4465,1200,781
4466,1156,796
4467,1094,811
4468,1018,827
4469,943,843
4470,877,863
4471,831,885
4472,808,907
4473,805,927
4474,801,937
4475,809,946
4476,811,950
4477,808,953
4478,805,954
4479,793,952
4480,782,957
4481,774,959
4482,765,957
4483,761,962
4484,758,963
4485,757,966
4486,756,970
4487,755,974
4488,749,978
4489,748,981
4490,749,984
4491,748,985
4492,746,983
4493,742,984
4494,737,984
4495,734,980
4496,731,986
4497,733,988
4498,734,991
4499,736,998
4500,737,1001
4501,740,1008
4502,741,1010
4503,742,1010
4504,739,1013
4505,740,1014
4506,737,1013
4507,734,1015
4508,737,1017
4509,740,1021
4510,739,1028
4511,743,1031
4512,747,1031
4513,748,1028
4514,746,1027
4515,741,1023
4516,735,1020
4517,729,1025
4518,722,1023
4519,720,1025
4520,716,1031
4521,709,1034
4522,699,1038
4523,689,1046
4524,678,1050
4525,665,1054
4526,651,1060
4527,638,1064
4528,625,1063
4529,610,1067
4530,600,1074
4531,597,1077
4532,593,1078
4533,589,1082
4534,588,1091
4535,583,1099
4536,578,1102
4537,577,1103
4538,576,1108
4539,571,1109
4540,565,1110
4541,559,1111
4542,555,1106
4543,551,1104
4544,553,1103
4545,551,1103
4546,554,1103
4547,554,1102
4548,555,1103
4549,558,1101
4550,562,1098
4551,563,1091
4552,567,1089
4553,573,1081
4554,579,1077
4555,584,1067
4556,589,1060
4557,598,1059
4558,608,1056
4559,618,1047
4560,627,1045
4561,636,1039
4562,648,1033
4563,657,1027
4564,669,1016
4565,679,1012
4566,690,1000
4567,698,994
4568,704,984
4569,720,979
4570,731,973
4571,739,970
4572,749,966
4573,754,966
4574,762,962
4575,766,960
4576,774,957
4577,774,954
4578,775,952
4579,776,947
4580,779,945
4581,779,942
4582,782,946
4583,785,947
4584,786,947
4585,787,948
4586,788,946
4587,785,947
4588,786,942
4589,783,944
4590,784,939
4591,782,939
4592,780,939
4593,783,938
4594,783,939
4595,782,944
4596,782,946
4597,789,950
4598,789,951
4599,789,948
4600,786,948
4601,784,945
4602,783,944
4603,781,941
4604,782,940
4605,788,942
4606,787,944
4607,790,943
4608,792,947
4609,796,946
4610,797,945
4611,796,946
4612,792,944
4613,792,940
4614,792,941
4615,792,936
4616,791,936
4617,796,937
4618,797,941
4619,797,942
4620,801,944
4621,800,947
4622,804,941
4623,806,942
4624,803,941
4625,803,937
4626,802,936
4627,801,936
4628,800,934
4629,800,936
4630,801,937
4631,807,937
4632,806,939
4633,809,937
4634,807,938
4635,808,938
4636,806,935
4637,807,933
4638,804,930
4639,804,933
4640,802,933
4641,804,931
4642,808,936
4643,810,937
4644,812,940
4645,812,941
4646,811,943
4647,811,937
4648,810,937
4649,807,934
4650,805,933
4651,806,931
4652,807,931
4653,808,930
4654,809,931
4655,813,934
4656,812,939
4657,814,936
4658,815,934
4659,815,934
4660,812,934
4661,813,929
4662,811,928
4663,809,926
4664,809,928
4665,813,925
4666,815,929
4667,815,929
4668,814,932
4669,816,934
4670,817,931
4671,820,934
4672,818,932
4673,818,926
4674,816,926
4675,814,925
4676,815,924
4677,815,926
4678,818,924
4679,819,927
4680,818,929
4681,820,932
4682,824,936
4683,820,935
4684,819,929
4685,817,930
4686,817,927
4687,814,925
4688,816,925
4689,816,924
4690,816,925
4691,821,928
4692,822,928
4693,825,929
4694,828,931
4695,825,928
4696,823,926
4697,822,923
4698,818,920
4699,817,922
4700,818,921
4701,818,922
4702,820,925
4703,819,925
4704,825,931
4705,825,931
4706,826,929
4707,828,932
4708,828,929
4709,824,924
4710,821,925
4711,819,924
4712,816,919
4713,819,924
4714,822,924
4715,823,928
4716,824,927
4717,831,928
4718,830,927
4719,831,927
4720,827,925
4721,824,924
4722,824,924
4723,827,919
4724,826,920
4725,826,922
4726,828,926
4727,831,924
4728,832,930
4729,832,928
4730,834,925
4731,831,930
4732,832,929
4733,832,924
4734,830,925
4735,828,923
4736,828,924
4737,829,919
4738,828,922
4739,829,922
4740,834,926
4741,834,926
4742,836,928
4743,835,930
4744,833,926
4745,833,927
4746,831,927
4747,830,927
4748,831,922
4749,830,923
4750,834,928
4751,839,927
4752,836,927
4753,837,929
4754,838,930
4755,837,932
4756,835,927
4757,832,924
4758,835,922
4759,832,919
4760,830,920
4761,831,922
4762,834,922
4763,836,924
4764,837,931
4765,841,927
4766,842,930
4767,839,928
4768,839,929
4769,840,926
4770,840,926
4771,836,924
4772,837,924
4773,836,925
4774,839,927
4775,840,927
4776,837,925
4777,840,929
4778,844,927
4779,843,925
4780,842,927
4781,841,922
4782,840,923
4783,839,918
4784,840,919
4785,840,921
4786,838,923
4787,841,926
4788,843,927
4789,844,929
4790,846,929
4791,843,932
4792,848,929
4793,848,926
4794,844,925
4795,843,919
4796,842,921
4797,840,920
4798,842,919
4799,844,924
4800,846,925
4801,846,927
4802,846,924
4803,850,925
4804,845,926
4805,844,923
4806,845,919
4807,843,918
4808,842,919
4809,843,921
4810,842,922
4811,844,928
4812,845,927
4813,846,931
4814,852,931
4815,849,931
4816,849,929
4817,846,927
4818,843,923
4819,846,920
4820,844,925
4821,844,921
4822,845,925
4823,848,927
4824,846,926
4825,850,927
4826,850,931
4827,849,927
4828,849,926
4829,847,924
4830,845,924
4831,845,924
4832,849,921
4833,847,925
4834,847,928
4835,853,931
4836,856,935
4837,856,934
4838,860,935
4839,862,936
4840,863,933
4841,867,934
4842,870,934
4843,873,932
4844,877,936
4845,877,939
4846,878,938
4847,883,943
4848,888,944
4849,896,946
4850,908,947
4851,915,947
4852,922,947
4853,923,940
4854,917,934
4855,913,930
4856,909,926
4857,911,922
4858,913,923
4859,915,926
4860,917,926
4861,918,924
4862,915,926
4863,905,926
4864,892,920
4865,880,920
4866,868,920
4867,860,921
4868,851,918
4869,845,918
4870,847,918
4871,848,918
4872,849,919
4873,853,920
4874,852,918
4875,854,917
4876,851,918
4877,848,916
4878,844,917
4879,845,916
4880,842,914
4881,840,914
4882,846,918
4883,846,916
4884,847,918
4885,850,922
4886,851,920
4887,848,920
4888,846,921
4889,844,916
4890,843,917
4891,844,911
4892,840,915
4893,837,917
4894,832,922
4895,837,929
4896,849,942
4897,867,952
4898,899,961
4899,942,959
4900,999,951
4901,1064,932
4902,1136,904
4903,1200,870
4904,1257,826
4905,1287,785
4906,1298,749
4907,1290,726
4908,1266,719
4909,1216,721
4910,1145,731
4911,1049,737
4912,947,747
4913,867,759
4914,828,775
4915,821,793
4916,846,809
4917,871,828
4918,894,844
4919,903,860
4920,895,874
4921,885,887
4922,876,901
4923,859,909
4924,853,915
4925,845,917
4926,843,917
4927,845,915
4928,846,917
4929,845,920
4930,840,921
4931,843,924
4932,845,929
4933,846,930
4934,844,930
4935,844,932
4936,842,932
4937,841,930
4938,840,928
4939,839,927
4940,835,927
4941,836,928
4942,832,930
4943,833,934
4944,837,932
4945,837,935
4946,839,935
4947,839,934
4948,841,935
4949,839,934
4950,835,932
4951,835,928
4952,835,930
4953,836,932
4954,837,934
4955,839,934
4956,840,938
4957,842,940
4958,840,938
4959,843,940
4960,843,940
4961,841,936
4962,837,935
4963,835,932
4964,838,931
4965,836,935
4966,838,939
4967,842,940
4968,844,943
4969,845,944
4970,851,945
4971,850,946
4972,848,948
4973,849,946
4974,846,942
4975,847,942
4976,846,937
4977,848,943
4978,847,945
4979,850,946
4980,855,946
4981,858,950
4982,858,949
4983,857,946
4984,855,946
4985,855,944
4986,860,946
4987,862,942
4988,860,945
4989,859,943
4990,864,949
4991,873,950
4992,876,954
4993,882,957
4994,886,957
4995,888,955
4996,891,956
4997,896,956
4998,894,953
4999,897,950
5000,901,951
5001,901,955
5002,906,955
5003,912,955
5004,917,954
5005,920,956
5006,925,956
5007,927,955
5008,933,953
5009,935,948
5010,935,947
5011,937,945
5012,941,945
5013,942,946
5014,946,949
5015,952,951
5016,955,948
5017,957,950
5018,964,950
5019,965,947
5020,968,949
5021,965,944
5022,964,941
5023,964,941
5024,963,936
5025,959,935
5026,959,938
5027,954,940
5028,954,941
5029,948,941
5030,946,941
5031,942,942
5032,933,939
5033,927,939
5034,922,938
5035,916,937
5036,910,935
5037,903,934
5038,901,939
5039,896,938
5040,896,938
5041,889,940
5042,892,941
5043,888,939
5044,881,938
5045,880,936
5046,875,934
5047,873,928
5048,871,927
5049,867,927
5050,869,927
5051,867,931
5052,865,935
5053,867,935
5054,868,937
5055,867,936
5056,866,933
5057,866,933
5058,866,932
5059,868,933
5060,865,931
5061,863,929
5062,865,934
5063,866,932
5064,867,933
5065,870,934
5066,871,935
5067,869,936
5068,870,936
5069,868,931
5070,867,928
5071,868,927
5072,867,923
5073,868,924
5074,867,925
5075,869,930
5076,873,931
5077,876,932
5078,875,934
5079,876,935
5080,874,936
5081,874,930
5082,872,930
5083,870,928
5084,867,925
5085,869,926
5086,869,928
5087,875,927
5088,876,934
5089,878,933
5090,879,933
5091,880,932
5092,880,929
5093,876,930
5094,869,926
5095,870,925
5096,871,923
5097,868,927
5098,866,923
5099,869,926
5100,871,928
5101,872,931
5102,873,933
5103,872,930
5104,869,926
5105,869,928
5106,864,924
5107,864,925
5108,867,926
5109,862,927
5110,863,926
5111,864,929
5112,864,930
5113,866,933
5114,867,931
5115,867,931
5116,865,930
5117,862,927
5118,860,928
5119,859,927
5120,857,924
5121,854,925
5122,852,924
5123,857,929
5124,859,930
5125,862,934
5126,862,936
5127,863,934
5128,858,933
5129,856,930
5130,855,927
5131,855,924
5132,853,923
5133,851,924
5134,853,924
5135,855,928
5136,856,927
5137,857,928
5138,859,929
5139,858,929
5140,858,928
5141,857,924
5142,856,920
5143,856,923
5144,854,921
5145,854,922
5146,852,925
5147,856,928
5148,854,925
5149,858,933
5150,859,930
5151,856,928
5152,857,929
5153,854,925
5154,853,922
5155,851,922
5156,851,921
5157,852,922
5158,852,922
5159,855,924
5160,857,924
5161,856,926
5162,856,926
5163,857,926
5164,857,924
5165,856,923
5166,854,923
5167,855,921
5168,856,923
5169,858,926
5170,866,929
5171,869,936
5172,875,937
5173,879,941
5174,882,943
5175,886,942
5176,888,944
5177,889,943
5178,890,942
5179,897,941
5180,907,940
5181,913,941
5182,920,935
5183,924,935
5184,926,934
5185,922,931
5186,922,928
5187,921,925
5188,920,924
5189,918,923
5190,912,920
5191,906,916
5192,897,914
5193,887,914
5194,877,913
5195,868,916
5196,859,921
5197,854,925
5198,855,920
5199,852,922
5200,847,919
5201,844,916
5202,841,911
5203,843,909
5204,846,908
5205,843,908
5206,845,910
5207,844,912
5208,844,913
5209,845,917
5210,844,919
5211,843,918
5212,843,920
5213,841,917
5214,840,915
5215,840,911
5216,837,911
5217,837,911
5218,839,913
5219,840,918
5220,844,918
5221,846,918
5222,847,919
5223,849,915
5224,849,918
5225,848,914
5226,842,915
5227,838,912
5228,830,916
5229,826,926
5230,834,932
5231,852,949
5232,885,960
5233,931,962
5234,992,954
5235,1065,933
5236,1142,902
5237,1213,858
5238,1259,809
5239,1286,763
5240,1287,730
5241,1263,712
5242,1217,706
5243,1141,719
5244,1039,734
5245,937,749
5246,859,764
5247,819,782
5248,816,801
5249,840,818
5250,866,834
5251,884,844
5252,892,856
5253,888,867
5254,876,882
5255,862,898
5256,854,907
5257,846,917
5258,846,922
5259,845,922
5260,847,923
5261,846,921
5262,844,923
5263,843,920
5264,840,922
5265,834,924
5266,839,926
5267,841,930
5268,843,930
5269,841,934
5270,841,932
5271,843,932
5272,844,932
5273,839,931
5274,837,934
5275,837,928
5276,837,931
5277,836,930
5278,835,935
5279,840,935
5280,841,937
5281,840,939
5282,838,941
5283,840,939
5284,836,940
5285,837,937
5286,834,935
5287,832,932
5288,830,931
5289,833,934
5290,834,933
5291,837,935
5292,837,936
5293,839,940
5294,844,940
5295,843,940
5296,845,941
5297,840,936
5298,839,938
5299,838,937
5300,838,939
5301,838,938
5302,841,939
5303,842,941
5304,844,942
5305,846,943
5306,852,943
5307,853,943
5308,853,944
5309,855,940
5310,853,939
5311,852,939
5312,856,936
5313,853,938
5314,858,938
5315,861,940
5316,867,941
5317,868,943
5318,873,945
5319,874,945
5320,875,945
5321,882,944
5322,881,943
5323,884,940
5324,887,937
5325,893,939
5326,893,939
5327,897,940
5328,903,944
5329,909,942
5330,917,946
5331,925,944
5332,925,941
5333,927,938
5334,931,936
5335,934,933
5336,934,933
5337,934,933
5338,937,931
5339,945,934
5340,949,936
5341,955,939
5342,954,939
5343,954,937
5344,957,937
5345,955,934
5346,958,933
5347,959,927
5348,958,925
5349,957,926
5350,953,927
5351,955,928
5352,954,932
5353,952,933
5354,948,933
5355,945,936
5356,939,935
5357,933,932
5358,925,930
5359,914,928
5360,907,933
5361,900,933
5362,895,935
5363,891,939
5364,882,939
5365,882,941
5366,881,941
5367,878,943
5368,870,942
5369,866,936
5370,861,936
5371,855,933
5372,851,936
5373,847,933
5374,847,933
5375,845,932
5376,846,936
5377,846,935
5378,848,937
5379,845,938
5380,843,935
5381,843,935
5382,841,930
5383,840,930
5384,838,930
5385,837,931
5386,835,931
5387,836,934
5388,839,936
5389,839,935
5390,844,937
5391,839,938
5392,838,937
5393,842,936
5394,842,933
5395,841,932
5396,840,929
5397,841,931
5398,841,930
5399,837,930
5400,844,931
5401,845,935
5402,847,936
5403,847,935
5404,848,935
5405,843,936
5406,843,934
5407,845,933
5408,843,933
5409,843,934
5410,847,933
5411,851,934
5412,851,936
5413,852,938
5414,857,938
5415,855,939
5416,856,935
5417,853,935
5418,849,933
5419,845,932
5420,848,929
5421,845,929
5422,843,931
5423,847,933
5424,850,933
5425,850,935
5426,848,938
5427,852,936
5428,849,936
5429,848,932
5430,850,933
5431,847,933
5432,846,931
5433,846,930
5434,843,933
5435,847,934
5436,849,934
5437,845,933
5438,849,937
5439,850,935
5440,849,935
5441,847,934
5442,843,932
5443,840,929
5444,836,929
5445,839,928
5446,840,930
5447,840,932
5448,843,932
5449,844,936
5450,848,938
5451,847,937
5452,845,936
5453,844,934
5454,843,935
5455,841,932
5456,839,927
5457,838,925
5458,838,929
5459,837,928
5460,839,933
5461,841,930
5462,843,934
5463,844,935
5464,845,931
5465,841,929
5466,839,929
5467,840,923
5468,837,925
5469,834,925
5470,833,927
5471,837,931
5472,840,933
5473,842,935
5474,845,936
5475,846,937
5476,846,938
5477,847,935
5478,848,933
5479,850,932
5480,851,929
5481,852,932
5482,858,938
5483,859,941
5484,863,940
5485,868,947
5486,872,947
5487,872,947
5488,876,942
5489,878,945
5490,883,943
5491,886,945
5492,895,943
5493,900,945
5494,907,945
5495,908,944
5496,909,945
5497,908,940
5498,907,939
5499,908,935
5500,904,931
5501,907,925
5502,903,924
5503,900,922
5504,893,919
5505,883,917
5506,876,920
5507,866,921
5508,858,921
5509,848,926
5510,844,929
5511,841,928
5512,837,925
5513,837,925
5514,836,921
5515,832,919
5516,832,921
5517,833,918
5518,832,919
5519,833,921
5520,833,923
5521,830,925
5522,834,925
5523,831,925
5524,831,924
5525,830,921
5526,828,923
5527,830,920
5528,829,917
5529,831,914
5530,830,917
5531,833,918
5532,837,920
5533,840,923
5534,841,923
5535,837,921
5536,835,922
5537,834,923
5538,827,924
5539,824,921
5540,818,923
5541,821,930
5542,824,937
5543,838,947
5544,863,959
5545,898,966
5546,947,961
5547,1008,949
5548,1078,928
5549,1151,898
5550,1211,856
5551,1255,812
5552,1271,773
5553,1270,742
5554,1246,728
5555,1194,728
5556,1112,733
5557,1006,745
5558,907,764
5559,838,779
5560,804,797
5561,810,813
5562,834,826
5563,860,840
5564,875,851
5565,877,867
5566,869,880
5567,858,890
5568,850,902
5569,841,913
5570,839,921
5571,838,922
5572,835,920
5573,835,920
5574,833,919
5575,832,919
5576,832,918
5577,831,919
5578,830,921
5579,831,925
5580,835,928
5581,836,933
5582,837,933
5583,837,935
5584,834,933
5585,833,933
5586,831,930
5587,831,931
5588,828,928
5589,824,930
5590,826,927
5591,827,928
5592,831,933
5593,828,933
5594,829,937
5595,827,937
5596,833,937
5597,833,933
5598,832,932
5599,832,931
5600,829,930
5601,832,929
5602,832,931
5603,830,935
5604,837,940
5605,835,942
5606,839,945
5607,840,942
5608,839,941
5609,841,938
5610,840,935
5611,838,938
5612,836,934
5613,833,935
5614,837,936
5615,835,938
5616,843,942
5617,846,942
5618,851,943
5619,853,941
5620,847,941
5621,847,941
5622,845,939
5623,851,938
5624,850,936
5625,852,935
5626,854,938
5627,858,941
5628,860,944
5629,866,948
5630,868,948
5631,871,946
5632,872,945
5633,873,941
5634,875,944
5635,873,942
5636,875,942
5637,879,940
5638,881,943
5639,886,942
5640,893,944
5641,896,945
5642,900,945
5643,907,943
5644,909,941
5645,911,945
5646,916,939
5647,917,937
5648,922,938
5649,923,938
5650,926,938
5651,930,939
5652,939,943
5653,940,945
5654,945,946
5655,948,943
5656,949,940
5657,950,940
5658,948,937
5659,952,939
5660,953,934
5661,955,933
5662,955,932
5663,958,933
5664,961,934
5665,961,936
5666,961,937
5667,959,937
5668,953,935
5669,944,936
5670,939,931
5671,929,935
5672,928,936
5673,920,934
5674,914,937
5675,908,940
5676,902,944
5677,899,943
5678,893,949
5679,889,946
5680,885,942
5681,875,943
5682,871,938
5683,867,934
5684,864,935
5685,859,935
5686,857,935
5687,856,934
5688,852,936
5689,852,938
5690,856,940
5691,855,940
5692,853,934
5693,848,937
5694,846,932
5695,844,931
5696,843,933
5697,845,927
5698,842,935
5699,839,930
5700,843,934
5701,843,935
5702,845,937
5703,845,938
5704,844,936
5705,843,935
5706,843,934
5707,837,930
5708,834,931
5709,836,930
5710,837,929
5711,836,931
5712,840,931
5713,845,934
5714,845,936
5715,847,939
5716,848,937
5717,847,936
5718,845,934
5719,844,931
5720,844,930
5721,846,931
5722,845,929
5723,845,930
5724,848,935
5725,849,935
5726,851,937
5727,854,934
5728,855,933
5729,856,932
5730,853,927
5731,851,927
5732,852,925
5733,853,925
5734,853,926
5735,853,928
5736,856,929
5737,857,933
5738,860,933
5739,859,933
5740,858,934
5741,858,930
5742,855,927
5743,855,927
5744,851,926
5745,852,926
5746,853,929
5747,851,928
5748,855,929
5749,855,929
5750,856,933
5751,855,932
5752,854,929
5753,851,928
5754,849,923
5755,848,922
5756,846,918
5757,842,919
5758,844,917
5759,848,921
5760,848,924
5761,846,927
5762,848,930
5763,852,928
5764,850,930
5765,848,929
5766,847,927
5767,844,927
5768,843,923
5769,841,924
5770,841,926
5771,840,927
5772,843,927
5773,846,929
5774,844,931
5775,844,927
5776,845,929
5777,843,923
5778,844,925
5779,841,922
5780,839,921
5781,837,918
5782,840,920
5783,841,922
5784,842,926
5785,842,928
5786,845,930
5787,845,927
5788,844,930
5789,843,927
5790,843,925
5791,838,922
5792,834,921
5793,832,921
5794,835,922
5795,839,922
5796,840,925
5797,841,925
5798,844,926
5799,845,928
5800,844,926
5801,844,926
5802,841,921
5803,838,921
5804,838,921
5805,844,920
5806,841,924
5807,844,929
5808,851,932
5809,861,937
5810,867,939
5811,868,939
5812,873,939
5813,875,939
5814,875,942
5815,876,938
5816,878,939
5817,881,941
5818,887,942
5819,893,943
5820,904,944
5821,913,945
5822,919,941
5823,917,934
5824,913,928
5825,909,923
5826,907,919
5827,904,917
5828,903,916
5829,903,920
5830,900,917
5831,900,918
5832,895,918
5833,888,920
5834,879,921
5835,865,918
5836,853,920
5837,841,918
5838,842,919
5839,840,916
5840,837,917
5841,833,913
5842,834,913
5843,834,915
5844,837,917
5845,834,916
5846,835,920
5847,836,917
5848,835,916
5849,833,913
5850,830,913
5851,829,911
5852,830,913
5853,827,914
5854,829,912
5855,828,916
5856,831,916
5857,833,917
5858,831,917
5859,830,919
5860,830,919
5861,831,914
5862,830,914
5863,829,913
5864,831,915
5865,832,912
5866,830,914
5867,831,912
5868,834,914
5869,827,918
5870,824,923
5871,823,930
5872,825,936
5873,838,948
5874,865,957
5875,901,959
5876,950,955
5877,1018,935
5878,1092,909
5879,1169,873
5880,1234,830
5881,1277,782
5882,1294,745
5883,1292,714
5884,1262,700
5885,1208,696
5886,1120,701
5887,1018,712
5888,913,727
5889,838,746
5890,807,767
5891,812,792
5892,839,816
5893,869,837
5894,883,852
5895,888,869
5896,882,882
5897,869,891
5898,853,901
5899,840,908
5900,834,911
5901,832,914
5902,830,914
5903,831,917
5904,834,922
5905,835,923
5906,838,927
5907,835,927
5908,834,925
5909,834,924
5910,833,927
5911,831,924
5912,827,924
5913,827,922
5914,827,922
5915,829,927
5916,831,926
5917,833,929
5918,833,931
5919,836,931
5920,835,931
5921,834,930
5922,830,928
5923,831,926
5924,829,925
5925,826,927
5926,827,929
5927,831,930
5928,831,932
5929,832,933
5930,833,937
5931,836,934
5932,836,932
5933,834,935
5934,833,932
5935,833,932
5936,832,927
5937,832,928
5938,834,925
5939,833,932
5940,835,929
5941,836,935
5942,838,940
5943,837,937
5944,838,936
5945,839,938
5946,840,937
5947,840,936
5948,839,931
5949,841,932
5950,844,933
5951,846,933
5952,847,936
5953,853,938
5954,856,939
5955,855,940
5956,859,941
5957,861,937
5958,856,937
5959,857,934
5960,857,935
5961,858,933
5962,867,937
5963,869,939
5964,874,940
5965,878,945
5966,882,950
5967,888,948
5968,892,949
5969,897,944
5970,899,944
5971,900,942
5972,901,939
5973,906,941
5974,912,941
5975,914,944
5976,923,948
5977,925,945
5978,931,948
5979,940,945
5980,942,943
5981,945,941
5982,947,938
5983,949,939
5984,952,937
5985,952,936
5986,957,936
5987,960,943
5988,965,942
5989,968,942
5990,970,944
5991,970,944
5992,969,938
5993,972,935
5994,968,934
5995,962,929
5996,958,927
5997,954,925
5998,950,929
5999,948,932
6000,942,935
6001,937,936
6002,930,940
6003,927,941
6004,919,940
6005,914,936
6006,906,935
6007,899,936
6008,893,934
6009,885,931
6010,880,934
6011,878,934
6012,875,938
6013,873,937
6014,869,941
6015,869,934
6016,865,932
6017,863,932
6018,860,928
6019,857,927
6020,853,926
6021,850,925
6022,848,927
6023,849,926
6024,851,927
6025,852,930
6026,851,931
6027,852,927
6028,851,929
6029,849,928
6030,849,926
6031,846,923
6032,845,927
6033,846,928
6034,845,926
6035,842,927
6036,848,931
6037,848,929
6038,853,929
6039,852,932
6040,853,931
6041,853,929
6042,850,925
6043,848,924
6044,845,922
6045,846,921
6046,848,919
6047,849,924
6048,851,927
6049,855,924
6050,857,928
6051,858,931
6052,857,929
6053,857,930
6054,857,930
6055,857,926
6056,853,924
6057,848,923
6058,849,924
6059,852,924
6060,854,925
6061,857,925
6062,857,926
6063,860,927
6064,859,926
6065,859,925
6066,856,923
6067,855,921
6068,856,918
6069,853,917
6070,849,919
6071,848,920
6072,851,923
6073,850,923
6074,855,924
6075,856,927
6076,852,928
6077,856,927
6078,853,922
6079,851,920
6080,851,917
6081,849,918
6082,847,920
6083,849,921
6084,850,922
6085,846,924
6086,856,926
6087,853,926
6088,850,924
6089,853,923
6090,850,922
6091,848,919
6092,847,914
6093,847,915
6094,847,916
6095,848,917
6096,849,920
6097,849,924
6098,849,924
6099,850,923
6100,848,925
6101,844,922
6102,845,921
6103,846,918
6104,842,917
6105,843,913
6106,841,919
6107,844,920
6108,845,922
6109,846,919
6110,850,921
6111,849,921
6112,849,920
6113,846,919
6114,847,914
6115,844,913
6116,843,911
6117,840,912
6118,839,915
6119,839,914
6120,844,913
6121,847,920
6122,845,922
6123,849,922
6124,848,919
6125,848,920
6126,847,917
6127,845,915
6128,843,914
6129,843,914
6130,844,914
6131,845,918
6132,848,919
6133,854,919
6134,852,919
6135,855,921
6136,854,920
6137,859,923
6138,860,923
6139,861,925
6140,862,923
6141,868,925
6142,867,931
6143,872,933
6144,877,937
6145,882,942
6146,886,945
6147,892,943
6148,897,943
6149,905,941
6150,909,936
6151,909,931
6152,915,925
6153,912,920
6154,910,917
6155,908,917
6156,909,912
6157,912,910
6158,912,915
6159,911,915
6160,904,912
6161,896,913
6162,886,910
6163,871,907
6164,857,909
6165,849,907
6166,842,912
6167,839,913
6168,839,916
6169,842,913
6170,843,917
6171,845,913
6172,841,909
6173,839,910
6174,838,905
6175,838,905
6176,834,901
6177,834,901
6178,832,902
6179,833,905
6180,834,906
6181,835,908
6182,835,911
6183,839,913
6184,839,914
6185,834,913
6186,833,911
6187,832,906
6188,831,906
6189,830,907
6190,829,910
6191,830,909
6192,836,909
6193,838,911
6194,841,915
6195,839,913
6196,838,915
6197,831,914
6198,826,917
6199,820,921
6200,820,927
6201,836,938
6202,857,947
6203,895,953
6204,948,947
6205,1015,936
6206,1090,912
6207,1162,873
6208,1221,830
6209,1262,782
6210,1278,739
6211,1269,711
6212,1238,697
6213,1182,701
6214,1091,713
6215,986,729
6216,884,745
6217,818,764
6218,798,784
6219,807,805
6220,836,818
6221,864,833
6222,879,841
6223,882,852
6224,873,867
6225,855,878
6226,846,889
6227,839,897
6228,834,906
6229,835,913
6230,838,916
6231,839,919
6232,839,920
6233,834,917
6234,836,921
6235,830,919
6236,828,918
6237,826,919
6238,826,922
6239,825,920
6240,829,923
6241,830,926
6242,831,928
6243,833,928
6244,828,928
6245,826,925
6246,826,922
6247,822,922
6248,822,920
6249,823,920
6250,824,922
6251,826,927
6252,827,927
6253,827,933
6254,829,933
6255,834,932
6256,830,932
6257,830,930
6258,828,927
6259,826,926
6260,820,919
6261,824,923
6262,825,921
6263,827,922
6264,827,924
6265,832,923
6266,834,926
6267,837,931
6268,836,929
6269,834,928
6270,836,926
6271,831,928
6272,831,927
6273,832,926
6274,834,930
6275,835,927
6276,841,930
6277,841,934
6278,848,935
6279,851,936
6280,852,934
6281,855,932
6282,851,930
6283,849,930
6284,849,929
6285,853,925
6286,855,926
6287,858,928
6288,860,932
6289,866,932
6290,867,934
6291,874,933
6292,878,937
6293,881,933
6294,882,932
6295,888,933
6296,888,929
6297,892,927
6298,893,929
6299,902,929
6300,909,934
6301,913,930
6302,922,931
6303,926,931
6304,930,927
6305,931,928
6306,931,925
6307,935,925
6308,936,922
6309,941,917
6310,943,919
6311,943,919
6312,949,918
6313,953,921
6314,957,924
6315,961,926
6316,962,925
6317,960,925
6318,959,922
6319,958,920
6320,953,920
6321,953,917
6322,947,921
6323,943,918
6324,940,923
6325,937,928
6326,930,925
6327,926,929
6328,917,931
6329,910,929
6330,900,927
6331,895,930
6332,889,926
6333,879,926
6334,874,927
6335,869,928
6336,869,932
6337,862,933
6338,860,937
6339,858,939
6340,854,937
6341,851,938
6342,848,934
6343,844,930
6344,842,927
6345,838,924
6346,839,926
6347,839,928
6348,838,928
6349,840,930
6350,842,932
6351,842,931
6352,839,928
6353,837,930
6354,836,928
6355,833,923
6356,833,921
6357,830,920
6358,829,921
6359,830,926
6360,833,930
6361,835,934
6362,835,933
6363,836,933
6364,837,930
6365,837,930
6366,835,930
6367,829,925
6368,829,922
6369,831,923
6370,832,923
6371,833,925
6372,837,924
6373,837,928
6374,835,925
6375,835,928
6376,837,927
6377,835,928
6378,835,923
6379,834,921
6380,836,920
6381,842,922
6382,841,921
6383,839,924
6384,840,922
6385,845,926
6386,844,926
6387,845,926
6388,846,926
6389,847,924
6390,846,926
6391,840,923
6392,842,920
6393,840,920
6394,837,920
6395,838,922
6396,843,924
6397,846,928
6398,845,930
6399,849,929
6400,846,931
6401,844,928
6402,845,926
6403,842,923
6404,839,924
6405,839,923
6406,837,920
6407,837,927
6408,839,931
6409,839,928
6410,839,930
6411,842,931
6412,843,929
6413,839,928
6414,837,928
6415,835,924
6416,833,926
6417,832,921
6418,831,921
6419,829,923
6420,832,925
6421,834,930
6422,840,928
6423,842,930
6424,841,928
6425,839,927
6426,839,924
6427,835,926
6428,835,923
6429,836,923
6430,831,920
6431,832,923
6432,831,925
6433,831,929
6434,831,931
6435,836,929
6436,835,926
6437,835,927
6438,832,926
6439,830,922
6440,827,919
6441,829,922
6442,831,922
6443,831,923
6444,835,927
6445,837,929
6446,841,931
6447,845,932
6448,848,934
6449,847,935
6450,852,931
6451,852,933
6452,853,932
6453,855,935
6454,855,932
6455,861,937
6456,864,943
6457,869,940
6458,876,946
6459,886,945
6460,893,944
6461,899,944
6462,903,936
6463,902,930
6464,900,924
6465,900,920
6466,895,916
6467,895,920
6468,893,918
6469,893,922
6470,893,922
6471,889,922
6472,877,921
6473,869,920
6474,858,920
6475,848,916
6476,836,919
6477,833,916
6478,826,915
6479,828,919
6480,828,916
6481,829,918
6482,830,919
6483,831,919
6484,827,917
6485,826,920
6486,823,913
6487,823,913
6488,820,911
6489,818,913
6490,817,915
6491,820,916
6492,822,916
6493,825,923
6494,825,920
6495,828,922
6496,825,922
6497,826,920
6498,820,919
6499,821,916
6500,822,914
6501,823,911
6502,820,912
6503,821,913
6504,822,915
6505,824,914
6506,828,917
6507,825,919
6508,818,924
6509,817,927
6510,820,932
6511,824,938
6512,838,945
6513,865,954
6514,905,960
6515,953,954
6516,1019,940
6517,1094,919
6518,1164,890
6519,1219,849
6520,1252,805
6521,1264,767
6522,1260,742
6523,1233,721
6524,1179,718
6525,1101,726
6526,1002,737
6527,900,751
6528,826,763
6529,792,781
6530,795,803
6531,820,821
6532,849,837
6533,867,850
6534,876,861
6535,866,875
6536,856,884
6537,842,893
6538,828,907
6539,824,914
6540,820,919
6541,819,920
6542,819,924
6543,822,925
6544,824,925
6545,822,928
6546,820,921
6547,817,927
6548,817,924
6549,814,923
6550,808,924
6551,813,924
6552,813,931
6553,817,929
6554,820,934
6555,818,935
6556,818,934
6557,820,936
6558,817,933
6559,818,932
6560,816,933
6561,814,929
6562,812,930
6563,815,932
6564,816,935
6565,820,935
6566,818,937
6567,825,934
6568,824,935
6569,825,935
6570,821,931
6571,821,931
6572,818,926
6573,816,926
6574,820,925
6575,816,927
6576,816,929
6577,822,931
6578,824,937
6579,829,937
6580,826,937
6581,828,936
6582,827,936
6583,827,934
6584,822,931
6585,825,930
6586,825,929
6587,827,927
6588,829,933
6589,832,935
6590,836,937
6591,839,937
6592,841,936
6593,843,933
6594,843,930
6595,842,930
6596,842,927
6597,843,929
6598,843,924
6599,846,928
6600,851,929
6601,853,932
6602,858,934
6603,862,935
6604,864,935
6605,865,937
6606,867,933
6607,868,934
6608,870,928
6609,870,927
6610,875,928
6611,879,933
6612,883,933
6613,892,935
6614,896,937
6615,899,936
6616,905,936
6617,908,933
6618,909,930
6619,911,931
6620,916,931
6621,920,929
6622,923,928
6623,927,933
6624,935,934
6625,939,934
6626,945,932
6627,948,937
6628,948,934
6629,950,934
6630,949,934
6631,955,932
6632,955,927
6633,953,926
6634,953,927
6635,955,924
6636,956,928
6637,957,927
6638,956,932
6639,952,932
6640,949,931
6641,943,932
6642,936,928
6643,927,926
6644,920,926
6645,915,927
6646,908,926
6647,901,928
6648,895,931
6649,894,934
6650,883,935
6651,882,938
6652,877,938
6653,873,940
6654,865,936
6655,857,932
6656,855,927
6657,850,928
6658,850,927
6659,843,928
6660,844,930
6661,845,930
6662,845,928
6663,846,933
6664,843,930
6665,841,928
6666,840,927
6667,835,925
6668,833,920
6669,830,921
6670,829,921
6671,830,922
6672,830,922
6673,834,924
6674,836,927
6675,835,925
6676,835,928
6677,833,927
6678,831,925
6679,829,923
6680,831,921
6681,829,918
6682,830,920
6683,827,925
6684,827,927
6685,832,928
6686,837,928
6687,839,927
6688,839,926
6689,838,923
6690,836,922
6691,837,920
6692,834,922
6693,831,921
6694,832,920
6695,835,922
6696,838,925
6697,840,926
6698,839,928
6699,841,932
6700,843,929
6701,842,928
6702,839,926
6703,838,923
6704,838,923
6705,842,922
6706,842,920
6707,842,922
6708,843,924
6709,846,926
6710,848,929
6711,844,927
6712,847,925
6713,850,922
6714,848,920
6715,847,917
6716,846,915
6717,843,915
6718,845,916
6719,841,919
6720,847,926
6721,846,925
6722,847,929
6723,846,923
6724,846,924
6725,845,924
6726,844,921
6727,840,921
6728,837,920
6729,838,915
6730,839,916
6731,840,917
6732,840,917
6733,841,922
6734,844,922
6735,846,922
6736,847,923
6737,845,920
6738,843,919
6739,839,920
6740,838,915
6741,835,916
6742,834,916
6743,837,917
6744,837,917
6745,836,921
6746,838,922
6747,839,924
6748,841,925
6749,840,925
6750,840,920
6751,837,915
6752,835,915
6753,832,916
6754,833,913
6755,839,918
6756,837,920
6757,839,917
6758,841,920
6759,838,921
6760,837,921
6761,836,917
6762,835,916
6763,834,918
6764,832,915
6765,832,915
6766,834,917
6767,835,918
6768,829,920
6769,834,924
6770,834,921
6771,837,923
6772,839,922
6773,839,923
6774,839,919
6775,840,917
6776,836,915
6777,833,913
6778,833,912
6779,834,915
6780,837,914
6781,839,917
6782,840,916
6783,842,919
6784,843,918
6785,843,920
6786,841,916
6787,839,915
6788,839,916
6789,839,916
6790,840,916
6791,845,917
6792,846,919
6793,852,923
6794,860,931
6795,865,927
6796,869,927
6797,870,930
6798,869,928
6799,867,929
6800,873,930
6801,876,930
6802,878,933
6803,888,934
6804,896,936
6805,903,938
6806,908,936
6807,916,936
6808,918,929
6809,913,924
6810,909,916
6811,906,911
6812,901,906
6813,902,906
6814,897,903
6815,895,904
6816,890,907
6817,883,904
6818,873,907
6819,862,910
6820,852,912
6821,848,907
6822,840,907
6823,837,904
6824,833,902
6825,830,900
6826,832,901
6827,832,899
6828,834,904
6829,833,905
6830,832,906
6831,834,912
6832,836,909
6833,837,908
6834,835,909
6835,834,906
6836,832,902
6837,830,901
6838,831,902
6839,830,903
6840,832,905
6841,835,908
6842,836,911
6843,835,911
6844,839,908
6845,834,907
6846,834,907
6847,834,903
6848,834,900
6849,835,901
6850,833,900
6851,830,902
6852,825,909
6853,824,911
6854,825,925
6855,836,939
6856,858,948
6857,895,955
6858,949,952
6859,1016,934
6860,1094,903
6861,1170,863
6862,1230,816
6863,1270,769
6864,1283,725
6865,1276,697
6866,1245,685
6867,1186,691
6868,1102,699
6869,999,711
6870,898,724
6871,834,743
6872,810,759
6873,816,781
6874,846,803
6875,869,822
6876,885,840
6877,889,858
6878,882,872
6879,870,886
6880,859,895
6881,849,902
6882,840,903
6883,838,909
6884,838,906
6885,836,908
6886,836,904
6887,838,910
6888,835,914
6889,839,916
6890,842,921
6891,837,920
6892,840,921
6893,835,920
6894,836,920
6895,835,918
6896,832,917
6897,832,919
6898,832,919
6899,829,922
6900,830,922
6901,835,925
6902,835,929
6903,838,931
6904,835,931
6905,833,929
6906,833,923
6907,833,920
6908,832,922
6909,830,922
6910,827,921
6911,829,924
6912,834,925
6913,831,929
6914,835,929
6915,838,930
6916,839,928
6917,838,929
6918,839,924
6919,834,926
6920,835,922
6921,832,925
6922,829,926
6923,831,926
6924,835,928
6925,836,929
6926,841,932
6927,842,932
6928,846,931
6929,846,932
6930,847,931
6931,846,926
6932,848,925
6933,846,924
6934,849,925
6935,847,927
6936,852,928
6937,854,926
6938,861,931
6939,862,932
6940,864,934
6941,866,931
6942,870,933
6943,869,932
6944,868,930
6945,872,934
6946,875,931
6947,881,932
6948,886,937
6949,889,937
6950,893,936
6951,900,938
6952,905,938
6953,910,934
6954,913,932
6955,915,932
6956,914,930
6957,919,929
6958,921,925
6959,928,926
6960,933,929
6961,939,934
6962,945,935
6963,950,933
6964,953,932
6965,953,933
6966,957,931
6967,956,928
6968,962,931
6969,960,928
6970,965,927
6971,966,926
6972,970,926
6973,970,928
6974,975,927
6975,977,930
6976,976,929
6977,969,927
6978,963,923
6979,962,925
6980,958,923
6981,949,918
6982,943,918
6983,937,923
6984,936,923
6985,929,924
6986,927,930
6987,920,931
6988,916,932
6989,907,928
6990,901,928
6991,895,925
6992,886,927
6993,881,917
6994,875,920
6995,873,925
6996,873,923
6997,870,924
6998,869,926
6999,867,924
7000,864,924
7001,865,922
7002,861,920
7003,854,919
7004,855,918
7005,850,914
7006,852,916
7007,847,914
7008,848,918
7009,852,919
7010,853,923
7011,852,921
7012,854,925
7013,854,923
7014,851,921
7015,848,917
7016,851,918
7017,851,916
7018,849,915
7019,850,915
7020,851,915
7021,852,919
7022,855,918
7023,856,920
7024,858,920
7025,857,917
7026,856,918
7027,855,915
7028,854,915
7029,853,911
7030,853,911
7031,855,916
7032,853,920
7033,857,918
7034,860,922
7035,860,924
7036,862,923
7037,863,923
7038,861,917
7039,861,919
7040,859,916
7041,858,914
7042,858,912
7043,860,914
7044,861,914
7045,865,915
7046,863,916
7047,869,919
7048,866,915
7049,868,916
7050,866,916
7051,864,913
7052,863,914
7053,859,908
7054,858,914
7055,858,914
7056,857,917
7057,861,915
7058,863,919
7059,861,916
7060,865,918
7061,863,917
7062,858,917
7063,853,912
7064,856,909
7065,854,911
7066,853,910
7067,851,911
7068,854,911
7069,852,913
7070,853,911
7071,856,914
7072,855,917
7073,853,915
7074,852,915
7075,852,909
7076,851,911
7077,847,912
7078,850,910
7079,851,912
7080,848,913
7081,849,916
7082,850,916
7083,852,920
7084,854,915
7085,853,914
7086,853,913
7087,849,911
7088,848,908
7089,846,908
7090,847,906
7091,846,909
7092,847,907
7093,850,908
7094,849,914
7095,852,913
7096,853,913
7097,852,914
7098,851,914
7099,852,911
7100,847,906
7101,847,909
7102,843,908
7103,844,908
7104,844,910
7105,843,912
7106,844,914
7107,849,914
7108,850,913
7109,851,910
7110,851,910
7111,845,909
7112,847,906
7113,844,904
7114,844,906
7115,845,904
7116,844,907
7117,844,911
7118,844,910
7119,847,912
7120,852,914
7121,852,914
7122,852,916
7123,853,913
7124,853,911
7125,854,915
7126,854,913
7127,857,916
7128,860,920
7129,867,925
7130,875,922
7131,878,926
7132,877,925
7133,879,926
7134,884,931
7135,887,926
7136,893,927
7137,902,929
7138,908,926
7139,915,924
7140,919,923
7141,920,915
7142,919,917
7143,918,915
7144,916,914
7145,915,911
7146,915,910
7147,911,907
7148,905,902
7149,898,903
7150,888,899
7151,878,899
7152,869,901
7153,862,903
7154,850,905
7155,849,907
7156,847,905
7157,845,902
7158,844,901
7159,844,898
7160,844,893
7161,839,892
7162,838,890
7163,836,893
7164,837,897
7165,837,899
7166,836,901
7167,838,905
7168,839,904
7169,835,902
7170,837,902
7171,837,898
7172,836,897
7173,835,896
7174,833,893
7175,835,895
7176,836,897
7177,839,904
7178,840,899
7179,838,903
7180,840,902
7181,838,900
7182,839,901
7183,839,897
7184,837,893
7185,836,895
7186,835,894
7187,829,896
7188,823,906
7189,822,908
7190,826,920
7191,839,934
7192,868,944
7193,903,948
7194,953,943
7195,1020,930
7196,1099,903
7197,1172,867
7198,1228,824
7199,1267,779
7200,1281,738
7201,1271,713
7202,1228,702
7203,1159,701
7204,1057,712
7205,946,724
7206,856,744
7207,809,762
7208,802,779
7209,822,800
7210,850,816
7211,873,835
7212,883,851
7213,882,866
7214,868,879
7215,860,893
7216,850,898
7217,840,898
7218,836,901
7219,832,902
7220,833,904
7221,831,901
7222,829,901
7223,830,904
7224,833,909
7225,832,909
7226,833,911
7227,832,913
7228,833,914
7229,833,912
7230,829,913
7231,830,913
7232,830,912
7233,830,913
7234,825,914
7235,826,916
7236,830,917
7237,831,922
7238,830,919
7239,830,923
7240,834,922
7241,832,917
7242,830,920
7243,831,918
7244,829,917
7245,827,917
7246,826,913
7247,827,914
7248,827,912
7249,833,918
7250,833,919
7251,834,922
7252,834,919
7253,836,921
7254,835,922
7255,837,918
7256,835,917
7257,832,919
7258,833,919
7259,835,916
7260,835,917
7261,841,917
7262,841,923
7263,842,921
7264,842,924
7265,842,921
7266,842,916
7267,844,915
7268,844,910
7269,843,913
7270,846,910
7271,847,914
7272,850,917
7273,852,919
7274,859,918
7275,863,923
7276,866,926
7277,866,921
7278,867,923
7279,866,923
7280,867,920
7281,869,917
7282,871,919
7283,878,920
7284,884,920
7285,891,923
7286,894,923
7287,900,925
7288,906,922
7289,908,922
7290,911,920
7291,914,918
7292,916,911
7293,919,913
7294,922,911
7295,928,910
7296,932,913
7297,938,911
7298,944,916
7299,950,917
7300,955,919
7301,958,914
7302,958,917
7303,958,908
7304,954,910
7305,956,906
7306,958,902
7307,958,902
7308,959,907
7309,957,910
7310,954,910
7311,951,912
7312,950,911
7313,943,910
7314,935,911
7315,926,913
7316,919,912
7317,911,913
7318,903,912
7319,894,912
7320,888,916
7321,888,919
7322,883,922
7323,878,923
7324,877,923
7325,872,920
7326,865,919
7327,862,918
7328,856,913
7329,853,909
7330,850,906
7331,848,906
7332,849,908
7333,846,912
7334,847,910
7335,843,913
7336,846,914
7337,843,913
7338,841,911
7339,838,911
7340,837,912
7341,833,910
7342,833,907
7343,834,909
7344,835,910
7345,838,912
7346,841,914
7347,841,915
7348,841,912
7349,839,915
7350,842,913
7351,840,910
7352,836,909
7353,835,906
7354,837,905
7355,843,909
7356,841,909
7357,842,913
7358,842,917
7359,846,918
7360,847,917
7361,847,916
7362,844,914
7363,843,915
7364,843,914
7365,843,912
7366,844,912
7367,844,915
7368,844,918
7369,846,919
7370,850,918
7371,849,920
7372,849,921
7373,850,918
7374,853,914
7375,849,914
7376,849,915
7377,848,911
7378,847,907
7379,848,908
7380,846,916
7381,848,915
7382,849,919
7383,848,923
7384,848,918
7385,849,918
7386,847,919
7387,844,915
7388,846,911
7389,846,912
7390,845,912
7391,841,910
7392,843,915
7393,843,915
7394,845,917
7395,848,916
7396,851,917
7397,848,918
7398,844,914
7399,843,912
7400,839,910
7401,837,907
7402,837,907
7403,837,910
7404,839,913
7405,840,916
7406,840,917
7407,842,918
7408,845,919
7409,845,915
7410,839,915
7411,842,910
7412,840,910
7413,840,906
7414,836,906
7415,835,909
7416,838,911
7417,837,913
7418,843,915
7419,842,913
7420,840,914
7421,844,912
7422,841,912
7423,839,911
7424,839,908
7425,840,909
7426,835,910
7427,838,911
7428,835,909
7429,838,914
7430,837,915
7431,840,916
7432,842,916
7433,842,916
7434,844,916
7435,845,912
7436,853,913
7437,853,914
7438,853,914
7439,859,918
7440,865,921
7441,865,921
7442,871,925
7443,874,927
7444,878,933
7445,883,931
7446,888,932
7447,894,931
7448,900,929
7449,903,927
7450,912,920
7451,914,918
7452,913,914
7453,910,914
7454,913,913
7455,913,912
7456,915,910
7457,915,911
7458,913,909
7459,906,903
7460,899,903
7461,889,900
7462,883,901
7463,871,898
7464,862,903
7465,855,905
7466,847,908
7467,845,908
7468,846,911
7469,843,910
7470,844,908
7471,843,907
7472,841,904
7473,842,899
7474,838,901
7475,837,902
7476,839,904
7477,839,906
7478,842,907
7479,841,907
7480,842,908
7481,841,905
7482,841,903
7483,839,904
7484,837,900
7485,833,896
7486,835,895
7487,836,898
7488,838,897
7489,839,905
7490,837,904
7491,840,904
7492,843,908
7493,841,907
7494,841,905
7495,843,906
7496,840,905
7497,838,903
7498,835,901
7499,833,902
7500,824,906
7501,828,911
7502,830,922
7503,839,935
7504,864,945
7505,892,951
7506,932,949
7507,988,938
7508,1059,916
7509,1131,889
7510,1198,849
7511,1251,809
7512,1283,766
7513,1296,733
7514,1288,709
7515,1257,700
7516,1197,702
7517,1106,708
7518,994,718
7519,897,734
7520,830,749
7521,809,767
7522,822,786
7523,851,807
7524,879,826
7525,893,841
7526,895,856
7527,889,869
7528,878,881
7529,864,886
7530,852,892
7531,849,899
7532,840,899
7533,844,898
7534,844,897
7535,845,901
7536,844,909
7537,842,908
7538,843,911
7539,846,915
7540,847,914
7541,846,918
7542,845,916
7543,842,917
7544,842,912
7545,840,913
7546,841,913
7547,841,917
7548,840,914
7549,842,918
7550,845,920
7551,845,919
7552,845,921
7553,843,919
7554,844,916
7555,845,916
7556,843,912
7557,840,912
7558,840,913
7559,835,911
7560,839,917
7561,843,919
7562,845,921
7563,846,924
7564,849,921
7565,847,920
7566,848,920
7567,846,918
7568,846,919
7569,843,915
7570,842,916
7571,842,917
7572,848,919
7573,847,917
7574,853,918
7575,853,920
7576,860,921
7577,857,921
7578,857,922
7579,855,918
7580,857,911
7581,856,915
7582,858,916
7583,857,920
7584,861,921
7585,866,925
7586,870,924
7587,874,926
7588,877,929
7589,878,926
7590,879,926
7591,878,923
7592,881,920
7593,879,921
7594,882,922
7595,883,921
7596,887,921
7597,892,925
7598,897,925
7599,900,927
7600,904,929
7601,909,928
7602,911,925
7603,915,925
7604,916,920
7605,920,922
7606,923,920
7607,925,923
7608,932,923
7609,939,923
7610,941,927
7611,944,932
7612,949,926
7613,956,924
7614,959,922
7615,961,921
7616,962,916
7617,964,916
7618,962,916
7619,964,915
7620,969,920
7621,971,921
7622,975,923
7623,981,924
7624,983,926
7625,984,921
7626,984,918
7627,978,917
7628,978,914
7629,974,916
7630,969,915
7631,965,918
7632,958,917
7633,957,923
7634,953,924
7635,948,920
7636,942,922
7637,938,923
7638,931,923
7639,924,919
7640,915,921
7641,910,918
7642,902,916
7643,898,916
7644,894,920
7645,891,918
7646,889,917
7647,886,919
7648,883,920
7649,879,917
7650,878,915
7651,874,914
7652,868,914
7653,866,914
7654,860,913
7655,859,912
7656,862,913
7657,863,912
7658,863,915
7659,866,917
7660,860,916
7661,859,914
7662,860,917
7663,861,913
7664,859,912
7665,859,907
7666,858,910
7667,858,908
7668,859,909
7669,860,910
7670,859,911
7671,859,911
7672,863,911
7673,863,914
7674,862,910
7675,862,911
7676,860,910
7677,861,906
7678,862,904
7679,865,906
7680,866,910
7681,866,911
7682,868,912
7683,871,915
7684,872,918
7685,869,917
7686,870,915
7687,870,917
7688,871,920
7689,870,920
7690,871,928
7691,879,936
7692,891,944
7693,911,954
7694,941,957
7695,970,949
7696,1002,934
7697,1036,905
7698,1072,877
7699,1109,843
7700,1148,812
7701,1193,775
7702,1241,737
7703,1285,696
7704,1331,656
7705,1370,616
7706,1401,580
7707,1429,558
7708,1447,542
7709,1452,535
7710,1455,526
7711,1450,522
7712,1441,523
7713,1427,522
7714,1414,526
7715,1397,539
7716,1382,554
7717,1380,577
7718,1381,599
7719,1386,622
7720,1389,640
7721,1386,658
7722,1367,675
7723,1342,694
7724,1311,710
7725,1273,725
7726,1226,745
7727,1165,763
7728,1097,784
7729,1021,802
7730,942,822
7731,878,844
7732,846,868
7733,826,888
7734,827,904
7735,830,917
7736,828,922
7737,828,924
7738,823,925
7739,809,928
7740,799,931
7741,791,942
7742,783,943
7743,780,949
7744,783,950
7745,780,952
7746,778,957
7747,771,956
7748,768,954
7749,760,955
7750,761,955
7751,757,958
7752,756,961
7753,754,965
7754,756,966
7755,752,970
7756,752,972
7757,751,972
7758,747,972
7759,746,973
7760,739,974
7761,738,973
7762,732,976
7763,732,981
7764,730,983
7765,728,990
7766,728,994
7767,727,997
7768,725,1001
7769,725,1000
7770,722,1004
7771,722,1006
7772,718,1008
7773,717,1011
7774,717,1017
7775,715,1021
7776,712,1024
7777,714,1032
7778,714,1039
7779,718,1044
7780,720,1049
7781,719,1055
7782,719,1054
7783,722,1055
7784,718,1057
7785,712,1053
7786,704,1053
7787,698,1050
7788,691,1057
7789,687,1064
7790,683,1066
7791,678,1071
7792,674,1077
7793,660,1083
7794,649,1084
7795,634,1086
7796,620,1089
7797,605,1090
7798,592,1093
7799,585,1099
7800,576,1100
7801,573,1106
7802,572,1108
7803,570,1111
7804,573,1108
7805,573,1109
7806,571,1107
7807,570,1102
7808,570,1101
7809,572,1092
7810,577,1088
7811,580,1085
7812,587,1083
7813,594,1078
7814,605,1073
7815,615,1068
7816,629,1059
7817,637,1051
7818,646,1044
7819,656,1032
7820,667,1023
7821,682,1011
7822,692,1004
7823,701,997
7824,712,992
7825,727,989
7826,734,982
7827,745,978
7828,760,973
7829,766,967
7830,773,960
7831,779,955
7832,779,946
7833,783,945
7834,785,938
7835,790,934
7836,795,933
7837,798,932
7838,802,932
7839,803,933
7840,805,932
7841,804,930
7842,805,927
7843,803,923
7844,803,921
7845,802,918
7846,800,920
7847,801,920
7848,800,919
7849,802,926
7850,804,928
7851,806,929
7852,809,930
7853,806,929
7854,807,928
7855,806,925
7856,802,925
7857,802,922
7858,799,917
7859,799,921
7860,797,922
7861,799,927
7862,802,926
7863,807,928
7864,809,931
7865,809,930
7866,808,926
7867,805,926
7868,805,924
7869,803,924
7870,805,924
7871,803,925
7872,808,928
7873,812,927
7874,812,932
7875,815,932
7876,817,932
7877,817,930
7878,814,928
7879,811,924
7880,815,922
7881,810,920
7882,808,922
7883,810,919
7884,813,920
7885,813,922
7886,814,919
7887,815,921
7888,815,921
7889,815,920
7890,818,923
7891,814,920
7892,812,917
7893,811,922
7894,810,921
7895,811,917
7896,810,920
7897,812,920
7898,814,920
7899,814,924
7900,818,925
7901,818,924
7902,819,921
7903,815,922
7904,814,920
7905,812,916
7906,815,917
7907,816,915
7908,816,917
7909,816,918
7910,822,919
7911,820,921
7912,821,922
7913,819,920
7914,821,920
7915,816,920
7916,815,918
7917,815,915
7918,816,916
7919,813,920
7920,814,916
7921,816,916
7922,820,917
7923,820,920
7924,821,919
7925,821,918
7926,823,920
7927,821,917
7928,819,914
7929,816,914
7930,816,909
7931,816,912
7932,817,910
7933,816,913
7934,821,917
7935,821,919
7936,824,917
7937,828,916
7938,822,916
7939,822,913
7940,820,912
7941,818,910
7942,819,910
7943,818,910
7944,820,911
7945,819,912
7946,822,915
7947,821,916
7948,824,916
7949,825,915
7950,822,912
7951,819,912
7952,817,910
7953,820,910
7954,819,903
7955,817,904
7956,820,905
7957,820,908
7958,828,910
7959,826,912
7960,829,916
7961,826,916
7962,824,913
7963,821,909
7964,817,908
7965,818,908
7966,818,904
7967,819,907
7968,819,905
7969,823,907
7970,823,908
7971,824,913
7972,823,910
7973,826,908
7974,828,910
7975,827,905
7976,824,904
7977,822,903
7978,823,906
7979,821,905
7980,821,908
7981,824,908
7982,824,910
7983,827,914
7984,828,912
7985,829,915
7986,825,912
7987,826,910
7988,827,912
7989,828,906
7990,828,906
7991,823,904
7992,827,905
7993,823,905
7994,827,910
7995,828,909
7996,831,913
7997,830,908
7998,829,910
7999,828,908
8000,828,906
8001,824,904
8002,824,902
8003,825,904
8004,823,905
8005,826,909
8006,830,910
8007,829,911
8008,833,911
8009,833,912
8010,834,909
8011,831,907
8012,827,905
8013,827,905
8014,827,903
8015,824,904
8016,829,905
8017,829,906
8018,832,909
8019,833,908
8020,835,908
8021,831,909
8022,831,908
8023,829,908
8024,825,904
8025,825,908
8026,827,905
8027,826,905
8028,829,908
8029,829,906
8030,830,910
8031,832,910
8032,835,908
8033,835,912
8034,832,906
8035,831,908
8036,829,908
8037,827,907
8038,828,907
8039,830,904
8040,831,908
8041,835,907
8042,835,909
8043,835,914
8044,833,910
8045,835,909
8046,835,910
8047,830,908
8048,831,909
8049,831,909
8050,829,907
8051,831,906
8052,827,909
8053,829,912
8054,831,914
8055,832,913
8056,836,912
8057,837,910
8058,837,908
8059,837,907
8060,834,902
8061,827,905
8062,828,903
8063,828,905
8064,832,907
8065,833,905
8066,841,906
8067,840,910
8068,840,911
8069,840,910
8070,841,909
8071,838,909
8072,836,908
8073,836,904
8074,832,905
8075,832,908
8076,833,902
8077,834,908
8078,837,909
8079,838,910
8080,839,910
8081,840,910
8082,840,908
8083,840,906
8084,838,904
8085,838,903
8086,836,903
8087,837,901
8088,839,902
8089,838,904
8090,840,906
8091,843,909
8092,845,909
8093,846,907
8094,844,912
8095,844,910
8096,841,906
8097,839,904
8098,835,903
8099,832,905
8100,834,906
8101,835,906
8102,839,908
8103,842,908
8104,840,909
8105,842,909
8106,840,909
8107,840,906
8108,839,908
8109,841,903
8110,840,903
8111,842,906
8112,847,908
8113,851,914
8114,859,915
8115,861,920
8116,867,923
8117,867,924
8118,869,925
8119,870,923
8120,868,924
8121,871,923
8122,874,920
8123,878,924
8124,883,926
8125,891,926
8126,901,927
8127,907,931
8128,910,930
8129,913,923
8130,911,918
8131,909,915
8132,900,907
8133,905,905
8134,905,901
8135,902,902
8136,904,899
8137,903,906
8138,897,907
8139,890,905
8140,883,911
8141,871,906
8142,856,907
8143,847,908
8144,840,907
8145,834,900
8146,834,901
8147,833,898
8148,830,899
8149,835,902
8150,835,902
8151,839,902
8152,841,901
8153,838,902
8154,837,904
8155,835,902
8156,832,894
8157,834,897
8158,834,895
8159,833,898
8160,832,898
8161,836,900
8162,836,903
8163,837,902
8164,837,904
8165,833,902
8166,830,905
8167,823,906
8168,820,909
8169,828,915
8170,844,924
8171,880,930
8172,927,933
8173,994,931
8174,1073,917
8175,1148,896
8176,1218,859
8177,1263,821
8178,1285,782
8179,1286,750
8180,1265,731
8181,1219,724
8182,1151,724
8183,1054,732
8184,949,746
8185,862,762
8186,815,779
8187,808,794
8188,831,814
8189,856,826
8190,880,841
8191,890,850
8192,885,856
8193,870,867
8194,856,877
8195,844,886
8196,836,894
8197,831,898
8198,834,901
8199,835,906
8200,840,909
8201,836,908
8202,838,909
8203,836,908
8204,833,910
8205,830,911
8206,827,911
8207,827,911
8208,825,911
8209,823,914
8210,824,917
8211,826,920
8212,828,922
8213,828,923
8214,827,920
8215,825,918
8216,826,917
8217,823,916
8218,822,914
8219,821,913
8220,823,912
8221,824,917
8222,827,917
8223,827,923
8224,827,921
8225,829,924
8226,828,922
8227,826,921
8228,825,920
8229,822,919
8230,818,915
8231,819,918
8232,819,918
8233,822,921
8234,826,921
8235,827,924
8236,826,926
8237,826,925
8238,821,926
8239,821,923
8240,821,922
8241,825,919
8242,821,921
8243,821,916
8244,825,920
8245,826,922
8246,832,923
8247,834,925
8248,837,929
8249,836,928
8250,837,927
8251,837,926
8252,837,925
8253,839,926
8254,837,923
8255,841,922
8256,843,922
8257,847,924
8258,851,929
8259,853,929
8260,858,932
8261,859,930
8262,863,932
8263,864,927
8264,865,926
8265,865,925
8266,867,923
8267,866,927
8268,871,927
8269,873,929
8270,880,932
8271,882,935
8272,890,934
8273,891,936
8274,894,933
8275,898,933
8276,897,927
8277,899,927
8278,902,926
8279,908,924
8280,909,927
8281,915,929
8282,920,928
8283,923,933
8284,926,933
8285,929,930
8286,933,927
8287,934,925
8288,933,923
8289,934,922
8290,933,919
8291,937,918
8292,943,921
8293,946,922
8294,949,920
8295,952,924
8296,952,922
8297,952,923
8298,948,919
8299,944,915
8300,943,917
8301,939,913
8302,931,912
8303,926,915
8304,923,913
8305,919,917
8306,916,916
8307,912,920
8308,909,921
8309,900,921
8310,896,917
8311,890,917
8312,888,917
8313,882,917
8314,876,915
8315,876,916
8316,874,921
8317,871,922
8318,869,920
8319,871,925
8320,871,920
8321,867,922
8322,867,923
8323,863,921
8324,858,916
8325,861,915
8326,859,916
8327,855,914
8328,856,915
8329,859,917
8330,859,917
8331,863,920
8332,864,922
8333,866,921
8334,866,918
8335,862,919
8336,863,918
8337,864,916
8338,861,915
8339,858,916
8340,861,912
8341,865,917
8342,863,920
8343,867,919
8344,869,922
8345,869,918
8346,871,917
8347,870,918
8348,870,914
8349,870,913
8350,865,913
8351,865,913
8352,866,917
8353,865,920
8354,866,925
8355,868,929
8356,873,938
8357,872,942
8358,877,945
8359,882,955
8360,901,964
8361,916,969
8362,939,968
8363,966,956
8364,1002,939
8365,1033,910
8366,1073,884
8367,1114,859
8368,1158,831
8369,1202,798
8370,1246,755
8371,1288,718
8372,1328,675
8373,1365,633
8374,1393,603
8375,1419,580
8376,1440,565
8377,1455,556
8378,1462,550
8379,1464,548
8380,1460,545
8381,1448,543
8382,1431,541
8383,1413,545
8384,1396,551
8385,1381,566
8386,1374,586
8387,1373,602
8388,1379,624
8389,1386,643
8390,1388,663
8391,1378,681
8392,1362,701
8393,1334,715
8394,1296,733
8395,1258,746
8396,1213,760
8397,1162,775
8398,1098,790
8399,1027,799
8400,954,819
8401,886,839
8402,842,861
8403,820,885
8404,814,906
8405,818,920
8406,816,932
8407,818,936
8408,812,937
8409,804,937
8410,792,940
8411,780,942
8412,771,948
8413,772,952
8414,768,960
8415,766,961
8416,765,965
8417,763,963
8418,759,964
8419,756,961
8420,751,962
8421,749,963
8422,746,963
8423,744,967
8424,739,965
8425,737,970
8426,739,971
8427,735,977
8428,734,980
8429,733,981
8430,730,980
8431,729,982
8432,723,983
8433,720,984
8434,716,983
8435,715,985
8436,714,989
8437,709,993
8438,711,993
8439,706,1003
8440,708,1004
8441,703,1004
8442,699,1007
8443,697,1010
8444,689,1011
8445,688,1011
8446,683,1014
8447,683,1017
8448,680,1023
8449,681,1030
8450,683,1039
8451,685,1045
8452,682,1054
8453,683,1058
8454,678,1064
8455,675,1069
8456,671,1071
8457,669,1076
8458,670,1082
8459,667,1083
8460,671,1088
8461,671,1097
8462,673,1099
8463,673,1100
8464,666,1101
8465,661,1098
8466,650,1100
8467,644,1100
8468,637,1101
8469,633,1101
8470,629,1103
8471,622,1107
8472,615,1108
8473,608,1114
8474,602,1117
8475,592,1122
8476,585,1122
8477,577,1122
8478,569,1123
8479,564,1120
8480,558,1118
8481,558,1115
8482,555,1111
8483,559,1107
8484,558,1104
8485,567,1100
8486,571,1101
8487,577,1097
8488,582,1092
8489,587,1086
8490,597,1078
8491,602,1071
8492,610,1060
8493,619,1052
8494,626,1048
8495,636,1039
8496,646,1031
8497,660,1031
8498,671,1026
8499,683,1024
8500,693,1015
8501,708,1008
8502,716,998
8503,728,993
8504,732,985
8505,742,973
8506,747,970
8507,754,965
8508,760,958
8509,767,959
8510,775,957
8511,779,952
8512,785,951
8513,790,944
8514,788,943
8515,788,938
8516,788,935
8517,788,932
8518,787,932
8519,787,931
8520,788,927
8521,789,929
8522,792,932
8523,792,935
8524,794,937
8525,794,934
8526,795,934
8527,795,934
8528,794,931
8529,793,928
8530,791,926
8531,794,928
8532,793,930
8533,794,930
8534,795,934
8535,795,933
8536,795,935
8537,797,933
8538,800,934
8539,802,929
8540,799,929
8541,798,929
8542,799,929
8543,796,926
8544,800,927
8545,800,935
8546,801,935
8547,804,935
8548,804,938
8549,806,938
8550,804,936
8551,806,935
8552,803,933
8553,804,932
8554,803,931
8555,801,930
8556,800,927
8557,806,933
8558,806,933
8559,806,932
8560,804,933
8561,810,934
8562,810,933
8563,809,933
8564,807,930
8565,806,927
8566,803,929
8567,804,927
8568,805,929
8569,801,931
8570,808,934
8571,809,936
8572,812,933
8573,813,933
8574,812,931
8575,811,930
8576,811,931
8577,809,924
8578,809,924
8579,808,923
8580,805,926
8581,806,927
8582,811,930
8583,810,933
8584,816,931
8585,815,931
8586,816,931
8587,814,930
8588,811,927
8589,810,928
8590,808,924
8591,807,927
8592,811,927
8593,812,929
8594,812,932
8595,814,931
8596,817,934
8597,819,929
8598,815,931
8599,816,925
8600,816,926
8601,815,922
8602,813,923
8603,811,923
8604,813,921
8605,814,922
8606,814,921
8607,817,923
8608,818,927
8609,819,925
8610,820,927
8611,818,924
8612,817,922
8613,815,919
8614,813,922
8615,815,922
8616,814,921
8617,816,920
8618,814,922
8619,820,923
8620,820,925
8621,820,923
8622,821,923
8623,819,922
8624,818,919
8625,816,919
8626,814,914
8627,817,913
8628,815,914
8629,816,917
8630,820,916
8631,821,921
8632,824,924
8633,824,922
8634,823,920
8635,825,921
8636,824,920
8637,818,920
8638,819,916
8639,818,916
8640,820,919
8641,820,920
8642,821,922
8643,822,920
8644,825,924
8645,825,922
8646,821,918
8647,823,921
8648,826,918
8649,825,914
8650,821,911
8651,823,916
8652,823,911
8653,824,913
8654,827,918
8655,828,920
8656,830,920
8657,830,922
8658,831,921
8659,828,918
8660,824,919
8661,824,914
8662,821,917
8663,823,916
8664,827,913
8665,825,914
8666,829,917
8667,831,921
8668,828,921
8669,833,919
8670,834,920
8671,833,919
8672,831,914
8673,831,914
8674,829,912
8675,827,914
8676,830,915
8677,831,917
8678,834,920
8679,836,920
8680,833,924
8681,838,922
8682,836,922
8683,836,921
8684,835,914
8685,831,913
8686,831,913
8687,832,913
8688,831,914
8689,834,914
8690,831,915
8691,836,918
8692,834,919
8693,837,920
8694,836,918
8695,838,917
8696,837,918
8697,834,914
8698,836,913
8699,834,913
8700,834,915
8701,835,918
8702,837,917
8703,838,920
8704,840,923
8705,837,920
8706,842,917
8707,841,918
8708,836,916
8709,836,912
8710,834,911
8711,834,911
8712,837,912
8713,835,914
8714,840,914
8715,840,915
8716,841,919
8717,844,919
8718,841,917
8719,841,916
8720,839,916
8721,840,914
8722,838,914
8723,839,915
8724,840,913
8725,840,914
8726,841,914
8727,844,917
8728,848,923
8729,848,919
8730,847,917
8731,845,911
8732,843,913
8733,841,911
8734,841,909
8735,837,909
8736,841,909
8737,843,912
8738,843,914
8739,843,917
8740,846,917
8741,846,918
8742,844,921
8743,845,918
8744,843,913
8745,841,914
8746,844,915
8747,839,913
8748,839,911
8749,839,914
8750,844,915
8751,843,918
8752,841,919
8753,849,920
8754,846,918
8755,845,915
8756,844,915
8757,845,910
8758,844,910
8759,844,912
8760,844,910
8761,844,912
8762,845,917
8763,848,918
8764,849,922
8765,847,918
8766,847,919
8767,850,921
8768,846,919
8769,848,914
8770,849,913
8771,844,914
8772,847,912
8773,846,917
8774,846,918
8775,848,920
8776,849,922
8777,853,921
8778,851,918
8779,852,919
8780,852,915
8781,851,912
8782,851,910
8783,850,914
8784,852,917
8785,854,918
8786,852,918
8787,854,919
8788,856,923
8789,852,922
8790,855,923
8791,856,916
8792,858,918
8793,858,914
8794,860,917
8795,859,915
8796,865,915
8797,868,922
8798,876,927
8799,883,930
8800,885,935
8801,887,934
8802,889,934
8803,892,934
8804,894,935
8805,898,933
8806,900,936
8807,910,935
8808,919,936
8809,922,936
8810,931,935
8811,930,932
8812,929,930
8813,927,924
8814,923,921
8815,919,918
8816,921,914
8817,919,913
8818,917,909
8819,907,908
8820,899,909
8821,888,911
8822,877,910
8823,868,914
8824,861,914
8825,856,912
8826,855,912
8827,853,912
8828,853,910
8829,851,909
8830,848,901
8831,846,904
8832,847,902
8833,845,906
8834,846,909
8835,847,911
8836,851,913
8837,853,913
8838,852,910
8839,851,907
8840,849,908
8841,847,907
8842,847,904
8843,848,900
8844,847,902
8845,848,903
8846,849,909
8847,846,911
8848,842,916
8849,837,916
8850,837,922
8851,847,933
8852,871,942
8853,907,947
8854,959,943
8855,1021,935
8856,1097,916
8857,1175,890
8858,1237,852
8859,1281,812
8860,1297,772
8861,1289,741
8862,1256,720
8863,1192,714
8864,1105,717
8865,1001,728
8866,904,740
8867,844,760
8868,826,780
8869,837,799
8870,863,819
8871,890,837
8872,903,855
8873,902,868
8874,890,878
8875,879,888
8876,863,897
8877,850,900
8878,846,902
8879,841,906
8880,840,906
8881,844,911
8882,843,911
8883,847,919
8884,852,920
8885,850,921
8886,850,921
8887,849,921
8888,844,919
8889,841,917
8890,840,918
8891,838,919
8892,842,919
8893,841,923
8894,845,927
8895,845,928
8896,843,929
8897,844,930
8898,845,928
8899,844,927
8900,842,925
8901,841,926
8902,839,924
8903,838,924
8904,838,924
8905,840,924
8906,843,928
8907,846,928
8908,846,931
8909,846,931
8910,846,929
8911,847,929
8912,845,924
8913,841,925
8914,842,924
8915,841,927
8916,840,929
8917,842,930
8918,845,934
8919,847,933
8920,849,938
8921,848,935
8922,848,934
8923,850,935
8924,846,931
8925,846,932
8926,845,930
8927,845,929
8928,846,933
8929,848,933
8930,849,933
8931,855,933
8932,858,937
8933,860,937
8934,860,934
8935,863,934
8936,860,935
8937,859,934
8938,860,932
8939,863,933
8940,865,935
8941,870,937
8942,874,940
8943,880,942
8944,884,945
8945,886,946
8946,887,943
8947,890,942
8948,891,940
8949,890,938
8950,894,939
8951,894,937
8952,899,938
8953,900,940
8954,904,941
8955,909,940
8956,914,942
8957,921,946
8958,924,941
8959,922,942
8960,926,939
8961,929,937
8962,930,935
8963,930,934
8964,934,937
8965,939,938
8966,941,939
8967,948,940
8968,952,939
8969,958,938
8970,958,939
8971,959,934
8972,962,933
8973,964,929
8974,962,926
8975,965,922
8976,962,922
8977,964,921
8978,964,924
8979,965,924
8980,965,927
8981,960,928
8982,955,930
8983,946,927
8984,945,926
8985,938,927
8986,935,925
8987,929,924
8988,921,922
8989,916,926
8990,916,927
8991,911,928
8992,910,930
8993,907,929
8994,903,932
8995,897,928
8996,893,925
8997,888,923
8998,884,918
8999,883,920
9000,879,916
9001,881,922
9002,879,923
9003,880,923
9004,878,927
9005,877,927
9006,877,930
9007,875,929
9008,876,928
9009,873,925
9010,870,922
9011,867,922
9012,866,923
9013,874,926
9014,874,924
9015,875,926
9016,878,928
9017,878,925
9018,879,924
9019,881,922
9020,877,920
9021,875,918
9022,872,919
9023,877,916
9024,878,918
9025,880,922
9026,884,925
9027,884,932
9028,882,933
9029,883,935
9030,877,934
9031,880,939
9032,874,937
9033,876,942
9034,882,949
9035,900,957
9036,914,968
9037,941,972
9038,977,968
9039,1010,946
9040,1043,920
9041,1081,887
9042,1123,852
9043,1164,817
9044,1212,780
9045,1262,738
9046,1306,693
9047,1348,653
9048,1385,617
9049,1416,590
9050,1440,573
9051,1457,566
9052,1468,565
9053,1471,563
9054,1471,564
9055,1465,565
9056,1449,566
9057,1433,570
9058,1410,575
9059,1394,590
9060,1385,610
9061,1386,628
9062,1389,651
9063,1392,672
9064,1386,689
9065,1365,707
9066,1340,721
9067,1302,738
9068,1267,753
9069,1225,768
9070,1181,781
9071,1127,796
9072,1056,811
9073,988,830
9074,918,847
9075,866,868
9076,838,894
9077,829,912
9078,830,926
9079,835,938
9080,833,942
9081,829,943
9082,818,945
9083,810,944
9084,802,949
9085,793,950
9086,789,955
9087,784,960
9088,779,968
9089,777,970
9090,776,970
9091,769,971
9092,766,968
9093,762,972
9094,759,971
9095,753,973
9096,753,980
9097,749,979
9098,747,986
9099,746,988
9100,746,989
9101,746,991
9102,741,993
9103,740,992
9104,734,993
9105,732,994
9106,729,996
9107,728,997
9108,724,998
9109,727,1002
9110,726,1007
9111,729,1014
9112,731,1020
9113,731,1025
9114,731,1031
9115,730,1032
9116,726,1035
9117,723,1038
9118,719,1038
9119,721,1045
9120,722,1046
9121,727,1052
9122,730,1056
9123,728,1058
9124,727,1060
9125,721,1054
9126,714,1056
9127,705,1057
9128,696,1058
9129,689,1060
9130,684,1066
9131,673,1068
9132,665,1074
9133,651,1080
9134,635,1087
9135,623,1097
9136,610,1103
9137,599,1106
9138,587,1113
9139,579,1115
9140,571,1113
9141,565,1112
9142,563,1111
9143,559,1112
9144,557,1113
9145,556,1112
9146,556,1113
9147,559,1113
9148,561,1110
9149,563,1107
9150,566,1102
9151,564,1098
9152,569,1093
9153,571,1083
9154,577,1078
9155,582,1073
9156,586,1068
9157,597,1064
9158,610,1060
9159,619,1059
9160,628,1051
9161,642,1047
9162,648,1038
9163,659,1029
9164,669,1020
9165,678,1011
9166,688,1004
9167,699,995
9168,709,990
9169,717,986
9170,731,980
9171,743,976
9172,753,972
9173,762,970
9174,767,963
9175,771,960
9176,774,955
9177,777,949
9178,780,947
9179,782,945
9180,782,943
9181,784,943
9182,793,945
9183,794,944
9184,797,948
9185,796,946
9186,795,944
9187,797,942
9188,793,940
9189,794,938
9190,791,935
9191,794,935
9192,790,936
9193,789,936
9194,793,938
9195,795,939
9196,796,939
9197,798,943
9198,799,944
9199,798,944
9200,799,941
9201,797,940
9202,797,940
9203,794,938
9204,794,941
9205,797,941
9206,800,943
9207,803,944
9208,804,944
9209,806,947
9210,807,943
9211,807,940
9212,804,942
9213,801,936
9214,799,934
9215,798,936
9216,800,935
9217,801,935
9218,806,939
9219,808,942
9220,810,943
9221,811,946
9222,811,944
9223,809,942
9224,806,941
9225,804,939
9226,807,938
9227,805,938
9228,806,938
9229,807,936
9230,803,940
9231,807,940
9232,808,941
9233,811,938
9234,810,941
9235,811,937
9236,811,934
9237,809,933
9238,803,932
9239,804,932
9240,803,932
9241,805,933
9242,808,934
9243,809,937
9244,812,937
9245,812,941
9246,813,943
9247,812,938
9248,811,939
9249,810,939
9250,811,934
