'sample #','MLII','V5'
0,863,933
1,863,933
2,863,933
3,863,933
4,863,933
5,863,933
6,863,933
7,860,933
8,857,933
9,856,938
10,857,937
11,855,941
12,856,940
13,856,943
14,853,944
15,848,941
16,843,940
17,836,936
18,834,929
19,827,927
20,828,925
21,820,926
22,821,925
23,820,926
24,821,926
25,822,929
26,826,931
27,825,930
28,825,927
29,822,926
30,820,923
31,818,921
32,816,921
33,817,923
34,817,921
35,816,926
36,819,925
37,819,930
38,823,933
39,822,930
40,823,933
41,822,930
42,822,927
43,819,928
44,818,923
45,815,926
46,817,925
47,817,928
48,820,928
49,822,930
50,825,933
51,825,931
52,828,933
53,831,930
54,828,931
55,827,925
56,828,925
57,830,929
58,832,928
59,837,935
60,842,942
61,852,957
62,875,971
63,908,998
64,952,1030
65,1005,1061
66,1057,1085
67,1111,1101
68,1166,1105
69,1219,1113
70,1256,1116
71,1264,1116
72,1238,1107
73,1171,1085
74,1075,1052
75,962,997
76,842,933
77,745,861
78,692,807
79,684,780
80,706,790
81,745,820
82,778,855
83,803,880
84,811,905
85,818,915
86,814,915
87,814,916
88,817,915
89,820,916
90,820,918
91,825,922
92,825,923
93,824,923
94,822,929
95,820,926
96,823,934
97,822,932
98,824,936
99,826,933
100,827,934
101,824,929
102,824,933
103,825,931
104,822,929
105,822,930
106,820,929
107,820,933
108,826,936
109,826,936
110,828,937
111,830,938
112,830,936
113,829,936
114,826,933
115,826,934
116,826,932
117,822,932
118,821,934
119,820,939
120,823,940
121,824,937
122,829,941
123,828,939
124,828,941
125,829,940
126,826,938
127,826,937
128,823,938
129,824,939
130,823,937
131,825,942
132,824,940
133,829,942
134,831,942
135,832,942
136,831,941
137,832,940
138,832,940
139,832,939
140,828,941
141,829,942
142,830,944
143,832,947
144,835,948
145,838,951
146,842,955
147,842,957
148,839,955
149,843,958
150,842,958
151,844,953
152,841,952
153,842,956
154,845,963
155,847,961
156,851,963
157,855,968
158,858,971
159,862,972
160,866,971
161,867,971
162,870,972
163,870,970
164,870,968
165,872,973
166,878,976
167,881,981
168,886,988
169,889,990
170,896,994
171,899,994
172,902,997
173,905,997
174,907,996
175,908,997
176,909,998
177,911,998
178,910,1003
179,914,1002
180,916,1007
181,920,1009
182,924,1010
183,925,1006
184,924,1005
185,922,1005
186,915,997
187,909,992
188,905,991
189,900,990
190,895,985
191,893,982
192,890,983
193,890,982
194,880,979
195,879,977
196,874,978
197,871,969
198,867,968
199,861,960
200,858,954
201,850,955
202,847,949
203,843,950
204,842,951
205,843,951
206,839,950
207,842,948
208,842,946
209,840,941
210,836,941
211,835,938
212,829,935
213,828,935
214,827,938
215,827,936
216,831,934
217,833,940
218,835,938
219,836,937
220,836,936
221,834,940
222,832,938
223,830,937
224,829,934
225,830,935
226,827,936
227,826,937
228,826,938
229,829,941
230,830,944
231,835,943
232,834,942
233,831,941
234,831,939
235,829,936
236,827,935
237,827,936
238,828,935
239,832,937
240,832,938
241,835,941
242,834,946
243,837,939
244,836,940
245,834,942
246,833,942
247,835,937
248,832,937
249,831,942
250,830,942
251,828,941
252,831,941
253,832,947
254,833,948
255,838,947
256,834,946
257,836,944
258,834,944
259,832,942
260,827,941
261,826,943
262,827,941
263,830,942
264,832,945
265,832,947
266,836,945
267,836,945
268,835,944
269,833,940
270,831,938
271,829,935
272,827,935
273,826,938
274,826,939
275,824,941
276,825,944
277,831,943
278,830,946
279,833,945
280,832,946
281,830,944
282,827,940
283,826,939
284,825,937
285,822,936
286,819,936
287,824,940
288,826,939
289,828,939
290,830,945
291,828,943
292,828,942
293,827,934
294,821,938
295,819,932
296,816,931
297,817,929
298,819,931
299,821,933
300,820,936
301,822,940
302,827,943
303,828,939
304,826,944
305,825,940
306,821,936
307,818,937
308,815,932
309,815,932
310,814,931
311,813,935
312,816,935
313,823,938
314,825,941
315,822,944
316,821,942
317,819,938
318,817,936
319,818,933
320,817,933
321,819,929
322,817,930
323,819,934
324,818,936
325,817,936
326,819,938
327,823,936
328,821,938
329,824,938
330,821,937
331,819,934
332,821,936
333,820,934
334,816,936
335,817,936
336,819,937
337,821,940
338,822,939
339,824,941
340,820,942
341,824,940
342,820,940
343,820,937
344,822,936
345,818,933
346,820,935
347,815,935
348,815,939
349,817,937
350,821,939
351,821,939
352,821,938
353,822,937
354,824,931
355,820,933
356,817,927
357,816,931
358,817,934
359,820,935
360,822,938
361,822,941
362,822,942
363,823,943
364,822,944
365,823,940
366,821,936
367,818,933
368,819,937
369,816,935
370,817,934
371,819,937
372,819,940
373,820,941
374,825,944
375,827,940
376,826,939
377,827,940
378,823,939
379,820,938
380,819,934
381,818,933
382,818,931
383,816,934
384,821,940
385,823,938
386,824,943
387,828,942
388,825,940
389,822,940
390,818,938
391,820,936
392,817,938
393,814,937
394,812,938
395,818,939
396,819,942
397,821,941
398,821,941
399,821,944
400,821,942
401,820,940
402,820,939
403,818,940
404,818,935
405,817,932
406,816,938
407,819,939
408,819,941
409,820,942
410,826,944
411,823,941
412,826,942
413,825,943
414,822,942
415,820,940
416,819,938
417,819,938
418,818,937
419,818,940
420,818,942
421,821,942
422,824,949
423,825,947
424,824,947
425,826,944
426,825,944
427,822,941
428,823,941
429,823,941
430,822,940
431,822,940
432,822,942
433,824,943
434,828,943
435,831,943
436,826,945
437,826,943
438,826,941
439,825,939
440,821,938
441,822,938
442,822,940
443,820,943
444,823,945
445,828,948
446,826,949
447,830,950
448,830,951
449,827,948
450,823,944
451,825,944
452,820,945
453,818,941
454,819,940
455,821,942
456,822,939
457,827,945
458,827,947
459,830,948
460,832,946
461,835,945
462,832,944
463,832,943
464,832,943
465,835,942
466,835,942
467,841,942
468,844,947
469,847,951
470,845,954
471,847,957
472,845,951
473,850,951
474,855,947
475,859,947
476,862,947
477,867,949
478,867,952
479,870,955
480,868,960
481,868,963
482,868,962
483,863,960
484,860,962
485,860,963
486,858,958
487,857,956
488,856,955
489,852,953
490,852,951
491,848,957
492,842,955
493,839,956
494,834,958
495,833,955
496,827,953
497,827,948
498,825,946
499,820,946
500,818,941
501,813,943
502,812,944
503,812,944
504,815,945
505,817,950
506,816,950
507,819,951
508,819,950
509,820,947
510,817,948
511,816,944
512,810,941
513,811,944
514,810,946
515,810,947
516,812,946
517,815,947
518,817,949
519,816,948
520,814,946
521,820,946
522,820,946
523,815,943
524,820,944
525,814,944
526,817,945
527,815,947
528,820,946
529,823,950
530,823,951
531,829,953
532,827,950
533,828,950
534,828,950
535,826,949
536,826,951
537,825,955
538,825,954
539,826,961
540,829,966
541,840,976
542,860,991
543,891,1012
544,938,1043
545,992,1077
546,1044,1107
547,1098,1129
548,1154,1142
549,1203,1145
550,1244,1143
551,1250,1136
552,1218,1117
553,1150,1087
554,1055,1046
555,941,987
556,823,920
557,733,854
558,678,808
559,663,783
560,676,783
561,707,807
562,738,839
563,761,872
564,777,896
565,786,913
566,795,925
567,804,931
568,810,934
569,817,934
570,827,935
571,827,933
572,822,939
573,819,939
574,819,942
575,817,943
576,817,948
577,820,950
578,822,952
579,827,957
580,827,955
581,827,957
582,826,952
583,825,951
584,823,950
585,818,950
586,820,953
587,820,953
588,821,956
589,823,958
590,823,962
591,823,962
592,825,962
593,825,960
594,823,959
595,820,957
596,819,953
597,818,952
598,818,952
599,821,953
600,824,955
601,828,957
602,826,960
603,827,963
604,825,961
605,827,960
606,827,962
607,823,958
608,823,960
609,820,958
610,819,959
611,821,960
612,821,963
613,824,966
614,824,967
615,824,968
616,827,966
617,831,964
618,827,962
619,825,959
620,825,962
621,827,960
622,827,963
623,827,964
624,829,965
625,832,970
626,834,970
627,836,970
628,836,966
629,837,971
630,836,969
631,838,969
632,837,969
633,838,970
634,840,974
635,841,976
636,847,979
637,845,980
638,848,983
639,851,986
640,850,986
641,857,987
642,860,985
643,860,980
644,858,983
645,861,984
646,856,986
647,863,990
648,865,992
649,873,994
650,879,997
651,882,1001
652,885,998
653,889,999
654,889,1000
655,888,999
656,889,998
657,888,997
658,893,1002
659,896,1004
660,898,1010
661,902,1011
662,906,1013
663,909,1014
664,910,1012
665,910,1011
666,907,1008
667,905,1005
668,903,1002
669,897,1000
670,895,1001
671,894,994
672,894,997
673,894,996
674,890,998
675,888,994
676,882,986
677,883,986
678,877,981
679,871,974
680,865,970
681,860,966
682,859,966
683,855,965
684,854,962
685,852,965
686,850,965
687,848,965
688,849,960
689,848,962
690,841,958
691,839,957
692,835,953
693,835,951
694,829,948
695,830,950
696,828,951
697,831,952
698,837,954
699,838,953
700,837,949
701,836,951
702,835,948
703,835,947
704,831,944
705,827,943
706,826,947
707,828,945
708,829,944
709,832,946
710,832,947
711,835,948
712,835,946
713,835,945
714,835,943
715,832,944
716,830,943
717,830,944
718,828,947
719,830,945
720,831,946
721,835,947
722,836,950
723,839,950
724,839,952
725,839,951
726,837,945
727,834,947
728,833,945
729,831,944
730,833,945
731,833,945
732,833,946
733,834,950
734,839,948
735,840,953
736,844,952
737,840,951
738,839,945
739,839,946
740,838,943
741,838,946
742,836,948
743,840,947
744,843,949
745,844,951
746,841,958
747,844,958
748,846,957
749,847,956
750,844,953
751,843,950
752,844,949
753,843,949
754,840,950
755,839,950
756,839,953
757,841,956
758,843,958
759,845,957
760,844,956
761,845,952
762,845,950
763,844,947
764,841,944
765,840,942
766,837,944
767,836,946
768,835,946
769,837,948
770,840,950
771,840,953
772,839,949
773,840,949
774,838,947
775,837,943
776,832,940
777,832,942
778,831,944
779,835,944
780,832,946
781,834,948
782,834,949
783,833,948
784,834,947
785,836,947
786,834,943
787,830,942
788,830,936
789,828,938
790,828,939
791,828,936
792,830,937
793,831,937
794,829,943
795,831,942
796,829,941
797,831,941
798,829,938
799,828,936
800,826,930
801,824,931
802,821,932
803,822,933
804,825,936
805,829,935
806,829,939
807,831,939
808,832,939
809,830,938
810,829,935
811,830,934
812,823,931
813,825,928
814,823,930
815,824,931
816,825,929
817,830,932
818,828,935
819,831,937
820,831,936
821,831,932
822,829,933
823,826,931
824,823,931
825,822,930
826,821,934
827,821,933
828,821,936
829,827,933
830,830,934
831,828,935
832,828,933
833,831,932
834,826,931
835,827,929
836,824,928
837,823,928
838,824,927
839,824,930
840,822,932
841,823,932
842,825,930
843,826,933
844,831,931
845,830,932
846,827,929
847,828,926
848,823,926
849,823,925
850,821,924
851,822,929
852,823,931
853,824,930
854,828,937
855,827,936
856,827,933
857,829,932
858,828,930
859,826,929
860,826,929
861,825,925
862,823,926
863,822,928
864,822,930
865,825,934
866,824,930
867,828,934
868,830,931
869,831,928
870,829,931
871,825,926
872,823,922
873,824,924
874,824,923
875,823,927
876,826,928
877,827,928
878,826,932
879,830,935
880,828,935
881,828,934
882,830,930
883,825,930
884,823,929
885,825,926
886,822,926
887,824,928
888,823,930
889,825,930
890,827,935
891,831,935
892,830,935
893,832,932
894,828,930
895,827,928
896,825,928
897,823,923
898,824,923
899,824,926
900,826,928
901,829,930
902,834,930
903,834,934
904,833,931
905,831,932
906,828,932
907,828,930
908,828,928
909,827,927
910,825,927
911,826,931
912,827,931
913,832,930
914,833,932
915,834,937
916,833,935
917,831,934
918,831,932
919,831,930
920,828,927
921,830,929
922,827,926
923,827,930
924,830,929
925,832,930
926,833,933
927,836,935
928,836,933
929,835,930
930,836,931
931,834,931
932,834,928
933,832,929
934,830,930
935,833,931
936,832,932
937,838,934
938,848,936
939,853,938
940,854,936
941,854,935
942,852,934
943,849,930
944,853,931
945,856,930
946,856,929
947,862,936
948,868,938
949,875,939
950,876,945
951,880,944
952,876,944
953,874,942
954,870,940
955,865,937
956,863,937
957,858,941
958,860,941
959,861,945
960,854,947
961,860,951
962,857,949
963,857,951
964,854,946
965,845,940
966,837,938
967,831,938
968,828,931
969,824,930
970,823,931
971,821,931
972,820,932
973,819,934
974,822,931
975,824,933
976,823,931
977,824,931
978,822,930
979,823,927
980,817,924
981,818,923
982,817,927
983,816,928
984,816,930
985,817,933
986,819,936
987,824,934
988,821,936
989,825,934
990,823,934
991,819,934
992,821,929
993,820,927
994,819,931
995,820,932
996,822,931
997,824,936
998,827,938
999,831,936
1000,830,939
1001,830,935
1002,831,931
1003,829,931
1004,828,930
1005,830,930
1006,830,932
1007,833,935
1008,838,936
1009,841,946
1010,844,952
1011,850,958
1012,865,970
1013,886,989
1014,924,1012
1015,966,1044
1016,1017,1073
1017,1072,1099
1018,1128,1112
1019,1186,1118
1020,1244,1121
1021,1283,1122
1022,1288,1120
1023,1258,1107
1024,1189,1086
1025,1088,1048
1026,965,992
1027,850,924
1028,756,857
1029,697,801
1030,686,778
1031,707,787
1032,748,817
1033,789,854
1034,813,889
1035,825,907
1036,826,919
1037,821,920
1038,818,917
1039,818,918
1040,818,917
1041,822,920
1042,825,925
1043,828,932
1044,832,935
1045,832,938
1046,831,941
1047,829,938
1048,832,941
1049,832,936
1050,829,932
1051,830,937
1052,831,933
1053,828,935
1054,829,934
1055,833,938
1056,832,937
1057,833,939
1058,836,941
1059,837,940
1060,837,941
1061,835,939
1062,832,940
1063,831,938
1064,829,935
1065,828,937
1066,829,939
1067,829,942
1068,831,942
1069,835,945
1070,832,944
1071,839,943
1072,837,943
1073,837,941
1074,837,943
1075,833,943
1076,832,941
1077,835,941
1078,829,941
1079,832,943
1080,833,949
1081,834,947
1082,839,953
1083,839,949
1084,837,948
1085,839,943
1086,835,949
1087,836,944
1088,838,945
1089,838,944
1090,838,945
1091,840,950
1092,843,947
1093,844,955
1094,847,954
1095,849,957
1096,850,958
1097,850,957
1098,847,959
1099,849,956
1100,850,955
1101,850,958
1102,851,956
1103,853,961
1104,857,965
1105,861,966
1106,866,970
1107,868,973
1108,870,971
1109,870,969
1110,871,969
1111,871,966
1112,874,969
1113,877,971
1114,877,975
1115,880,977
1116,887,979
1117,893,984
1118,897,989
1119,901,993
1120,905,992
1121,906,991
1122,907,996
1123,909,992
1124,911,993
1125,911,994
1126,914,1000
1127,917,999
1128,922,1005
1129,929,1007
1130,931,1009
1131,938,1006
1132,934,1009
1133,937,1010
1134,933,1005
1135,934,1005
1136,933,1000
1137,929,1001
1138,927,1000
1139,925,1001
1140,927,1000
1141,927,996
1142,926,993
1143,921,992
1144,915,990
1145,908,987
1146,902,980
1147,898,971
1148,891,969
1149,887,967
1150,882,966
1151,879,965
1152,879,962
1153,876,960
1154,876,959
1155,872,958
1156,869,953
1157,867,950
1158,864,945
1159,858,942
1160,853,941
1161,852,939
1162,851,939
1163,852,938
1164,852,940
1165,852,939
1166,855,942
1167,855,938
1168,852,938
1169,850,934
1170,850,934
1171,850,930
1172,848,930
1173,847,930
1174,846,931
1175,846,935
1176,847,939
1177,849,939
1178,851,939
1179,848,937
1180,849,937
1181,848,936
1182,849,933
1183,846,933
1184,846,931
1185,846,931
1186,845,934
1187,846,933
1188,851,935
1189,849,936
1190,852,938
1191,851,933
1192,850,937
1193,852,936
1194,852,931
1195,851,930
1196,851,931
1197,849,929
1198,846,932
1199,847,935
1200,850,936
1201,853,936
1202,855,941
1203,855,939
1204,856,941
1205,853,940
1206,851,936
1207,849,932
1208,849,934
1209,851,934
1210,853,934
1211,852,937
1212,855,938
1213,855,942
1214,857,944
1215,857,942
1216,856,943
1217,857,940
1218,855,936
1219,853,935
1220,852,932
1221,850,932
1222,849,933
1223,851,936
1224,853,939
1225,851,939
1226,852,943
1227,853,940
1228,853,941
1229,853,938
1230,849,937
1231,847,936
1232,845,933
1233,846,935
1234,845,935
1235,845,936
1236,850,938
1237,849,942
1238,851,941
1239,850,940
1240,851,941
1241,849,937
1242,847,933
1243,847,931
1244,841,928
1245,842,927
1246,841,930
1247,841,929
1248,845,929
1249,844,934
1250,847,933
1251,848,933
1252,850,933
1253,846,933
1254,844,927
1255,842,926
1256,842,927
1257,841,924
1258,839,923
1259,840,927
1260,842,932
1261,844,935
1262,845,936
1263,845,934
1264,845,933
1265,846,932
1266,846,933
1267,843,932
1268,840,927
1269,836,928
1270,837,928
1271,834,931
1272,835,929
1273,843,933
1274,844,934
1275,842,930
1276,845,931
1277,843,929
1278,837,929
1279,837,924
1280,838,924
1281,835,925
1282,835,929
1283,838,930
1284,839,932
1285,839,933
1286,843,934
1287,843,935
1288,844,933
1289,843,934
1290,841,932
1291,841,930
1292,839,931
1293,837,926
1294,838,929
1295,836,933
1296,839,930
1297,840,931
1298,841,931
1299,841,930
1300,843,931
1301,842,929
1302,842,927
1303,839,926
1304,839,923
1305,836,927
1306,834,926
1307,839,927
1308,838,930
1309,843,931
1310,843,933
1311,843,933
1312,843,931
1313,844,932
1314,840,933
1315,840,930
1316,838,930
1317,837,932
1318,836,931
1319,838,931
1320,839,932
1321,839,932
1322,840,933
1323,842,934
1324,843,934
1325,843,932
1326,841,930
1327,837,929
1328,838,923
1329,836,928
1330,835,925
1331,836,927
1332,834,930
1333,836,931
1334,836,933
1335,838,930
1336,835,934
1337,840,930
1338,835,929
1339,833,928
1340,833,926
1341,833,927
1342,833,930
1343,833,931
1344,836,930
1345,836,933
1346,837,935
1347,836,935
1348,838,933
1349,840,931
1350,839,932
1351,837,927
1352,837,925
1353,837,928
1354,837,925
1355,835,931
1356,835,931
1357,837,930
1358,838,934
1359,843,929
1360,841,931
1361,841,928
1362,837,924
1363,837,922
1364,835,924
1365,835,923
1366,834,926
1367,833,931
1368,834,927
1369,838,933
1370,843,934
1371,841,935
1372,839,933
1373,839,932
1374,838,930
1375,837,929
1376,834,927
1377,836,927
1378,835,926
1379,833,931
1380,839,932
1381,838,932
1382,841,937
1383,841,934
1384,838,932
1385,841,926
1386,838,930
1387,838,922
1388,837,923
1389,836,925
1390,836,922
1391,838,928
1392,839,928
1393,842,934
1394,842,935
1395,845,937
1396,844,936
1397,842,930
1398,841,933
1399,839,931
1400,836,927
1401,836,928
1402,836,930
1403,838,932
1404,836,930
1405,843,936
1406,845,937
1407,848,934
1408,849,932
1409,846,932
1410,845,929
1411,844,928
1412,845,927
1413,847,929
1414,853,928
1415,857,929
1416,860,933
1417,862,932
1418,865,934
1419,866,935
1420,866,937
1421,867,934
1422,870,937
1423,873,934
1424,878,937
1425,882,937
1426,883,942
1427,885,942
1428,887,944
1429,886,948
1430,885,950
1431,885,948
1432,880,949
1433,877,945
1434,874,946
1435,874,943
1436,871,945
1437,873,946
1438,871,949
1439,870,946
1440,867,951
1441,862,945
1442,856,946
1443,851,943
1444,850,940
1445,845,937
1446,840,934
1447,838,930
1448,836,930
1449,833,930
1450,830,931
1451,830,932
1452,830,933
1453,830,939
1454,834,935
1455,837,937
1456,834,935
1457,834,935
1458,832,935
1459,829,930
1460,828,933
1461,826,927
1462,825,934
1463,829,932
1464,827,933
1465,831,933
1466,834,937
1467,836,937
1468,835,933
1469,833,932
1470,834,931
1471,830,930
1472,829,930
1473,830,927
1474,831,932
1475,827,934
1476,833,933
1477,834,936
1478,835,940
1479,837,938
1480,839,942
1481,840,938
1482,838,937
1483,840,936
1484,842,934
1485,841,936
1486,841,939
1487,843,943
1488,849,948
1489,856,952
1490,863,964
1491,883,981
1492,915,1004
1493,960,1034
1494,1019,1073
1495,1077,1097
1496,1140,1114
1497,1203,1126
1498,1260,1130
1499,1287,1128
1500,1276,1118
1501,1222,1094
1502,1130,1062
1503,1009,1007
1504,882,938
1505,780,869
1506,713,811
1507,693,781
1508,710,784
1509,744,807
1510,782,845
1511,805,878
1512,817,902
1513,822,913
1514,822,921
1515,822,920
1516,827,920
1517,831,920
1518,838,922
1519,839,923
1520,836,926
1521,835,925
1522,832,927
1523,831,929
1524,833,931
1525,837,936
1526,839,933
1527,837,938
1528,840,938
1529,838,939
1530,837,937
1531,838,937
1532,837,934
1533,834,936
1534,835,936
1535,837,939
1536,835,937
1537,837,942
1538,838,945
1539,840,946
1540,839,949
1541,842,945
1542,839,946
1543,836,941
1544,838,939
1545,835,940
1546,835,939
1547,835,940
1548,837,939
1549,840,943
1550,840,946
1551,842,944
1552,842,947
1553,842,944
1554,839,943
1555,836,943
1556,834,943
1557,832,943
1558,834,944
1559,840,947
1560,840,950
1561,842,948
1562,847,952
1563,849,953
1564,848,950
1565,847,950
1566,847,948
1567,845,945
1568,846,947
1569,844,946
1570,845,948
1571,848,952
1572,847,954
1573,851,954
1574,853,955
1575,855,955
1576,857,955
1577,857,952
1578,856,956
1579,860,955
1580,862,953
1581,860,956
1582,862,961
1583,864,963
1584,867,966
1585,870,967
1586,873,973
1587,878,971
1588,880,973
1589,884,976
1590,886,975
1591,887,973
1592,887,974
1593,889,977
1594,890,978
1595,895,982
1596,896,986
1597,900,991
1598,905,991
1599,909,991
1600,913,994
1601,918,994
1602,915,993
1603,918,992
1604,920,992
1605,918,990
1606,920,995
1607,925,998
1608,928,1000
1609,932,1001
1610,933,1003
1611,933,1003
1612,939,1007
1613,940,1003
1614,939,1002
1615,934,998
1616,931,996
1617,930,994
1618,926,995
1619,925,995
1620,917,993
1621,915,992
1622,913,992
1623,915,988
1624,910,985
1625,906,978
1626,896,974
1627,890,969
1628,884,960
1629,880,958
1630,877,957
1631,874,952
1632,870,952
1633,864,949
1634,863,949
1635,864,946
1636,862,947
1637,859,946
1638,856,943
1639,855,940
1640,851,941
1641,848,940
1642,846,937
1643,844,938
1644,845,938
1645,844,941
1646,848,940
1647,849,939
1648,847,939
1649,845,936
1650,845,937
1651,842,937
1652,841,932
1653,839,932
1654,839,933
1655,840,933
1656,841,933
1657,843,933
1658,844,934
1659,848,936
1660,848,935
1661,847,933
1662,848,934
1663,844,933
1664,842,929
1665,841,930
1666,839,929
1667,841,934
1668,841,933
1669,845,941
1670,845,941
1671,849,942
1672,850,942
1673,849,940
1674,848,937
1675,844,935
1676,842,932
1677,844,933
1678,844,933
1679,844,935
1680,846,935
1681,847,933
1682,845,936
1683,851,938
1684,852,940
1685,850,940
1686,851,939
1687,848,937
1688,846,935
1689,844,934
1690,844,936
1691,844,937
1692,846,938
1693,848,942
1694,851,945
1695,849,943
1696,849,944
1697,851,942
1698,849,942
1699,846,937
1700,843,938
1701,846,937
1702,844,936
1703,843,939
1704,844,938
1705,843,941
1706,845,943
1707,844,943
1708,844,941
1709,844,937
1710,842,936
1711,840,935
1712,841,932
1713,836,934
1714,835,929
1715,833,931
1716,834,933
1717,837,935
1718,838,939
1719,842,937
1720,842,938
1721,839,938
1722,835,936
1723,832,934
1724,833,933
1725,833,933
1726,832,932
1727,831,934
1728,834,935
1729,833,937
1730,837,943
1731,835,939
1732,839,937
1733,840,936
1734,839,932
1735,837,931
1736,834,929
1737,833,929
1738,832,930
1739,831,930
1740,833,933
1741,835,931
1742,838,937
1743,841,938
1744,840,939
1745,837,934
1746,835,932
1747,833,930
1748,830,930
1749,829,930
1750,831,927
1751,833,930
1752,836,934
1753,834,935
1754,835,939
1755,837,938
1756,837,938
1757,837,937
1758,832,931
1759,832,928
1760,833,929
1761,830,931
1762,831,931
1763,832,930
1764,832,930
1765,834,933
1766,835,931
1767,839,932
1768,838,934
1769,842,933
1770,839,930
1771,836,928
1772,836,928
1773,832,929
1774,832,930
1775,833,930
1776,834,932
1777,834,930
1778,836,935
1779,837,936
1780,837,936
1781,838,934
1782,837,932
1783,838,932
1784,835,929
1785,836,929
1786,834,929
1787,834,928
1788,834,928
1789,835,931
1790,839,931
1791,839,935
1792,839,933
1793,838,932
1794,835,932
1795,834,930
1796,833,928
1797,833,926
1798,832,927
1799,833,929
1800,833,931
1801,837,936
1802,838,936
1803,840,936
1804,843,936
1805,843,937
1806,841,935
1807,838,933
1808,834,931
1809,829,929
1810,832,931
1811,833,930
1812,832,936
1813,836,936
1814,840,940
1815,843,940
1816,842,937
1817,845,936
1818,840,935
1819,837,932
1820,834,928
1821,836,929
1822,836,927
1823,833,931
1824,836,934
1825,839,934
1826,842,935
1827,841,936
1828,840,938
1829,840,939
1830,838,938
1831,839,934
1832,838,933
1833,838,932
1834,838,933
1835,841,935
1836,840,933
1837,840,940
1838,848,943
1839,851,939
1840,855,939
1841,859,938
1842,862,937
1843,859,933
1844,858,934
1845,859,931
1846,859,929
1847,860,930
1848,864,932
1849,868,938
1850,878,941
1851,885,946
1852,888,943
1853,889,948
1854,890,947
1855,886,946
1856,882,944
1857,876,943
1858,872,945
1859,866,945
1860,870,952
1861,872,951
1862,876,953
1863,877,957
1864,875,955
1865,870,951
1866,864,953
1867,853,947
1868,845,939
1869,839,936
1870,836,937
1871,836,937
1872,835,938
1873,837,940
1874,835,939
1875,835,939
1876,834,939
1877,832,938
1878,830,933
1879,830,931
1880,827,929
1881,825,930
1882,822,932
1883,825,936
1884,823,938
1885,826,940
1886,827,941
1887,833,940
1888,833,940
1889,833,941
1890,830,943
1891,828,941
1892,825,940
1893,826,935
1894,825,932
1895,823,936
1896,827,936
1897,829,936
1898,833,940
1899,834,941
1900,837,940
1901,833,938
1902,835,939
1903,834,938
1904,833,936
1905,835,934
1906,831,935
1907,834,937
1908,838,938
1909,840,943
1910,845,946
1911,846,947
1912,850,944
1913,852,948
1914,852,951
1915,850,953
1916,849,957
1917,860,967
1918,887,987
1919,928,1018
1920,986,1060
1921,1046,1095
1922,1109,1126
1923,1174,1144
1924,1236,1149
1925,1281,1148
1926,1286,1133
1927,1250,1106
1928,1173,1070
1929,1060,1023
1930,932,961
1931,810,893
1932,720,827
1933,674,781
1934,668,764
1935,691,772
1936,726,801
1937,759,834
1938,780,861
1939,791,883
1940,799,898
1941,804,908
1942,812,914
1943,818,923
1944,826,923
1945,833,930
1946,838,934
1947,838,933
1948,836,934
1949,837,936
1950,836,935
1951,835,939
1952,836,939
1953,834,936
1954,833,939
1955,833,939
1956,830,941
1957,831,945
1958,836,947
1959,837,950
1960,837,946
1961,843,947
1962,842,945
1963,837,942
1964,837,941
1965,835,944
1966,834,944
1967,834,946
1968,835,948
1969,838,954
1970,840,955
1971,840,957
1972,841,952
1973,843,954
1974,843,949
1975,837,947
1976,836,948
1977,833,946
1978,832,945
1979,833,945
1980,835,947
1981,838,947
1982,837,950
1983,842,953
1984,844,953
1985,844,951
1986,841,952
1987,839,953
1988,838,950
1989,832,951
1990,833,953
1991,836,953
1992,836,952
1993,841,954
1994,842,957
1995,844,958
1996,849,958
1997,850,958
1998,849,955
1999,850,957
2000,847,956
2001,847,958
2002,847,956
2003,849,957
2004,851,962
2005,854,963
2006,857,966
2007,867,967
2008,870,967
2009,871,969
2010,869,969
2011,869,970
2012,869,969
2013,870,974
2014,872,978
2015,873,979
2016,875,982
2017,883,986
2018,887,991
2019,894,993
2020,895,992
2021,898,992
2022,897,992
2023,899,994
2024,898,992
2025,902,993
2026,903,996
2027,906,997
2028,910,1001
2029,914,1003
2030,918,1005
2031,925,1003
2032,928,1002
2033,928,1005
2034,930,1003
2035,930,1000
2036,926,1000
2037,925,998
2038,923,999
2039,924,1002
2040,921,1004
2041,923,1004
2042,926,1003
2043,924,1004
2044,920,999
2045,912,998
2046,910,992
2047,902,988
2048,896,976
2049,894,976
2050,889,972
2051,882,967
2052,883,969
2053,880,967
2054,874,967
2055,874,968
2056,872,963
2057,869,958
2058,866,955
2059,862,952
2060,857,947
2061,852,949
2062,851,945
2063,850,945
2064,847,946
2065,852,947
2066,852,946
2067,854,947
2068,855,948
2069,854,946
2070,850,947
2071,848,944
2072,847,941
2073,845,940
2074,843,940
2075,845,944
2076,847,945
2077,849,947
2078,850,947
2079,851,948
2080,850,949
2081,851,946
2082,850,943
2083,847,942
2084,847,939
2085,844,938
2086,844,940
2087,847,935
2088,848,940
2089,847,940
2090,848,944
2091,849,945
2092,850,945
2093,848,946
2094,851,946
2095,853,945
2096,854,947
2097,848,945
2098,848,945
2099,851,945
2100,851,946
2101,857,950
2102,855,952
2103,858,952
2104,861,952
2105,859,951
2106,860,953
2107,856,947
2108,857,949
2109,856,942
2110,856,949
2111,854,944
2112,854,947
2113,855,949
2114,861,949
2115,860,951
2116,862,950
2117,860,952
2118,858,952
2119,857,947
2120,854,948
2121,853,943
2122,853,945
2123,852,946
2124,855,948
2125,856,948
2126,860,953
2127,860,955
2128,860,951
2129,861,949
2130,859,950
2131,854,946
2132,855,944
2133,850,942
2134,849,945
2135,847,945
2136,850,944
2137,854,944
2138,852,948
2139,855,947
2140,858,948
2141,858,945
2142,856,940
2143,852,939
2144,850,935
2145,848,934
2146,848,937
2147,849,937
2148,848,938
2149,850,939
2150,851,944
2151,852,945
2152,848,941
2153,851,943
2154,851,941
2155,849,938
2156,846,938
2157,846,936
2158,842,937
2159,845,937
2160,844,938
2161,849,939
2162,848,938
2163,850,939
2164,848,939
2165,851,939
2166,851,939
2167,847,936
2168,846,932
2169,846,932
2170,844,930
2171,844,930
2172,847,934
2173,844,932
2174,845,933
2175,846,935
2176,849,933
2177,845,931
2178,845,932
2179,844,933
2180,843,930
2181,843,929
2182,843,929
2183,843,932
2184,842,934
2185,845,934
2186,847,932
2187,848,937
2188,845,933
2189,848,934
2190,847,931
2191,848,933
2192,847,930
2193,846,929
2194,844,927
2195,847,930
2196,841,929
2197,843,932
2198,843,934
2199,849,933
2200,848,928
2201,846,929
2202,848,927
2203,844,924
2204,845,922
2205,842,925
2206,839,925
2207,839,928
2208,842,930
2209,846,930
2210,845,931
2211,850,932
2212,848,930
2213,850,929
2214,848,927
2215,847,928
2216,847,926
2217,843,925
2218,843,924
2219,841,925
2220,845,928
2221,846,929
2222,848,930
2223,846,929
2224,849,927
2225,848,929
2226,848,923
2227,849,923
2228,845,920
2229,844,920
2230,843,920
2231,844,920
2232,842,923
2233,844,927
2234,845,927
2235,849,930
2236,850,925
2237,849,927
2238,847,926
2239,845,924
2240,845,922
2241,845,924
2242,843,921
2243,844,920
2244,844,925
2245,847,926
2246,849,929
2247,852,929
2248,857,927
2249,860,927
2250,861,923
2251,859,922
2252,861,920
2253,861,920
2254,861,921
2255,864,920
2256,863,926
2257,865,924
2258,867,923
2259,874,927
2260,881,927
2261,883,931
2262,890,930
2263,889,930
2264,886,932
2265,887,931
2266,885,927
2267,876,933
2268,880,930
2269,879,937
2270,882,938
2271,881,939
2272,882,941
2273,877,944
2274,877,941
2275,872,940
2276,871,935
2277,864,933
2278,858,931
2279,848,928
2280,843,928
2281,842,926
2282,838,924
2283,842,924
2284,841,925
2285,840,922
2286,838,921
2287,835,917
2288,833,916
2289,829,914
2290,829,917
2291,829,917
2292,830,921
2293,831,920
2294,829,925
2295,830,925
2296,834,925
2297,831,921
2298,829,922
2299,826,917
2300,823,916
2301,824,914
2302,822,917
2303,823,920
2304,827,920
2305,826,919
2306,831,923
2307,833,921
2308,834,920
2309,835,920
2310,833,918
2311,833,918
2312,832,915
2313,830,915
2314,831,913
2315,832,916
2316,836,916
2317,832,919
2318,839,921
2319,839,923
2320,840,923
2321,837,922
2322,840,925
2323,839,921
2324,840,919
2325,836,922
2326,839,922
2327,843,922
2328,848,929
2329,856,936
2330,862,941
2331,877,956
2332,902,973
2333,943,996
2334,991,1024
2335,1040,1062
2336,1092,1086
2337,1145,1098
2338,1203,1103
2339,1254,1105
2340,1297,1102
2341,1304,1101
2342,1275,1090
2343,1213,1068
2344,1118,1031
2345,1000,978
2346,873,913
2347,764,844
2348,693,782
2349,672,747
2350,684,745
2351,720,765
2352,758,801
2353,790,841
2354,807,866
2355,812,886
2356,810,893
2357,809,898
2358,812,895
2359,814,897
2360,823,900
2361,827,900
2362,834,907
2363,833,908
2364,835,912
2365,835,916
2366,834,919
2367,837,917
2368,836,920
2369,837,919
2370,836,923
2371,834,917
2372,832,915
2373,833,919
2374,830,920
2375,831,922
2376,835,922
2377,836,924
2378,839,930
2379,839,930
2380,839,929
2381,837,927
2382,836,926
2383,836,928
2384,835,926
2385,834,924
2386,832,923
2387,834,928
2388,833,925
2389,835,927
2390,835,930
2391,837,931
2392,842,930
2393,839,930
2394,841,927
2395,839,925
2396,837,921
2397,836,920
2398,834,921
2399,831,924
2400,834,925
2401,838,929
2402,839,933
2403,841,934
2404,843,935
2405,843,934
2406,843,933
2407,843,930
2408,841,930
2409,841,927
2410,840,931
2411,840,932
2412,843,933
2413,844,934
2414,847,936
2415,847,941
2416,849,940
2417,853,940
2418,853,938
2419,853,937
2420,849,935
2421,852,937
2422,853,936
2423,854,939
2424,856,940
2425,860,944
2426,865,947
2427,870,953
2428,869,954
2429,873,952
2430,874,958
2431,878,955
2432,875,956
2433,879,957
2434,881,959
2435,884,962
2436,889,967
2437,895,966
2438,900,973
2439,904,976
2440,909,978
2441,912,978
2442,915,980
2443,918,979
2444,919,978
2445,919,977
2446,923,978
2447,926,980
2448,928,984
2449,933,987
2450,938,988
2451,942,991
2452,944,990
2453,946,992
2454,946,990
2455,944,989
2456,941,989
2457,941,988
2458,936,986
2459,935,985
2460,932,982
2461,932,980
2462,931,979
2463,926,979
2464,920,973
2465,915,968
2466,909,966
2467,904,959
2468,895,952
2469,891,947
2470,885,943
2471,879,940
2472,874,939
2473,873,937
2474,870,933
2475,869,935
2476,867,931
2477,864,929
2478,860,925
2479,857,921
2480,853,917
2481,848,914
2482,850,915
2483,848,915
2484,847,918
2485,849,923
2486,849,920
2487,849,922
2488,850,918
2489,850,919
2490,846,915
2491,847,912
2492,842,910
2493,844,913
2494,842,911
2495,839,910
2496,840,912
2497,840,916
2498,844,918
2499,845,916
2500,845,916
2501,846,916
2502,845,913
2503,841,908
2504,839,911
2505,838,907
2506,839,909
2507,838,908
2508,839,910
2509,842,912
2510,842,914
2511,846,917
2512,846,916
2513,847,914
2514,846,912
2515,846,915
2516,846,912
2517,842,912
2518,842,912
2519,843,915
2520,842,914
2521,842,918
2522,847,920
2523,848,923
2524,850,917
2525,851,921
2526,853,918
2527,849,918
2528,847,912
2529,846,912
2530,841,913
2531,841,910
2532,845,917
2533,847,915
2534,847,919
2535,849,922
2536,854,924
2537,851,924
2538,852,925
2539,849,919
2540,847,919
2541,846,917
2542,844,917
2543,843,918
2544,846,917
2545,846,919
2546,848,921
2547,849,925
2548,849,920
2549,849,922
2550,845,921
2551,845,920
2552,841,915
2553,838,915
2554,840,914
2555,839,914
2556,839,913
2557,840,914
2558,840,919
2559,842,917
2560,842,915
2561,841,916
2562,842,915
2563,839,913
2564,833,913
2565,831,910
2566,830,909
2567,833,907
2568,834,910
2569,834,912
2570,836,912
2571,839,918
2572,839,910
2573,837,911
2574,837,910
2575,834,910
2576,833,906
2577,830,905
2578,832,906
2579,831,906
2580,830,909
2581,833,908
2582,833,908
2583,836,911
2584,839,908
2585,839,906
2586,839,906
2587,834,904
2588,832,902
2589,832,904
2590,829,901
2591,829,904
2592,827,906
2593,829,909
2594,832,910
2595,835,915
2596,836,909
2597,834,907
2598,835,907
2599,832,906
2600,832,900
2601,829,899
2602,828,902
2603,828,902
2604,830,905
2605,830,907
2606,832,908
2607,833,912
2608,836,907
2609,833,906
2610,830,905
2611,828,901
2612,828,899
2613,828,898
2614,826,899
2615,824,898
2616,828,901
2617,826,903
2618,828,904
2619,832,907
2620,834,907
2621,834,906
2622,831,904
2623,833,903
2624,831,902
2625,829,900
2626,829,901
2627,827,903
2628,829,906
2629,827,904
2630,828,910
2631,830,906
2632,832,904
2633,831,903
2634,830,903
2635,827,901
2636,828,901
2637,825,898
2638,822,898
2639,820,901
2640,820,900
2641,826,900
2642,825,903
2643,828,902
2644,828,904
2645,831,902
2646,830,902
2647,830,900
2648,827,896
2649,826,900
2650,826,898
2651,827,899
2652,824,901
2653,822,903
2654,824,905
2655,829,906
2656,833,908
2657,833,904
2658,833,903
2659,829,901
2660,825,899
2661,825,898
2662,822,899
2663,824,901
2664,826,901
2665,826,902
2666,829,904
2667,829,908
2668,831,907
2669,832,905
2670,830,900
2671,829,900
2672,830,898
2673,826,898
2674,825,900
2675,827,897
2676,826,899
2677,826,903
2678,829,905
2679,834,904
2680,834,907
2681,834,907
2682,834,903
2683,833,905
2684,831,899
2685,828,900
2686,827,900
2687,830,900
2688,829,901
2689,831,901
2690,833,903
2691,836,906
2692,835,903
2693,837,902
2694,829,902
2695,825,898
2696,826,901
2697,826,897
2698,827,894
2699,826,897
2700,832,902
2701,830,900
2702,830,903
2703,834,904
2704,835,909
2705,836,904
2706,835,904
2707,835,902
2708,833,900
2709,829,899
2710,827,899
2711,827,899
2712,828,901
2713,832,905
2714,832,908
2715,831,909
2716,835,907
2717,836,908
2718,834,906
2719,834,903
2720,832,901
2721,828,901
2722,826,900
2723,830,899
2724,828,899
2725,832,901
2726,835,904
2727,835,907
2728,838,909
2729,835,909
2730,836,907
2731,835,904
2732,834,906
2733,834,902
2734,834,901
2735,834,901
2736,837,906
2737,843,907
2738,848,908
2739,852,912
2740,856,909
2741,857,910
2742,861,910
2743,860,908
2744,856,907
2745,856,904
2746,858,901
2747,861,904
2748,867,907
2749,872,912
2750,878,911
2751,883,918
2752,882,919
2753,880,918
2754,877,916
2755,876,914
2756,871,909
2757,866,912
2758,863,914
2759,859,915
2760,861,918
2761,861,922
2762,865,926
2763,860,925
2764,862,925
2765,859,924
2766,853,923
2767,848,916
2768,841,912
2769,832,909
2770,825,909
2771,822,906
2772,821,907
2773,822,906
2774,822,908
2775,823,910
2776,824,908
2777,825,910
2778,823,910
2779,820,906
2780,820,900
2781,820,902
2782,816,901
2783,816,905
2784,818,907
2785,815,909
2786,818,909
2787,821,909
2788,822,910
2789,821,911
2790,821,912
2791,819,911
2792,819,907
2793,818,903
2794,818,906
2795,818,910
2796,815,910
2797,818,911
2798,820,909
2799,823,917
2800,824,914
2801,822,910
2802,825,908
2803,824,911
2804,825,907
2805,824,907
2806,823,908
2807,826,909
2808,825,910
2809,829,915
2810,835,916
2811,839,922
2812,843,928
2813,850,934
2814,870,942
2815,897,970
2816,945,996
2817,1002,1033
2818,1064,1065
2819,1130,1088
2820,1198,1103
2821,1261,1109
2822,1296,1108
2823,1296,1104
2824,1247,1090
2825,1153,1055
2826,1028,1009
2827,900,943
2828,780,871
2829,702,802
2830,674,764
2831,690,755
2832,725,781
2833,765,819
2834,792,852
2835,811,880
2836,815,892
2837,810,898
2838,809,894
2839,808,892
2840,814,893
2841,817,893
2842,821,896
2843,826,898
2844,824,902
2845,824,906
2846,826,910
2847,825,911
2848,825,912
2849,827,910
2850,826,912
2851,825,910
2852,822,908
2853,821,904
2854,821,906
2855,818,907
2856,822,906
2857,823,909
2858,823,914
2859,827,915
2860,826,914
2861,828,916
2862,828,914
2863,825,915
2864,822,913
2865,820,910
2866,821,912
2867,819,914
2868,819,914
2869,819,915
2870,820,919
2871,823,919
2872,827,921
2873,830,919
2874,830,918
2875,827,920
2876,826,916
2877,824,913
2878,824,913
2879,823,913
2880,823,915
2881,825,915
2882,828,920
2883,827,922
2884,828,923
2885,829,921
2886,828,922
2887,829,918
2888,825,920
2889,823,919
2890,825,920
2891,824,923
2892,829,923
2893,832,924
2894,836,928
2895,837,931
2896,839,930
2897,843,930
2898,838,930
2899,840,930
2900,842,930
2901,840,927
2902,839,929
2903,838,932
2904,844,930
2905,848,934
2906,850,939
2907,855,942
2908,860,941
2909,862,944
2910,864,946
2911,865,942
2912,866,943
2913,868,946
2914,868,947
2915,873,949
2916,875,955
2917,882,961
2918,888,964
2919,892,970
2920,897,973
2921,898,972
2922,898,971
2923,902,973
2924,905,976
2925,908,974
2926,910,978
2927,912,975
2928,915,978
2929,920,982
2930,924,988
2931,927,986
2932,932,987
2933,932,984
2934,937,984
2935,937,982
2936,934,981
2937,930,981
2938,930,977
2939,929,974
2940,926,974
2941,923,980
2942,919,979
2943,920,977
2944,918,971
2945,911,970
2946,908,965
2947,901,958
2948,895,951
2949,887,950
2950,882,943
2951,876,939
2952,871,937
2953,865,937
2954,864,934
2955,857,935
2956,858,930
2957,854,927
2958,852,922
2959,849,920
2960,846,916
2961,843,910
2962,841,915
2963,841,911
2964,841,913
2965,840,914
2966,844,914
2967,842,918
2968,846,919
2969,844,916
2970,841,916
2971,841,915
2972,839,911
2973,839,910
2974,838,909
2975,835,908
2976,835,913
2977,839,914
2978,840,915
2979,839,917
2980,842,916
2981,844,911
2982,844,912
2983,842,909
2984,841,909
2985,839,909
2986,837,907
2987,837,909
2988,840,912
2989,841,910
2990,843,914
2991,845,917
2992,848,918
2993,847,916
2994,848,916
2995,846,918
2996,845,915
2997,846,914
2998,842,912
2999,842,915
3000,840,917
3001,844,917
3002,845,917
3003,847,923
3004,849,922
3005,850,923
3006,852,920
3007,846,918
3008,849,915
3009,845,917
3010,843,913
3011,842,915
3012,842,917
3013,847,918
3014,849,918
3015,846,922
3016,852,923
3017,848,921
3018,852,921
3019,846,919
3020,846,919
3021,845,916
3022,845,917
3023,844,917
3024,842,918
3025,844,920
3026,846,922
3027,847,922
3028,848,920
3029,847,921
3030,848,923
3031,848,920
3032,845,914
3033,843,912
3034,839,912
3035,838,913
3036,837,914
3037,840,916
3038,842,912
3039,843,914
3040,844,917
3041,844,917
3042,845,914
3043,843,910
3044,839,913
3045,839,910
3046,837,913
3047,835,912
3048,837,911
3049,837,910
3050,839,912
3051,841,917
3052,843,917
3053,843,915
3054,844,916
3055,840,913
3056,838,909
3057,835,908
3058,835,907
3059,835,908
3060,834,909
3061,837,912
3062,841,910
3063,843,916
3064,843,911
3065,845,913
3066,839,909
3067,840,906
3068,836,909
3069,837,907
3070,837,906
3071,835,910
3072,832,908
3073,836,910
3074,838,911
3075,838,913
3076,841,916
3077,842,915
3078,843,912
3079,839,913
3080,838,910
3081,839,912
3082,835,908
3083,835,910
3084,834,910
3085,836,913
3086,837,911
3087,838,917
3088,839,918
3089,840,915
3090,835,911
3091,838,906
3092,831,906
3093,833,904
3094,835,904
3095,832,906
3096,832,911
3097,835,911
3098,834,916
3099,836,916
3100,839,917
3101,841,917
3102,837,914
3103,836,912
3104,834,913
3105,832,911
3106,830,910
3107,831,908
3108,831,908
3109,833,912
3110,835,913
3111,837,915
3112,834,916
3113,836,914
3114,836,912
3115,837,911
3116,835,907
3117,834,910
3118,832,904
3119,831,908
3120,834,913
3121,835,910
3122,834,908
3123,836,913
3124,839,912
3125,839,912
3126,839,914
3127,839,914
3128,837,914
3129,834,909
3130,833,911
3131,830,910
3132,830,907
3133,832,910
3134,837,911
3135,837,915
3136,839,914
3137,841,915
3138,841,916
3139,840,914
3140,836,912
3141,836,909
3142,833,909
3143,830,904
3144,832,906
3145,831,907
3146,830,910
3147,834,910
3148,837,915
3149,838,910
3150,841,912
3151,840,910
3152,837,908
3153,836,905
3154,832,908
3155,834,909
3156,833,908
3157,834,911
3158,835,912
3159,836,913
3160,840,916
3161,840,914
3162,839,911
3163,836,909
3164,832,913
3165,832,907
3166,831,907
3167,835,908
3168,835,907
3169,840,911
3170,844,914
3171,848,917
3172,852,915
3173,855,917
3174,858,917
3175,862,911
3176,859,909
3177,856,905
3178,854,902
3179,849,905
3180,852,911
3181,859,913
3182,866,915
3183,878,919
3184,887,923
3185,888,924
3186,890,926
3187,883,925
3188,880,920
3189,877,921
3190,870,923
3191,868,919
3192,865,924
3193,865,927
3194,868,931
3195,869,930
3196,868,931
3197,868,928
3198,864,927
3199,858,921
3200,851,919
3201,841,914
3202,836,909
3203,829,906
3204,826,906
3205,826,907
3206,829,912
3207,831,911
3208,830,913
3209,832,914
3210,830,911
3211,826,913
3212,826,912
3213,822,910
3214,822,907
3215,820,910
3216,819,912
3217,820,914
3218,822,913
3219,823,915
3220,827,918
3221,829,918
3222,826,915
3223,828,917
3224,826,912
3225,823,911
3226,824,906
3227,822,910
3228,821,909
3229,826,908
3230,828,913
3231,828,912
3232,831,914
3233,828,914
3234,830,911
3235,826,913
3236,829,913
3237,827,914
3238,830,914
3239,829,913
3240,832,914
3241,830,917
3242,834,916
3243,836,920
3244,840,920
3245,840,924
3246,845,925
3247,844,925
3248,847,923
3249,848,929
3250,855,938
3251,877,952
3252,912,979
3253,962,1014
3254,1018,1047
3255,1072,1077
3256,1131,1102
3257,1191,1111
3258,1243,1118
3259,1281,1111
3260,1287,1105
3261,1253,1088
3262,1189,1068
3263,1098,1033
3264,990,984
3265,881,933
3266,785,879
3267,716,820
3268,687,782
3269,684,760
3270,704,764
3271,734,781
3272,759,810
3273,775,835
3274,780,858
3275,781,873
3276,784,880
3277,794,891
3278,806,898
3279,817,903
3280,826,907
3281,836,909
3282,837,911
3283,832,913
3284,826,909
3285,824,909
3286,822,911
3287,823,913
3288,823,915
3289,826,916
3290,826,918
3291,827,921
3292,829,921
3293,829,925
3294,831,926
3295,828,923
3296,832,920
3297,829,922
3298,829,921
3299,827,922
3300,828,921
3301,832,925
3302,832,928
3303,833,930
3304,833,931
3305,833,927
3306,836,929
3307,836,925
3308,831,923
3309,830,921
3310,830,919
3311,831,923
3312,830,921
3313,834,923
3314,836,928
3315,834,929
3316,834,930
3317,836,930
3318,836,931
3319,834,932
3320,829,927
3321,830,927
3322,830,923
3323,832,925
3324,830,928
3325,832,930
3326,833,932
3327,835,934
3328,839,935
3329,842,934
3330,842,936
3331,843,934
3332,843,934
3333,840,931
3334,840,933
3335,842,930
3336,843,931
3337,845,936
3338,848,936
3339,850,939
3340,854,944
3341,855,943
3342,857,947
3343,858,945
3344,860,946
3345,855,943
3346,856,944
3347,856,947
3348,858,949
3349,862,953
3350,868,955
3351,873,961
3352,878,963
3353,882,963
3354,884,963
3355,886,963
3356,886,964
3357,887,966
3358,892,965
3359,891,969
3360,892,971
3361,900,972
3362,905,978
3363,912,977
3364,915,979
3365,921,983
3366,926,984
3367,924,981
3368,929,983
3369,927,983
3370,929,987
3371,930,984
3372,929,988
3373,934,992
3374,935,993
3375,940,997
3376,944,996
3377,942,996
3378,941,992
3379,940,991
3380,936,986
3381,929,983
3382,927,979
3383,922,976
3384,917,975
3385,912,975
3386,911,973
3387,907,969
3388,903,969
3389,899,961
3390,894,961
3391,887,951
3392,882,948
3393,874,940
3394,869,936
3395,864,934
3396,860,931
3397,860,932
3398,859,933
3399,861,934
3400,861,936
3401,862,932
3402,859,933
3403,856,929
3404,854,929
3405,853,927
3406,849,925
3407,849,927
3408,850,927
3409,850,930
3410,853,930
3411,854,931
3412,853,929
3413,854,926
3414,853,926
3415,853,922
3416,848,922
3417,846,921
3418,844,918
3419,843,922
3420,842,920
3421,846,924
3422,849,924
3423,852,923
3424,852,928
3425,855,925
3426,857,931
3427,853,930
3428,851,928
3429,847,926
3430,846,922
3431,845,924
3432,843,922
3433,849,925
3434,852,922
3435,855,927
3436,858,929
3437,860,928
3438,859,928
3439,860,928
3440,856,926
3441,855,930
3442,856,927
3443,855,928
3444,854,927
3445,853,929
3446,856,931
3447,861,932
3448,863,934
3449,864,936
3450,866,931
3451,862,935
3452,861,928
3453,859,931
3454,857,929
3455,857,929
3456,856,929
3457,856,933
3458,862,932
3459,862,939
3460,863,939
3461,864,938
3462,865,938
3463,864,939
3464,864,935
3465,859,936
3466,862,933
3467,859,935
3468,859,935
3469,859,931
3470,862,933
3471,863,933
3472,866,932
3473,863,936
3474,866,936
3475,863,933
3476,860,931
3477,857,930
3478,853,928
3479,851,928
3480,854,929
3481,852,929
3482,856,932
3483,858,934
3484,861,933
3485,861,934
3486,857,934
3487,859,931
3488,858,933
3489,858,929
3490,857,928
3491,854,930
3492,850,923
3493,854,929
3494,851,928
3495,854,932
3496,855,933
3497,858,932
3498,855,933
3499,855,927
3500,854,925
3501,855,923
3502,851,923
3503,850,925
3504,850,924
3505,851,925
3506,855,928
3507,855,930
3508,856,929
3509,854,929
3510,857,932
3511,854,929
3512,857,929
3513,854,924
3514,851,924
3515,848,923
3516,849,924
3517,850,929
3518,854,930
3519,853,935
3520,855,935
3521,854,932
3522,855,929
3523,859,926
3524,854,927
3525,854,920
3526,852,920
3527,853,921
3528,854,924
3529,855,928
3530,855,930
3531,856,928
3532,855,931
3533,855,932
3534,855,931
3535,853,930
3536,855,925
3537,856,923
3538,851,922
3539,848,924
3540,851,926
3541,854,927
3542,853,931
3543,857,931
3544,860,933
3545,857,932
3546,860,931
3547,856,929
3548,857,924
3549,857,925
3550,852,923
3551,851,925
3552,850,923
3553,852,923
3554,853,928
3555,857,930
3556,857,928
3557,860,929
3558,861,931
3559,861,925
3560,860,927
3561,857,928
3562,857,926
3563,855,926
3564,856,927
3565,855,929
3566,856,928
3567,855,931
3568,862,934
3569,863,932
3570,865,930
3571,863,929
3572,860,931
3573,861,927
3574,860,926
3575,860,924
3576,862,928
3577,866,927
3578,868,929
3579,871,932
3580,876,930
3581,878,928
3582,881,931
3583,882,928
3584,881,926
3585,883,925
3586,883,926
3587,882,927
3588,887,928
3589,896,931
3590,899,938
3591,905,941
3592,912,945
3593,911,946
3594,908,945
3595,904,945
3596,901,940
3597,899,936
3598,895,934
3599,891,934
3600,894,938
3601,893,941
3602,895,944
3603,896,947
3604,897,949
3605,892,946
3606,884,943
3607,878,939
3608,869,936
3609,864,929
3610,859,926
3611,856,924
3612,853,924
3613,853,925
3614,854,928
3615,854,928
3616,855,932
3617,855,928
3618,854,928
3619,852,928
3620,851,930
3621,846,929
3622,846,928
3623,846,924
3624,847,926
3625,847,926
3626,845,929
3627,847,929
3628,850,932
3629,853,930
3630,849,929
3631,847,928
3632,850,925
3633,846,921
3634,847,923
3635,847,923
3636,847,922
3637,846,925
3638,847,924
3639,849,928
3640,850,930
3641,852,932
3642,850,927
3643,852,927
3644,852,926
3645,851,926
3646,849,922
3647,848,923
3648,848,926
3649,849,931
3650,852,930
3651,857,934
3652,860,936
3653,864,936
3654,865,936
3655,869,937
3656,870,937
3657,872,939
3658,873,944
3659,889,957
3660,919,975
3661,964,1003
3662,1019,1037
3663,1074,1072
3664,1132,1103
3665,1191,1117
3666,1255,1122
3667,1301,1123
3668,1319,1119
3669,1296,1103
3670,1230,1078
3671,1127,1035
3672,999,979
3673,871,909
3674,752,841
3675,686,786
3676,675,758
3677,697,765
3678,735,791
3679,776,826
3680,802,861
3681,820,882
3682,830,894
3683,834,905
3684,839,904
3685,843,908
3686,848,915
3687,853,914
3688,853,916
3689,858,918
3690,857,923
3691,854,919
3692,852,919
3693,854,923
3694,852,919
3695,853,922
3696,853,926
3697,854,926
3698,854,929
3699,857,931
3700,861,934
3701,861,935
3702,861,934
3703,860,932
3704,861,933
3705,858,929
3706,856,930
3707,854,927
3708,857,931
3709,857,932
3710,859,931
3711,862,936
3712,865,934
3713,866,938
3714,866,934
3715,864,933
3716,862,931
3717,861,930
3718,860,925
3719,856,926
3720,855,929
3721,855,931
3722,859,932
3723,861,936
3724,864,939
3725,866,938
3726,865,938
3727,866,938
3728,864,936
3729,864,934
3730,863,931
3731,862,932
3732,864,934
3733,865,939
3734,866,939
3735,870,939
3736,871,944
3737,871,948
3738,875,943
3739,876,943
3740,874,939
3741,871,938
3742,869,938
3743,867,941
3744,869,940
3745,870,941
3746,874,947
3747,877,951
3748,884,954
3749,884,952
3750,885,955
3751,887,956
3752,890,954
3753,889,955
3754,891,954
3755,893,956
3756,896,961
3757,897,963
3758,898,966
3759,906,970
3760,912,977
3761,916,976
3762,920,975
3763,924,981
3764,928,980
3765,930,980
3766,931,981
3767,934,980
3768,937,981
3769,941,986
3770,945,987
3771,949,993
3772,953,995
3773,959,995
3774,958,996
3775,959,999
3776,958,998
3777,961,996
3778,964,992
3779,963,995
3780,963,994
3781,961,996
3782,961,994
3783,960,996
3784,959,994
3785,957,989
3786,953,988
3787,947,980
3788,941,978
3789,934,971
3790,930,964
3791,922,961
3792,919,959
3793,911,956
3794,911,954
3795,907,952
3796,902,951
3797,899,944
3798,895,942
3799,891,940
3800,887,936
3801,885,931
3802,882,933
3803,878,932
3804,874,927
3805,872,930
3806,873,929
3807,872,930
3808,872,929
3809,875,932
3810,874,928
3811,875,927
3812,873,925
3813,868,921
3814,867,921
3815,864,919
3816,864,919
3817,864,921
3818,865,920
3819,869,923
3820,866,922
3821,869,920
3822,869,921
3823,868,918
3824,866,916
3825,863,913
3826,861,913
3827,862,912
3828,860,915
3829,862,919
3830,863,922
3831,864,920
3832,867,923
3833,867,921
3834,867,922
3835,865,921
3836,866,919
3837,864,919
3838,860,917
3839,859,916
3840,859,917
3841,861,920
3842,864,919
3843,866,922
3844,870,925
3845,872,924
3846,869,924
3847,872,921
3848,872,917
3849,867,916
3850,870,914
3851,865,917
3852,866,919
3853,869,919
3854,870,921
3855,868,924
3856,871,926
3857,876,924
3858,877,926
3859,875,924
3860,875,924
3861,874,923
3862,874,922
3863,871,922
3864,870,923
3865,871,921
3866,870,926
3867,873,926
3868,874,926
3869,875,930
3870,873,927
3871,875,922
3872,871,925
3873,868,923
3874,866,920
3875,866,918
3876,865,915
3877,865,919
3878,866,917
3879,866,924
3880,871,922
3881,872,922
3882,870,922
3883,869,921
3884,867,917
3885,865,915
3886,860,913
3887,858,912
3888,858,915
3889,859,919
3890,861,919
3891,862,919
3892,867,921
3893,865,921
3894,868,920
3895,864,921
3896,860,919
3897,860,915
3898,858,912
3899,858,913
3900,858,910
3901,860,914
3902,860,913
3903,864,912
3904,863,916
3905,863,915
3906,863,916
3907,862,914
3908,859,910
3909,857,911
3910,856,908
3911,857,911
3912,853,910
3913,856,909
3914,856,910
3915,858,916
3916,857,913
3917,859,915
3918,856,917
3919,858,915
3920,859,912
3921,853,912
3922,853,909
3923,854,910
3924,854,911
3925,854,907
3926,853,912
3927,856,914
3928,858,912
3929,860,916
3930,859,914
3931,860,909
3932,855,907
3933,853,907
3934,853,902
3935,850,904
3936,851,904
3937,852,908
3938,853,908
3939,852,912
3940,852,913
3941,854,912
3942,852,910
3943,849,908
3944,853,910
3945,849,905
3946,849,905
3947,851,906
3948,850,905
3949,854,907
3950,853,908
3951,855,908
3952,857,910
3953,857,908
3954,857,910
3955,857,907
3956,854,904
3957,850,903
3958,852,903
3959,852,899
3960,853,902
3961,852,902
3962,851,905
3963,854,907
3964,855,907
3965,857,910
3966,857,909
3967,855,907
3968,855,907
3969,853,906
3970,851,906
3971,850,903
3972,852,903
3973,852,907
3974,852,907
3975,857,912
3976,859,914
3977,858,912
3978,857,913
3979,860,910
3980,856,907
3981,856,902
3982,853,903
3983,852,902
3984,851,903
3985,854,897
3986,853,902
3987,851,907
3988,854,909
3989,858,906
3990,858,909
3991,855,908
3992,855,909
3993,853,906
3994,851,902
3995,846,905
3996,849,905
3997,850,905
3998,854,909
3999,854,911
4000,855,915
4001,858,911
4002,859,912
4003,859,909
4004,856,907
4005,853,908
4006,852,906
4007,853,903
4008,852,906
4009,851,905
4010,854,909
4011,853,907
4012,859,910
4013,860,908
4014,856,908
4015,859,908
4016,857,907
4017,854,904
4018,855,901
4019,855,901
4020,854,904
4021,854,908
4022,855,912
4023,856,913
4024,855,915
4025,860,912
4026,863,912
4027,859,910
4028,860,907
4029,856,907
4030,855,909
4031,855,906
4032,854,905
4033,854,906
4034,857,912
4035,859,912
4036,861,912
4037,861,912
4038,863,912
4039,859,908
4040,860,909
4041,856,906
4042,854,906
4043,856,903
4044,855,904
4045,854,907
4046,852,910
4047,856,912
4048,861,913
4049,863,916
4050,861,912
4051,860,913
4052,859,910
4053,860,910
4054,858,908
4055,857,906
4056,856,907
4057,854,907
4058,859,911
4059,860,912
4060,861,917
4061,864,914
4062,866,914
4063,865,913
4064,865,912
4065,865,907
4066,865,908
4067,868,907
4068,870,908
4069,877,906
4070,880,910
4071,882,912
4072,882,916
4073,885,916
4074,886,912
4075,887,914
4076,890,911
4077,890,913
4078,892,913
4079,896,915
4080,896,920
4081,896,918
4082,898,925
4083,896,924
4084,896,923
4085,894,921
4086,892,920
4087,894,921
4088,888,919
4089,885,918
4090,882,920
4091,880,919
4092,880,921
4093,880,923
4094,879,924
4095,878,925
4096,875,923
4097,874,921
4098,868,918
4099,864,915
4100,856,913
4101,851,909
4102,848,907
4103,847,909
4104,844,907
4105,845,905
4106,841,908
4107,841,909
4108,843,913
4109,841,914
4110,847,911
4111,845,909
4112,843,909
4113,844,907
4114,840,907
4115,839,909
4116,835,906
4117,836,907
4118,842,908
4119,845,912
4120,846,910
4121,847,912
4122,849,907
4123,848,904
4124,847,909
4125,846,901
4126,845,901
4127,843,901
4128,842,903
4129,841,906
4130,845,910
4131,846,909
4132,850,913
4133,852,913
4134,851,913
4135,850,913
4136,852,911
4137,852,911
4138,851,907
4139,851,911
4140,854,913
4141,856,917
4142,862,921
4143,864,922
4144,874,931
4145,886,938
4146,907,953
4147,944,972
4148,990,997
4149,1040,1026
4150,1092,1057
4151,1146,1073
4152,1203,1082
4153,1261,1086
4154,1305,1091
4155,1331,1097
4156,1319,1096
4157,1265,1083
4158,1169,1055
4159,1049,1014
4160,921,958
4161,800,888
4162,719,822
4163,690,777
4164,701,760
4165,738,772
4166,780,805
4167,816,839
4168,835,872
4169,839,889
4170,835,895
4171,828,895
4172,831,890
4173,830,891
4174,836,890
4175,839,892
4176,841,896
4177,846,899
4178,847,904
4179,847,906
4180,846,911
4181,846,907
4182,844,908
4183,843,908
4184,841,908
4185,841,907
4186,842,906
4187,841,907
4188,841,908
4189,842,912
4190,844,913
4191,847,914
4192,848,920
4193,848,920
4194,847,918
4195,848,918
4196,848,913
4197,845,915
4198,843,912
4199,844,913
4200,843,913
4201,843,914
4202,844,915
4203,845,918
4204,845,916
4205,849,920
4206,849,918
4207,848,919
4208,848,915
4209,847,913
4210,845,909
4211,842,911
4212,843,914
4213,841,914
4214,844,917
4215,848,919
4216,849,922
4217,848,925
4218,852,926
4219,850,924
4220,851,923
4221,850,921
4222,848,920
4223,850,920
4224,848,923
4225,850,923
4226,847,924
4227,852,929
4228,856,929
4229,859,930
4230,859,928
4231,859,930
4232,857,926
4233,856,929
4234,854,927
4235,855,924
4236,856,925
4237,858,927
4238,861,927
4239,866,934
4240,871,936
4241,870,939
4242,873,940
4243,876,939
4244,877,941
4245,878,944
4246,878,944
4247,881,942
4248,881,947
4249,883,950
4250,888,951
4251,894,957
4252,899,958
4253,902,962
4254,905,965
4255,911,965
4256,913,964
4257,915,965
4258,916,964
4259,921,963
4260,921,967
4261,925,969
4262,929,972
4263,935,976
4264,941,977
4265,944,981
4266,947,981
4267,950,982
4268,952,985
4269,953,981
4270,954,982
4271,952,984
4272,952,984
4273,951,986
4274,956,986
4275,955,986
4276,953,986
4277,953,986
4278,949,982
4279,945,975
4280,939,976
4281,932,965
4282,928,963
4283,921,957
4284,917,955
4285,916,953
4286,909,949
4287,906,947
4288,902,943
4289,897,941
4290,894,936
4291,889,934
4292,887,929
4293,881,926
4294,875,923
4295,871,921
4296,869,920
4297,867,920
4298,864,920
4299,867,922
4300,868,920
4301,868,920
4302,869,918
4303,866,919
4304,864,915
4305,860,911
4306,858,911
4307,857,908
4308,858,911
4309,858,913
4310,859,913
4311,858,914
4312,862,916
4313,861,916
4314,864,912
4315,862,912
4316,862,909
4317,859,906
4318,856,907
4319,853,904
4320,855,906
4321,855,908
4322,856,911
4323,857,910
4324,860,911
4325,861,914
4326,860,917
4327,863,914
4328,859,913
4329,860,905
4330,855,908
4331,854,908
4332,851,904
4333,853,906
4334,857,909
4335,858,911
4336,860,913
4337,865,914
4338,863,913
4339,865,914
4340,864,914
4341,860,909
4342,859,909
4343,858,904
4344,858,905
4345,858,907
4346,858,909
4347,859,912
4348,861,912
4349,862,916
4350,864,915
4351,865,916
4352,863,913
4353,858,911
4354,855,912
4355,855,911
4356,854,912
4357,858,912
4358,858,914
4359,861,916
4360,862,918
4361,860,917
4362,860,915
4363,861,918
4364,863,914
4365,857,912
4366,859,909
4367,858,909
4368,856,905
4369,855,905
4370,858,909
4371,859,913
4372,859,912
4373,861,917
4374,860,914
4375,859,910
4376,857,909
4377,856,908
4378,853,909
4379,852,905
4380,852,908
4381,851,908
4382,854,908
4383,854,908
4384,854,912
4385,857,915
4386,856,914
4387,855,905
4388,855,908
4389,854,905
4390,849,905
4391,850,904
4392,849,904
4393,849,904
4394,847,908
4395,852,909
4396,852,911
4397,856,912
4398,856,907
4399,854,906
4400,854,906
4401,849,904
4402,849,902
4403,848,902
4404,848,902
4405,846,902
4406,848,904
4407,847,906
4408,850,909
4409,850,910
4410,851,906
4411,852,908
4412,848,907
4413,846,906
4414,845,903
4415,846,901
4416,845,902
4417,842,902
4418,844,901
4419,845,904
4420,850,908
4421,852,907
4422,851,906
4423,850,906
4424,850,904
4425,847,900
4426,845,897
4427,844,899
4428,841,902
4429,844,903
4430,841,904
4431,844,905
4432,849,910
4433,848,911
4434,850,910
4435,851,907
4436,846,908
4437,844,905
4438,842,900
4439,842,902
4440,843,904
4441,839,907
4442,842,905
4443,844,910
4444,850,910
4445,850,910
4446,849,911
4447,849,909
4448,847,905
4449,843,906
4450,842,901
4451,843,901
4452,842,900
4453,842,900
4454,845,903
4455,846,907
4456,846,909
4457,847,911
4458,850,908
4459,850,909
4460,849,906
4461,847,906
4462,843,901
4463,841,903
4464,845,905
4465,842,910
4466,844,906
4467,846,911
4468,848,913
4469,850,912
4470,847,912
4471,848,910
4472,848,908
4473,845,906
4474,846,903
4475,840,899
4476,841,901
4477,844,901
4478,845,907
4479,848,908
4480,848,910
4481,853,909
4482,852,910
4483,851,908
4484,851,906
4485,847,906
4486,847,905
4487,845,903
4488,841,906
4489,842,907
4490,843,908
4491,848,911
4492,848,914
4493,850,918
4494,851,912
4495,852,913
4496,846,910
4497,847,910
4498,846,907
4499,846,905
4500,846,906
4501,847,907
4502,848,910
4503,849,913
4504,852,913
4505,852,911
4506,850,910
4507,853,911
4508,850,912
4509,848,911
4510,847,909
4511,845,909
4512,847,909
4513,848,912
4514,850,910
4515,849,912
4516,850,910
4517,851,911
4518,854,914
4519,853,912
4520,853,914
4521,849,912
4522,849,909
4523,850,911
4524,847,912
4525,849,910
4526,846,915
4527,850,912
4528,850,915
4529,850,913
4530,850,911
4531,850,912
4532,854,912
4533,852,912
4534,848,909
4535,849,907
4536,846,910
4537,845,909
4538,846,912
4539,849,917
4540,853,918
4541,858,919
4542,860,917
4543,863,919
4544,864,918
4545,865,915
4546,866,913
4547,866,914
4548,870,912
4549,871,913
4550,873,917
4551,876,917
4552,876,920
4553,879,922
4554,881,921
4555,889,922
4556,894,924
4557,898,924
4558,899,923
4559,899,923
4560,896,922
4561,892,923
4562,890,927
4563,887,927
4564,886,927
4565,888,931
4566,886,930
4567,884,930
4568,882,932
4569,880,933
4570,877,930
4571,873,930
4572,867,927
4573,859,925
4574,854,921
4575,853,922
4576,849,920
4577,850,921
4578,845,918
4579,848,920
4580,845,920
4581,843,917
4582,841,913
4583,839,913
4584,836,910
4585,836,911
4586,839,912
4587,841,914
4588,844,919
4589,847,922
4590,844,917
4591,840,918
4592,841,915
4593,840,916
4594,838,914
4595,836,913
4596,838,912
4597,838,913
4598,841,914
4599,843,921
4600,843,922
4601,846,921
4602,847,919
4603,843,920
4604,844,922
4605,844,920
4606,843,916
4607,844,915
4608,841,915
4609,845,915
4610,843,917
4611,846,918
4612,849,922
4613,853,922
4614,856,922
4615,857,923
4616,857,923
4617,858,920
4618,858,924
4619,856,926
4620,860,928
4621,869,940
4622,888,954
4623,922,979
4624,967,1007
4625,1021,1041
4626,1075,1069
4627,1131,1093
4628,1193,1105
4629,1248,1106
4630,1283,1105
4631,1285,1097
4632,1250,1081
4633,1175,1058
4634,1074,1021
4635,959,970
4636,849,911
4637,760,849
4638,707,794
4639,701,768
4640,714,764
4641,749,787
4642,777,814
4643,798,846
4644,812,867
4645,814,884
4646,820,896
4647,827,901
4648,833,905
4649,845,908
4650,852,911
4651,854,916
4652,854,917
4653,851,917
4654,846,915
4655,843,916
4656,844,920
4657,845,919
4658,845,922
4659,848,922
4660,848,927
4661,853,925
4662,855,928
4663,856,927
4664,854,925
4665,852,924
4666,849,924
4667,847,922
4668,846,928
4669,848,924
4670,848,927
4671,849,928
4672,853,933
4673,854,935
4674,854,931
4675,853,933
4676,850,933
4677,847,931
4678,844,932
4679,848,929
4680,847,928
4681,848,928
4682,846,935
4683,849,938
4684,852,939
4685,858,941
4686,859,937
4687,860,938
4688,858,935
4689,857,932
4690,853,931
4691,854,928
4692,849,930
4693,852,930
4694,855,933
4695,857,938
4696,856,940
4697,859,939
4698,860,939
4699,860,942
4700,861,938
4701,859,936
4702,857,935
4703,852,939
4704,861,940
4705,860,945
4706,862,946
4707,864,947
4708,870,952
4709,874,953
4710,875,950
4711,877,948
4712,878,949
4713,876,950
4714,879,950
4715,878,949
4716,880,953
4717,883,952
4718,885,959
4719,889,961
4720,896,965
4721,904,969
4722,905,972
4723,909,973
4724,908,970
4725,907,972
4726,910,974
4727,913,975
4728,916,974
4729,919,976
4730,923,979
4731,927,981
4732,935,984
4733,938,988
4734,942,990
4735,945,992
4736,944,993
4737,948,990
4738,948,992
4739,948,988
4740,952,990
4741,955,993
4742,956,998
4743,959,1000
4744,957,996
4745,958,998
4746,961,997
4747,955,994
4748,954,990
4749,947,986
4750,946,984
4751,941,980
4752,938,981
4753,931,980
4754,929,978
4755,925,976
4756,922,975
4757,923,974
4758,917,966
4759,909,966
4760,905,959
4761,902,956
4762,892,951
4763,888,947
4764,881,945
4765,880,942
4766,880,944
4767,876,943
4768,874,942
4769,873,940
4770,873,937
4771,877,940
4772,877,935
4773,874,934
4774,870,931
4775,865,930
4776,865,928
4777,864,926
4778,868,932
4779,866,930
4780,867,934
4781,867,936
4782,866,934
4783,869,934
4784,868,932
4785,869,929
4786,866,927
4787,862,928
4788,861,926
4789,860,929
4790,863,930
4791,865,933
4792,867,930
4793,869,932
4794,866,930
4795,869,931
4796,867,930
4797,865,932
4798,861,931
4799,865,930
4800,862,929
4801,861,928
4802,864,928
4803,866,929
4804,867,930
4805,873,930
4806,873,931
4807,871,934
4808,873,932
4809,869,932
4810,868,932
4811,867,931
4812,866,930
4813,866,931
4814,866,936
4815,869,938
4816,876,941
4817,879,940
4818,880,940
4819,881,938
4820,879,938
4821,878,936
4822,873,933
4823,871,931
4824,872,933
4825,872,935
4826,877,933
4827,874,936
4828,879,940
4829,879,942
4830,878,942
4831,879,940
4832,882,939
4833,877,939
4834,877,936
4835,875,934
4836,876,939
4837,870,937
4838,874,939
4839,873,941
4840,875,943
4841,875,944
4842,873,945
4843,874,942
4844,873,940
4845,871,938
4846,872,939
4847,871,934
4848,870,934
4849,868,933
4850,870,933
4851,870,934
4852,871,934
4853,872,936
4854,873,938
4855,871,935
4856,868,933
4857,868,932
4858,866,931
4859,867,933
4860,867,933
4861,865,930
4862,865,935
4863,867,933
4864,867,938
4865,869,940
4866,869,939
4867,868,941
4868,867,941
4869,866,938
4870,864,934
4871,862,929
4872,862,930
4873,861,930
4874,864,929
4875,865,930
4876,864,932
4877,865,935
4878,867,933
4879,870,932
4880,868,930
4881,867,929
4882,863,928
4883,862,924
4884,861,927
4885,860,928
4886,858,931
4887,864,933
4888,864,935
4889,866,934
4890,866,934
4891,865,937
4892,864,931
4893,860,931
4894,860,929
4895,855,927
4896,857,927
4897,858,930
4898,862,932
4899,864,932
4900,864,934
4901,867,939
4902,868,938
4903,867,937
4904,865,934
4905,864,931
4906,862,929
4907,860,927
4908,863,927
4909,864,927
4910,863,928
4911,863,930
4912,864,933
4913,867,935
4914,866,935
4915,868,936
4916,866,934
4917,863,932
4918,863,928
4919,863,926
4920,861,927
4921,859,930
4922,859,927
4923,861,928
4924,865,932
4925,864,935
4926,865,933
4927,866,931
4928,867,930
4929,865,926
4930,862,928
4931,862,922
4932,859,925
4933,862,924
4934,863,927
4935,863,932
4936,866,930
4937,868,934
4938,870,933
4939,867,932
4940,868,931
4941,866,932
4942,867,931
4943,866,932
4944,865,927
4945,864,929
4946,864,932
4947,865,934
4948,866,934
4949,868,937
4950,867,937
4951,868,938
4952,869,933
4953,868,932
4954,867,931
4955,866,931
4956,861,930
4957,861,927
4958,866,930
4959,865,932
4960,869,931
4961,871,936
4962,871,931
4963,872,933
4964,868,930
4965,866,927
4966,864,930
4967,866,927
4968,865,933
4969,864,932
4970,864,932
4971,863,934
4972,868,935
4973,872,938
4974,873,941
4975,877,934
4976,877,936
4977,871,934
4978,869,932
4979,874,931
4980,873,933
4981,876,932
4982,878,937
4983,884,935
4984,887,940
4985,892,938
4986,894,935
4987,891,937
4988,893,936
4989,892,936
4990,896,932
4991,900,933
4992,903,935
4993,910,938
4994,915,940
4995,915,941
4996,917,947
4997,915,948
4998,914,946
4999,914,947
5000,908,945
5001,906,943
5002,902,943
5003,902,946
5004,901,945
5005,899,947
5006,896,947
5007,898,948
5008,899,946
5009,891,950
5010,886,945
5011,881,942
5012,873,939
5013,867,935
5014,866,932
5015,863,927
5016,861,928
5017,861,929
5018,856,930
5019,857,933
5020,859,931
5021,857,936
5022,860,938
5023,858,936
5024,857,938
5025,857,934
5026,858,928
5027,857,928
5028,855,928
5029,855,931
5030,856,932
5031,857,934
5032,856,935
5033,861,937
5034,862,936
5035,860,936
5036,861,936
5037,858,933
5038,857,930
5039,856,930
5040,855,926
5041,854,931
5042,852,930
5043,857,927
5044,857,931
5045,862,934
5046,863,933
5047,862,934
5048,862,927
5049,862,931
5050,863,926
5051,862,927
5052,861,929
5053,859,930
5054,861,931
5055,865,933
5056,871,939
5057,871,938
5058,877,941
5059,879,942
5060,880,947
5061,883,948
5062,891,955
5063,908,966
5064,939,989
5065,984,1014
5066,1033,1048
5067,1088,1080
5068,1139,1105
5069,1195,1115
5070,1252,1118
5071,1297,1118
5072,1319,1112
5073,1306,1101
5074,1259,1082
5075,1178,1053
5076,1072,1016
5077,952,959
5078,836,900
5079,749,837
5080,699,788
5081,693,766
5082,713,766
5083,752,784
5084,784,815
5085,807,844
5086,816,866
5087,821,879
5088,821,891
5089,826,896
5090,834,904
5091,840,907
5092,853,916
5093,862,922
5094,864,923
5095,868,924
5096,863,924
5097,858,925
5098,858,927
5099,850,923
5100,852,923
5101,855,924
5102,856,925
5103,858,927
5104,862,929
5105,865,929
5106,866,933
5107,868,934
5108,868,933
5109,867,934
5110,865,932
5111,860,930
5112,860,932
5113,861,932
5114,860,931
5115,860,936
5116,864,937
5117,864,942
5118,868,940
5119,868,938
5120,865,938
5121,863,939
5122,862,934
5123,860,932
5124,862,932
5125,860,936
5126,862,935
5127,861,938
5128,864,937
5129,866,939
5130,868,938
5131,863,937
5132,864,937
5133,863,937
5134,862,932
5135,860,932
5136,863,932
5137,863,931
5138,860,936
5139,861,938
5140,866,942
5141,865,945
5142,868,946
5143,869,942
5144,871,945
5145,869,946
5146,865,940
5147,864,941
5148,865,941
5149,863,943
5150,866,945
5151,869,947
5152,873,949
5153,876,950
5154,875,950
5155,879,949
5156,883,951
5157,883,948
5158,881,948
5159,883,946
5160,883,947
5161,887,952
5162,887,954
5163,891,961
5164,896,963
5165,896,965
5166,898,967
5167,902,970
5168,905,967
5169,907,968
5170,909,972
5171,910,970
5172,911,972
5173,913,975
5174,918,979
5175,921,980
5176,927,985
5177,933,990
5178,936,990
5179,938,992
5180,942,989
5181,942,989
5182,945,988
5183,946,988
5184,947,990
5185,949,990
5186,952,993
5187,956,997
5188,959,998
5189,963,1000
5190,966,1000
5191,967,1000
5192,966,998
5193,962,998
5194,962,998
5195,956,991
5196,955,989
5197,951,989
5198,950,985
5199,946,986
5200,945,983
5201,941,983
5202,937,977
5203,935,977
5204,928,967
5205,920,964
5206,912,959
5207,906,955
5208,903,951
5209,897,943
5210,894,942
5211,888,941
5212,889,938
5213,887,940
5214,887,938
5215,883,933
5216,883,933
5217,877,928
5218,876,928
5219,876,925
5220,873,925
5221,870,927
5222,870,924
5223,868,929
5224,871,932
5225,874,931
5226,872,930
5227,873,931
5228,875,927
5229,869,925
5230,865,922
5231,864,922
5232,863,920
5233,860,922
5234,861,923
5235,860,926
5236,863,925
5237,864,925
5238,868,925
5239,867,921
5240,869,922
5241,867,919
5242,860,921
5243,861,917
5244,862,918
5245,860,917
5246,861,920
5247,866,923
5248,866,924
5249,868,928
5250,870,923
5251,870,926
5252,871,925
5253,870,924
5254,867,921
5255,865,920
5256,864,920
5257,865,925
5258,865,924
5259,864,924
5260,867,928
5261,871,931
5262,875,928
5263,874,930
5264,872,928
5265,871,923
5266,872,924
5267,872,922
5268,871,925
5269,870,925
5270,872,926
5271,875,929
5272,877,933
5273,877,935
5274,878,935
5275,878,934
5276,878,933
5277,876,933
5278,874,930
5279,872,924
5280,874,927
5281,873,926
5282,873,929
5283,872,930
5284,877,934
5285,874,935
5286,876,934
5287,875,934
5288,877,930
5289,874,929
5290,871,929
5291,871,927
5292,866,927
5293,864,925
5294,866,924
5295,868,925
5296,870,925
5297,870,929
5298,872,931
5299,873,932
5300,870,927
5301,867,927
5302,864,922
5303,862,924
5304,861,920
5305,859,922
5306,859,923
5307,863,926
5308,866,929
5309,863,928
5310,864,928
5311,864,928
5312,866,924
5313,866,923
5314,862,921
5315,861,919
5316,858,918
5317,860,918
5318,858,920
5319,859,920
5320,860,920
5321,865,926
5322,866,925
5323,865,924
5324,865,923
5325,865,920
5326,859,920
5327,858,919
5328,857,916
5329,856,918
5330,856,917
5331,856,919
5332,861,923
5333,860,921
5334,861,923
5335,861,924
5336,859,923
5337,860,918
5338,857,916
5339,857,915
5340,856,915
5341,853,912
5342,855,918
5343,856,918
5344,857,917
5345,860,919
5346,860,921
5347,860,921
5348,858,918
5349,857,915
5350,856,913
5351,853,912
5352,853,912
5353,852,914
5354,851,916
5355,855,916
5356,858,919
5357,858,923
5358,857,919
5359,859,920
5360,859,920
5361,856,915
5362,854,915
5363,856,915
5364,851,915
5365,851,916
5366,853,917
5367,853,918
5368,853,920
5369,854,919
5370,859,917
5371,858,915
5372,859,915
5373,854,915
5374,852,913
5375,851,911
5376,851,911
5377,850,911
5378,849,913
5379,854,915
5380,854,918
5381,852,922
5382,856,918
5383,858,920
5384,856,918
5385,855,917
5386,852,915
5387,851,913
5388,850,911
5389,851,914
5390,849,915
5391,852,917
5392,854,917
5393,856,916
5394,858,919
5395,857,921
5396,856,915
5397,851,916
5398,851,912
5399,847,912
5400,851,909
5401,849,913
5402,853,913
5403,853,915
5404,853,917
5405,852,921
5406,857,921
5407,857,919
5408,857,920
5409,856,918
5410,854,915
5411,850,914
5412,850,913
5413,851,914
5414,850,915
5415,853,917
5416,856,919
5417,854,921
5418,859,920
5419,858,923
5420,860,916
5421,857,915
5422,856,914
5423,853,912
5424,852,911
5425,853,911
5426,854,911
5427,852,914
5428,854,915
5429,857,916
5430,860,921
5431,859,918
5432,857,917
5433,851,915
5434,853,915
5435,848,914
5436,847,917
5437,848,915
5438,848,918
5439,851,917
5440,852,918
5441,853,917
5442,857,920
5443,857,920
5444,858,918
5445,854,917
5446,854,914
5447,852,914
5448,850,913
5449,850,915
5450,850,913
5451,850,914
5452,855,914
5453,856,915
5454,856,921
5455,859,914
5456,855,916
5457,855,917
5458,850,918
5459,848,915
5460,850,914
5461,850,916
5462,850,917
5463,853,920
5464,853,919
5465,854,922
5466,858,921
5467,856,920
5468,856,920
5469,852,919
5470,853,913
5471,852,915
5472,853,913
5473,851,913
5474,851,914
5475,853,917
5476,852,917
5477,853,918
5478,857,919
5479,856,916
5480,856,918
5481,857,915
5482,856,914
5483,853,912
5484,852,911
5485,851,912
5486,854,914
5487,850,916
5488,853,922
5489,857,921
5490,856,922
5491,858,920
5492,858,922
5493,855,920
5494,854,917
5495,854,914
5496,851,916
5497,849,917
5498,850,918
5499,853,918
5500,854,921
5501,857,921
5502,858,923
5503,860,919
5504,861,920
5505,862,915
5506,861,913
5507,861,914
5508,860,913
5509,864,913
5510,865,915
5511,872,916
5512,878,918
5513,880,920
5514,884,922
5515,885,921
5516,884,920
5517,883,919
5518,884,921
5519,885,918
5520,888,920
5521,892,922
5522,899,925
5523,900,929
5524,899,929
5525,897,930
5526,896,931
5527,891,928
5528,890,928
5529,887,928
5530,883,928
5531,883,924
5532,883,926
5533,878,924
5534,879,925
5535,877,927
5536,878,931
5537,874,932
5538,874,931
5539,867,930
5540,861,926
5541,855,922
5542,847,920
5543,846,918
5544,838,917
5545,842,919
5546,837,914
5547,838,919
5548,842,919
5549,842,918
5550,843,919
5551,843,920
5552,844,918
5553,842,915
5554,841,916
5555,842,914
5556,836,912
5557,835,915
5558,836,918
5559,838,915
5560,842,916
5561,845,916
5562,846,919
5563,845,919
5564,847,916
5565,846,917
5566,843,916
5567,841,914
5568,838,915
5569,841,914
5570,840,915
5571,841,920
5572,843,920
5573,846,920
5574,849,922
5575,847,920
5576,848,923
5577,848,921
5578,848,918
5579,846,917
5580,848,920
5581,847,925
5582,850,922
5583,851,925
5584,862,932
5585,870,939
5586,883,943
5587,911,963
5588,952,987
5589,1003,1024
5590,1060,1056
5591,1122,1078
5592,1183,1092
5593,1248,1101
5594,1298,1103
5595,1320,1105
5596,1296,1103
5597,1236,1086
5598,1136,1054
5599,1008,1007
5600,880,941
5601,770,873
5602,703,810
5603,689,771
5604,711,769
5605,754,791
5606,798,827
5607,824,863
5608,835,889
5609,835,902
5610,833,906
5611,829,901
5612,828,899
5613,834,897
5614,836,899
5615,841,898
5616,844,904
5617,846,909
5618,841,911
5619,843,913
5620,844,919
5621,845,921
5622,845,922
5623,845,921
5624,846,920
5625,845,918
5626,843,918
5627,844,917
5628,840,918
5629,840,916
5630,841,916
5631,843,920
5632,843,921
5633,845,922
5634,847,924
5635,848,923
5636,849,923
5637,847,919
5638,842,919
5639,840,918
5640,839,915
5641,839,916
5642,839,915
5643,843,919
5644,843,918
5645,849,921
5646,852,921
5647,850,921
5648,849,922
5649,848,921
5650,846,921
5651,844,921
5652,843,917
5653,839,921
5654,840,919
5655,843,921
5656,843,927
5657,846,928
5658,850,930
5659,851,927
5660,849,925
5661,844,923
5662,844,923
5663,842,924
5664,844,922
5665,845,929
5666,845,926
5667,847,927
5668,851,928
5669,855,930
5670,856,929
5671,858,929
5672,858,933
5673,855,932
5674,857,930
5675,858,931
5676,858,931
5677,860,931
5678,860,934
5679,863,938
5680,866,943
5681,871,940
5682,874,947
5683,876,949
5684,879,948
5685,881,946
5686,880,946
5687,882,946
5688,882,947
5689,888,952
5690,887,954
5691,893,953
5692,899,960
5693,903,963
5694,909,967
5695,913,964
5696,915,964
5697,917,967
5698,918,967
5699,920,967
5700,923,970
5701,925,972
5702,929,977
5703,932,979
5704,936,985
5705,940,987
5706,947,989
5707,948,988
5708,953,987
5709,953,987
5710,951,988
5711,950,985
5712,948,985
5713,947,983
5714,945,981
5715,943,984
5716,945,982
5717,940,982
5718,938,980
5719,935,972
5720,932,971
5721,928,963
5722,919,956
5723,912,953
5724,907,952
5725,903,948
5726,899,943
5727,892,942
5728,888,942
5729,885,936
5730,885,937
5731,881,933
5732,877,931
5733,875,925
5734,870,921
5735,864,917
5736,861,918
5737,858,915
5738,853,916
5739,855,915
5740,857,914
5741,856,918
5742,859,918
5743,861,918
5744,858,912
5745,853,910
5746,853,908
5747,850,906
5748,848,904
5749,847,906
5750,847,905
5751,850,908
5752,852,908
5753,850,913
5754,854,913
5755,855,910
5756,856,911
5757,854,910
5758,854,908
5759,849,908
5760,850,905
5761,851,908
5762,849,908
5763,851,908
5764,851,908
5765,853,912
5766,854,914
5767,855,916
5768,854,913
5769,856,911
5770,847,906
5771,850,908
5772,849,904
5773,849,906
5774,847,906
5775,850,906
5776,852,910
5777,852,910
5778,856,914
5779,854,911
5780,855,911
5781,855,909
5782,853,911
5783,851,911
5784,851,909
5785,851,908
5786,849,912
5787,851,910
5788,853,912
5789,851,914
5790,856,917
5791,858,915
5792,856,914
5793,854,914
5794,850,912
5795,850,908
5796,847,906
5797,848,906
5798,847,908
5799,848,908
5800,852,908
5801,850,912
5802,851,913
5803,851,915
5804,850,912
5805,851,911
5806,848,908
5807,847,907
5808,846,907
5809,841,905
5810,841,908
5811,841,906
5812,841,908
5813,843,911
5814,845,914
5815,848,912
5816,845,909
5817,843,906
5818,839,906
5819,836,902
5820,839,903
5821,837,903
5822,836,903
5823,836,904
5824,838,905
5825,841,905
5826,842,903
5827,841,904
5828,840,904
5829,841,903
5830,837,902
5831,836,903
5832,835,898
5833,836,901
5834,836,906
5835,834,903
5836,835,902
5837,839,907
5838,842,910
5839,842,904
5840,842,904
5841,842,903
5842,836,902
5843,835,898
5844,833,901
5845,830,901
5846,830,900
5847,831,904
5848,831,905
5849,834,903
5850,837,904
5851,841,904
5852,841,906
5853,840,902
5854,838,901
5855,832,897
5856,831,895
5857,832,897
5858,831,899
5859,831,900
5860,836,902
5861,837,905
5862,839,904
5863,841,904
5864,839,905
5865,838,903
5866,834,902
5867,835,899
5868,833,900
5869,835,898
5870,829,901
5871,834,901
5872,834,902
5873,838,904
5874,838,902
5875,835,903
5876,839,899
5877,836,898
5878,835,897
5879,835,895
5880,831,895
5881,830,895
5882,831,894
5883,832,897
5884,832,901
5885,833,903
5886,836,903
5887,838,900
5888,839,901
5889,837,899
5890,835,899
5891,833,900
5892,834,899
5893,832,894
5894,831,901
5895,834,897
5896,837,900
5897,839,903
5898,840,903
5899,841,906
5900,839,905
5901,838,901
5902,837,897
5903,834,899
5904,836,895
5905,833,893
5906,834,897
5907,832,900
5908,835,899
5909,838,901
5910,841,907
5911,841,904
5912,839,902
5913,838,901
5914,834,904
5915,829,901
5916,832,898
5917,827,898
5918,832,899
5919,832,901
5920,833,904
5921,838,904
5922,839,902
5923,840,906
5924,842,906
5925,838,902
5926,837,904
5927,834,898
5928,836,895
5929,833,897
5930,831,900
5931,834,897
5932,837,899
5933,833,899
5934,836,902
5935,837,903
5936,835,903
5937,837,902
5938,835,899
5939,835,897
5940,833,896
5941,830,899
5942,834,901
5943,834,902
5944,838,905
5945,839,906
5946,839,906
5947,839,906
5948,840,905
5949,842,906
5950,835,903
5951,830,901
5952,836,898
5953,832,896
5954,834,898
5955,836,898
5956,836,900
5957,838,901
5958,838,904
5959,838,902
5960,836,902
5961,836,904
5962,835,898
5963,834,895
5964,833,897
5965,833,898
5966,832,899
5967,833,905
5968,834,905
5969,838,906
5970,840,908
5971,837,907
5972,840,906
5973,842,907
5974,839,904
5975,838,903
5976,835,900
5977,835,901
5978,834,898
5979,832,902
5980,838,903
5981,843,903
5982,847,906
5983,849,904
5984,853,904
5985,854,903
5986,857,901
5987,857,902
5988,856,898
5989,857,897
5990,857,902
5991,860,901
5992,863,904
5993,866,909
5994,871,911
5995,874,911
5996,882,912
5997,884,912
5998,883,912
5999,883,911
6000,880,911
6001,872,913
6002,873,913
6003,876,912
6004,872,916
6005,871,917
6006,871,923
6007,869,920
6008,871,922
6009,868,918
6010,865,919
6011,860,911
6012,855,912
6013,849,913
6014,849,908
6015,840,911
6016,835,907
6017,838,908
6018,834,909
6019,831,909
6020,831,906
6021,829,906
6022,827,903
6023,823,900
6024,823,897
6025,823,899
6026,822,901
6027,821,902
6028,821,903
6029,825,907
6030,822,907
6031,824,906
6032,824,906
6033,822,905
6034,822,904
6035,821,902
6036,821,902
6037,819,899
6038,821,900
6039,821,900
6040,823,902
6041,824,902
6042,825,903
6043,824,903
6044,825,902
6045,826,902
6046,824,902
6047,822,902
6048,825,902
6049,823,901
6050,823,902
6051,821,904
6052,825,905
6053,825,908
6054,828,912
6055,830,911
6056,835,909
6057,835,908
6058,835,907
6059,836,903
6060,837,903
6061,836,908
6062,840,907
6063,841,916
6064,854,922
6065,874,940
6066,906,960
6067,955,987
6068,1006,1020
6069,1056,1050
6070,1109,1069
6071,1163,1082
6072,1218,1079
6073,1252,1079
6074,1264,1077
6075,1234,1067
6076,1170,1048
6077,1078,1017
6078,966,977
6079,857,921
6080,763,858
6081,699,802
6082,680,760
6083,691,747
6084,721,757
6085,749,786
6086,775,817
6087,787,842
6088,794,863
6089,794,875
6090,802,881
6091,809,884
6092,814,888
6093,824,892
6094,830,891
6095,831,892
6096,832,892
6097,830,895
6098,824,898
6099,823,900
6100,822,900
6101,823,901
6102,827,905
6103,830,905
6104,830,908
6105,834,905
6106,832,906
6107,831,904
6108,828,902
6109,828,907
6110,830,904
6111,829,909
6112,828,912
6113,832,912
6114,835,910
6115,834,911
6116,834,912
6117,834,911
6118,832,910
6119,829,910
6120,830,907
6121,827,906
6122,828,906
6123,829,908
6124,830,910
6125,831,911
6126,834,914
6127,837,915
6128,836,914
6129,835,913
6130,835,914
6131,831,911
6132,833,911
6133,832,912
6134,830,909
6135,834,915
6136,834,915
6137,836,919
6138,838,919
6139,841,916
6140,842,918
6141,841,916
6142,842,917
6143,840,914
6144,836,915
6145,838,916
6146,838,914
6147,838,917
6148,841,919
6149,843,923
6150,843,925
6151,847,923
6152,851,923
6153,852,924
6154,852,923
6155,849,924
6156,849,919
6157,849,922
6158,849,924
6159,851,929
6160,855,928
6161,858,937
6162,864,936
6163,865,940
6164,870,942
6165,875,944
6166,877,942
6167,879,944
6168,877,943
6169,880,946
6170,882,949
6171,885,950
6172,890,955
6173,896,958
6174,904,960
6175,909,961
6176,911,960
6177,912,960
6178,916,960
6179,916,962
6180,915,960
6181,921,965
6182,920,966
6183,926,969
6184,926,972
6185,930,978
6186,935,978
6187,936,979
6188,936,977
6189,937,973
6190,936,969
6191,931,967
6192,928,962
6193,924,966
6194,921,964
6195,919,964
6196,916,962
6197,913,960
6198,911,958
6199,907,955
6200,902,952
6201,900,946
6202,892,939
6203,886,932
6204,880,929
6205,877,929
6206,869,924
6207,865,925
6208,863,922
6209,857,923
6210,859,923
6211,860,918
6212,854,918
6213,855,915
6214,851,911
6215,849,910
6216,845,909
6217,841,909
6218,842,908
6219,843,907
6220,845,909
6221,845,907
6222,850,909
6223,850,909
6224,847,911
6225,845,908
6226,843,902
6227,839,904
6228,838,900
6229,839,897
6230,839,902
6231,838,899
6232,839,904
6233,841,907
6234,843,907
6235,842,905
6236,844,908
6237,843,906
6238,843,902
6239,839,901
6240,840,901
6241,837,900
6242,834,901
6243,835,902
6244,837,902
6245,842,908
6246,844,909
6247,846,910
6248,847,908
6249,849,907
6250,845,903
6251,844,906
6252,840,903
6253,840,901
6254,841,900
6255,841,902
6256,845,902
6257,849,907
6258,851,911
6259,851,910
6260,853,909
6261,853,907
6262,851,907
6263,847,906
6264,847,906
6265,847,903
6266,844,908
6267,845,912
6268,848,914
6269,848,914
6270,851,913
6271,851,914
6272,851,917
6273,848,911
6274,847,909
6275,848,910
6276,846,908
6277,845,907
6278,845,907
6279,845,908
6280,848,911
6281,849,911
6282,847,914
6283,848,911
6284,850,908
6285,852,910
6286,849,907
6287,846,903
6288,845,905
6289,842,905
6290,842,902
6291,843,905
6292,842,909
6293,844,909
6294,846,908
6295,847,912
6296,847,907
6297,845,905
6298,843,906
6299,840,900
6300,840,903
6301,841,897
6302,839,899
6303,838,901
6304,838,900
6305,839,903
6306,842,905
6307,841,903
6308,841,901
6309,842,899
6310,839,896
6311,838,895
6312,836,897
6313,835,899
6314,838,900
6315,840,901
6316,839,903
6317,838,902
6318,842,903
6319,840,903
6320,843,903
6321,840,902
6322,837,900
6323,834,896
6324,834,897
6325,834,896
6326,834,896
6327,835,902
6328,836,903
6329,839,903
6330,839,904
6331,841,899
6332,837,900
6333,840,899
6334,839,897
6335,836,894
6336,836,895
6337,835,894
6338,832,895
6339,835,897
6340,833,897
6341,836,898
6342,839,899
6343,840,900
6344,840,901
6345,839,898
6346,837,899
6347,834,897
6348,832,897
6349,832,898
6350,833,897
6351,835,899
6352,835,898
6353,839,903
6354,840,902
6355,841,901
6356,840,901
6357,842,899
6358,839,896
6359,836,893
6360,835,894
6361,834,891
6362,835,891
6363,834,894
6364,834,897
6365,836,899
6366,837,900
6367,840,902
6368,838,901
6369,839,896
6370,834,896
6371,833,898
6372,831,895
6373,832,890
6374,835,893
6375,835,897
6376,838,898
6377,838,901
6378,840,904
6379,843,899
6380,840,902
6381,840,896
6382,838,896
6383,838,892
6384,835,891
6385,834,890
6386,833,894
6387,833,894
6388,835,898
6389,837,897
6390,839,901
6391,841,895
6392,842,897
6393,843,896
6394,840,897
6395,838,897
6396,837,892
6397,838,892
6398,837,896
6399,837,895
6400,837,898
6401,837,899
6402,842,904
6403,843,901
6404,844,903
6405,840,904
6406,841,899
6407,840,896
6408,839,895
6409,839,896
6410,837,892
6411,837,894
6412,836,895
6413,841,900
6414,839,902
6415,843,901
6416,844,901
6417,842,900
6418,843,899
6419,841,894
6420,842,893
6421,837,893
6422,838,892
6423,846,894
6424,848,897
6425,852,899
6426,854,902
6427,858,903
6428,864,903
6429,863,902
6430,863,901
6431,863,901
6432,861,899
6433,863,900
6434,867,900
6435,873,899
6436,879,904
6437,885,914
6438,886,913
6439,885,912
6440,887,910
6441,884,912
6442,879,905
6443,876,905
6444,873,901
6445,870,903
6446,872,906
6447,873,911
6448,873,913
6449,874,915
6450,870,920
6451,866,917
6452,858,916
6453,851,912
6454,842,909
6455,838,903
6456,836,899
6457,834,902
6458,833,899
6459,833,902
6460,832,903
6461,832,902
6462,830,906
6463,831,904
6464,832,899
6465,832,900
6466,831,897
6467,827,893
6468,827,892
6469,826,890
6470,823,893
6471,825,894
6472,825,898
6473,827,895
6474,826,903
6475,830,904
6476,826,901
6477,828,901
6478,827,898
6479,827,898
6480,826,898
6481,824,896
6482,825,896
6483,829,898
6484,831,897
6485,832,902
6486,834,903
6487,834,902
6488,837,900
6489,833,900
6490,837,902
6491,833,897
6492,830,898
6493,832,898
6494,834,895
6495,834,901
6496,840,906
6497,840,907
6498,844,905
6499,849,909
6500,850,908
6501,853,918
6502,861,918
6503,873,931
6504,906,949
6505,950,976
6506,1005,1012
6507,1062,1050
6508,1122,1078
6509,1188,1091
6510,1245,1102
6511,1285,1097
6512,1289,1088
6513,1249,1068
6514,1165,1037
6515,1055,989
6516,927,932
6517,799,862
6518,708,799
6519,659,748
6520,655,722
6521,679,729
6522,718,755
6523,757,788
6524,780,820
6525,796,843
6526,802,857
6527,803,866
6528,809,871
6529,811,875
6530,820,879
6531,823,882
6532,830,889
6533,834,890
6534,835,896
6535,835,896
6536,834,899
6537,836,899
6538,834,897
6539,831,900
6540,829,898
6541,829,894
6542,829,894
6543,830,900
6544,830,899
6545,835,905
6546,836,905
6547,838,906
6548,838,904
6549,838,906
6550,835,899
6551,833,901
6552,833,897
6553,832,899
6554,829,898
6555,829,901
6556,834,903
6557,832,908
6558,834,909
6559,839,907
6560,840,906
6561,837,906
6562,837,904
6563,835,902
6564,833,902
6565,829,901
6566,830,903
6567,833,903
6568,834,905
6569,836,905
6570,836,909
6571,839,910
6572,837,908
6573,839,910
6574,839,904
6575,836,904
6576,835,899
6577,833,901
6578,834,902
6579,837,906
6580,838,908
6581,841,910
6582,844,910
6583,847,912
6584,846,909
6585,847,911
6586,848,913
6587,846,909
6588,845,907
6589,847,907
6590,848,913
6591,848,913
6592,852,914
6593,854,922
6594,856,924
6595,862,926
6596,862,925
6597,866,926
6598,866,925
6599,866,922
6600,867,922
6601,870,923
6602,870,924
6603,877,927
6604,881,929
6605,882,932
6606,886,936
6607,891,940
6608,893,941
6609,896,940
6610,902,944
6611,901,944
6612,900,944
6613,897,947
6614,905,948
6615,908,948
6616,912,950
6617,919,952
6618,921,959
6619,925,957
6620,927,958
6621,929,960
6622,931,958
6623,930,956
6624,930,955
6625,923,953
6626,929,952
6627,928,950
6628,930,953
6629,929,951
6630,926,952
6631,928,946
6632,925,946
6633,922,944
6634,917,941
6635,913,935
6636,904,931
6637,899,931
6638,894,927
6639,892,927
6640,888,925
6641,884,923
6642,882,923
6643,879,918
6644,874,916
6645,870,913
6646,868,909
6647,865,904
6648,860,901
6649,858,899
6650,855,896
6651,853,898
6652,851,899
6653,853,897
6654,852,898
6655,852,897
6656,851,893
6657,852,894
6658,852,892
6659,842,889
6660,842,884
6661,839,887
6662,841,887
6663,841,891
6664,844,889
6665,845,890
6666,848,892
6667,851,894
6668,849,890
6669,849,892
6670,846,890
6671,844,887
6672,841,885
6673,841,886
6674,840,888
6675,840,886
6676,844,887
6677,845,889
6678,846,893
6679,850,893
6680,848,889
6681,850,890
6682,848,884
6683,845,883
6684,843,884
6685,839,881
6686,840,884
6687,844,886
6688,845,888
6689,846,892
6690,849,893
6691,853,896
6692,851,893
6693,852,893
6694,851,892
6695,848,891
6696,847,889
6697,846,891
6698,850,893
6699,848,894
6700,849,893
6701,852,898
6702,854,899
6703,855,901
6704,854,896
6705,856,899
6706,854,899
6707,854,893
6708,851,891
6709,849,890
6710,847,889
6711,847,894
6712,851,892
6713,854,897
6714,854,894
6715,853,896
6716,852,898
6717,851,899
6718,848,896
6719,847,893
6720,846,891
6721,845,893
6722,841,893
6723,844,892
6724,846,895
6725,847,895
6726,848,899
6727,849,898
6728,850,894
6729,851,898
6730,847,893
6731,846,892
6732,846,893
6733,843,890
6734,841,889
6735,841,889
6736,842,886
6737,842,890
6738,846,893
6739,846,890
6740,846,892
6741,845,890
6742,845,889
6743,842,886
6744,839,887
6745,837,887
6746,836,887
6747,835,888
6748,838,890
6749,839,894
6750,838,893
6751,838,894
6752,838,892
6753,839,891
6754,840,889
6755,837,888
6756,834,883
6757,835,881
6758,835,880
6759,832,885
6760,835,886
6761,836,888
6762,833,886
6763,836,885
6764,836,887
6765,834,886
6766,833,885
6767,831,883
6768,831,880
6769,829,879
6770,829,880
6771,830,884
6772,826,886
6773,829,885
6774,830,888
6775,834,891
6776,835,891
6777,836,892
6778,836,886
6779,833,886
6780,831,885
6781,829,882
6782,828,885
6783,828,885
6784,829,885
6785,831,887
6786,831,886
6787,833,890
6788,834,887
6789,833,884
6790,830,883
6791,832,880
6792,829,881
6793,827,878
6794,829,882
6795,826,882
6796,829,881
6797,831,882
6798,833,887
6799,834,887
6800,831,887
6801,834,887
6802,835,886
6803,831,879
6804,829,884
6805,828,880
6806,825,882
6807,827,883
6808,824,886
6809,828,886
6810,832,888
6811,835,893
6812,837,888
6813,834,885
6814,834,882
6815,831,880
6816,831,878
6817,830,877
6818,829,879
6819,831,878
6820,831,880
6821,833,882
6822,835,884
6823,837,884
6824,837,887
6825,836,887
6826,836,885
6827,832,880
6828,830,879
6829,832,878
6830,832,882
6831,831,883
6832,833,882
6833,833,884
6834,835,890
6835,836,890
6836,838,887
6837,838,883
6838,833,881
6839,832,883
6840,830,881
6841,829,881
6842,828,878
6843,825,878
6844,830,883
6845,835,884
6846,837,883
6847,836,885
6848,836,884
6849,837,886
6850,836,884
6851,835,882
6852,832,882
6853,833,882
6854,830,882
6855,830,885
6856,834,885
6857,835,888
6858,838,888
6859,837,887
6860,838,889
6861,834,887
6862,832,887
6863,832,886
6864,832,885
6865,833,883
6866,831,881
6867,832,883
6868,833,882
6869,835,885
6870,836,886
6871,838,884
6872,836,887
6873,839,885
6874,838,883
6875,838,881
6876,834,882
6877,830,882
6878,831,883
6879,830,883
6880,831,887
6881,832,886
6882,835,894
6883,837,891
6884,839,890
6885,839,890
6886,836,888
6887,834,887
6888,833,883
6889,833,884
6890,833,887
6891,832,885
6892,834,889
6893,836,887
6894,838,893
6895,841,892
6896,838,890
6897,839,890
6898,844,890
6899,842,887
6900,841,884
6901,843,882
6902,843,885
6903,845,884
6904,850,890
6905,856,892
6906,860,894
6907,864,894
6908,866,891
6909,862,892
6910,866,893
6911,867,892
6912,868,890
6913,872,888
6914,873,890
6915,875,895
6916,880,897
6917,882,900
6918,881,904
6919,880,904
6920,879,902
6921,877,902
6922,874,899
6923,867,900
6924,869,898
6925,865,896
6926,861,897
6927,862,903
6928,857,900
6929,854,902
6930,856,904
6931,860,905
6932,854,903
6933,847,900
6934,841,897
6935,836,895
6936,830,892
6937,828,887
6938,826,890
6939,826,889
6940,822,890
6941,821,893
6942,823,892
6943,825,894
6944,826,894
6945,826,893
6946,825,888
6947,820,889
6948,821,891
6949,818,887
6950,819,888
6951,819,889
6952,819,889
6953,821,894
6954,824,891
6955,825,891
6956,825,890
6957,824,890
6958,824,888
6959,823,887
6960,822,886
6961,819,888
6962,819,889
6963,821,891
6964,824,892
6965,826,890
6966,826,895
6967,825,895
6968,826,897
6969,825,898
6970,829,895
6971,830,892
6972,828,891
6973,829,892
6974,827,892
6975,828,895
6976,832,896
6977,836,901
6978,839,905
6979,844,903
6980,848,904
6981,852,910
6982,861,914
6983,875,922
6984,899,941
6985,942,963
6986,992,1001
6987,1040,1029
6988,1099,1055
6989,1154,1072
6990,1213,1072
6991,1262,1076
6992,1289,1079
6993,1284,1078
6994,1240,1068
6995,1162,1049
6996,1053,1015
6997,931,961
6998,810,897
6999,723,831
7000,678,777
7001,683,751
7002,714,758
7003,763,781
7004,800,818
7005,821,852
7006,828,872
7007,822,877
7008,813,878
7009,809,876
7010,812,876
7011,815,877
7012,820,881
7013,826,885
7014,830,891
7015,833,894
7016,831,894
7017,830,899
7018,830,898
7019,826,898
7020,826,895
7021,823,894
7022,822,898
7023,824,894
7024,826,897
7025,830,900
7026,829,908
7027,831,907
7028,833,905
7029,831,903
7030,830,904
7031,829,902
7032,826,901
7033,826,899
7034,825,900
7035,821,901
7036,824,900
7037,825,903
7038,828,903
7039,828,907
7040,830,904
7041,831,904
7042,830,902
7043,829,903
7044,826,902
7045,827,901
7046,824,903
7047,826,903
7048,828,905
7049,830,908
7050,831,907
7051,832,913
7052,833,910
7053,836,912
7054,836,911
7055,835,909
7056,831,907
7057,831,909
7058,831,910
7059,832,910
7060,835,911
7061,836,914
7062,835,915
7063,836,919
7064,840,915
7065,840,915
7066,840,911
7067,840,917
7068,837,913
7069,841,912
7070,840,911
7071,840,914
7072,841,919
7073,844,924
7074,851,927
7075,854,929
7076,855,930
7077,856,930
7078,855,932
7079,856,929
7080,855,930
7081,859,931
7082,858,932
7083,860,934
7084,867,938
7085,867,940
7086,874,944
7087,879,948
7088,880,948
7089,883,950
7090,886,950
7091,889,949
7092,889,950
7093,892,948
7094,892,951
7095,896,953
7096,900,958
7097,908,963
7098,911,966
7099,914,968
7100,915,968
7101,920,966
7102,923,970
7103,923,971
7104,924,970
7105,928,970
7106,926,973
7107,927,973
7108,932,974
7109,932,978
7110,935,980
7111,936,979
7112,934,981
7113,934,978
7114,929,973
7115,927,970
7116,920,964
7117,915,958
7118,909,957
7119,903,952
7120,899,951
7121,898,949
7122,897,945
7123,892,943
7124,888,940
7125,884,937
7126,876,934
7127,866,928
7128,862,923
7129,860,918
7130,854,923
7131,854,918
7132,851,917
7133,853,917
7134,851,916
7135,853,918
7136,850,914
7137,850,917
7138,845,910
7139,843,910
7140,843,907
7141,839,904
7142,837,903
7143,836,902
7144,842,906
7145,841,908
7146,841,908
7147,843,908
7148,843,905
7149,845,906
7150,841,905
7151,838,898
7152,838,898
7153,835,901
7154,834,900
7155,834,900
7156,834,905
7157,837,903
7158,839,907
7159,840,909
7160,841,905
7161,841,909
7162,839,904
7163,841,906
7164,839,901
7165,837,901
7166,837,900
7167,836,902
7168,835,901
7169,839,905
7170,841,907
7171,842,907
7172,845,909
7173,843,904
7174,842,903
7175,841,905
7176,840,902
7177,840,901
7178,840,903
7179,837,904
7180,841,907
7181,838,911
7182,846,911
7183,845,911
7184,844,911
7185,842,912
7186,842,909
7187,842,907
7188,839,907
7189,838,907
7190,837,905
7191,836,905
7192,836,910
7193,838,909
7194,839,909
7195,843,911
7196,844,908
7197,844,909
7198,842,911
7199,837,907
7200,836,901
7201,834,901
7202,833,902
7203,835,902
7204,834,904
7205,835,904
7206,838,908
7207,838,909
7208,841,909
7209,840,909
7210,841,905
7211,837,907
7212,837,904
7213,835,901
7214,834,903
7215,831,902
7216,833,903
7217,833,906
7218,837,906
7219,838,908
7220,836,903
7221,837,905
7222,835,902
7223,835,900
7224,830,899
7225,827,896
7226,829,899
7227,829,900
7228,828,899
7229,828,900
7230,831,901
7231,832,904
7232,830,903
7233,828,905
7234,829,904
7235,829,900
7236,831,898
7237,827,898
7238,827,895
7239,826,899
7240,826,902
7241,827,903
7242,829,904
7243,829,905
7244,832,904
7245,831,903
7246,834,903
7247,828,899
7248,828,900
7249,826,895
7250,825,898
7251,825,896
7252,824,898
7253,827,898
7254,828,901
7255,830,899
7256,831,900
7257,830,904
7258,829,898
7259,823,899
7260,822,897
7261,823,895
7262,822,898
7263,823,897
7264,825,899
7265,826,899
7266,825,902
7267,829,901
7268,834,900
7269,832,903
7270,832,901
7271,831,901
7272,831,897
7273,828,894
7274,827,895
7275,828,896
7276,828,895
7277,828,899
7278,831,900
7279,829,902
7280,828,902
7281,832,900
7282,829,901
7283,827,900
7284,830,898
7285,828,897
7286,826,897
7287,825,897
7288,825,904
7289,829,901
7290,831,902
7291,832,906
7292,831,904
7293,832,903
7294,830,904
7295,829,903
7296,830,901
7297,827,896
7298,824,896
7299,825,898
7300,827,898
7301,830,899
7302,831,902
7303,829,904
7304,828,902
7305,830,904
7306,830,900
7307,829,900
7308,826,900
7309,825,898
7310,827,901
7311,825,899
7312,827,901
7313,830,902
7314,830,907
7315,832,907
7316,835,907
7317,831,906
7318,832,903
7319,833,905
7320,830,904
7321,828,899
7322,828,903
7323,827,903
7324,828,904
7325,831,904
7326,833,908
7327,832,908
7328,834,907
7329,834,904
7330,830,905
7331,834,905
7332,831,900
7333,828,898
7334,829,899
7335,827,900
7336,825,900
7337,827,904
7338,830,910
7339,834,911
7340,835,908
7341,835,911
7342,835,908
7343,831,905
7344,831,905
7345,831,901
7346,828,902
7347,827,903
7348,830,909
7349,833,907
7350,833,908
7351,836,913
7352,836,915
7353,836,911
7354,835,906
7355,835,906
7356,832,903
7357,831,902
7358,832,900
7359,828,904
7360,829,906
7361,830,907
7362,833,907
7363,835,909
7364,837,906
7365,837,907
7366,836,909
7367,834,908
7368,833,907
7369,831,905
7370,830,902
7371,828,905
7372,829,909
7373,835,909
7374,835,910
7375,836,910
7376,836,910
7377,836,912
7378,838,908
7379,838,906
7380,834,905
7381,832,900
7382,834,900
7383,833,903
7384,838,907
7385,840,904
7386,844,907
7387,851,910
7388,854,911
7389,856,910
7390,858,909
7391,856,905
7392,857,906
7393,855,904
7394,850,903
7395,855,905
7396,860,910
7397,868,910
7398,873,917
7399,879,920
7400,880,919
7401,881,922
7402,879,922
7403,872,919
7404,866,917
7405,865,916
7406,862,916
7407,854,914
7408,858,917
7409,861,920
7410,861,919
7411,861,921
7412,861,920
7413,858,920
7414,856,921
7415,851,919
7416,842,912
7417,835,908
7418,829,910
7419,826,910
7420,825,909
7421,822,911
7422,824,909
7423,825,912
7424,824,910
7425,821,911
7426,821,908
7427,820,909
7428,819,907
7429,818,905
7430,815,905
7431,815,904
7432,817,907
7433,817,910
7434,818,911
7435,819,910
7436,823,911
7437,825,910
7438,823,914
7439,818,907
7440,816,910
7441,814,904
7442,814,901
7443,812,902
7444,812,906
7445,814,906
7446,819,911
7447,819,912
7448,822,916
7449,823,915
7450,822,911
7451,822,910
7452,823,910
7453,821,906
7454,821,911
7455,823,908
7456,824,911
7457,825,913
7458,829,917
7459,831,918
7460,835,922
7461,839,919
7462,839,919
7463,842,917
7464,849,922
7465,857,928
7466,881,943
7467,916,960
7468,958,993
7469,1008,1027
7470,1058,1056
7471,1106,1076
7472,1155,1088
7473,1205,1093
7474,1242,1091
7475,1253,1086
7476,1229,1081
7477,1171,1066
7478,1089,1040
7479,984,999
7480,873,948
7481,777,888
7482,715,831
7483,688,787
7484,700,770
7485,726,783
7486,756,807
7487,782,840
7488,794,866
7489,798,882
7490,801,890
7491,802,889
7492,806,893
7493,812,894
7494,818,899
7495,824,905
7496,829,910
7497,827,913
7498,825,912
7499,823,910
7500,820,911
7501,821,911
7502,821,913
7503,820,914
7504,821,915
7505,825,918
7506,824,918
7507,827,923
7508,829,924
7509,827,921
7510,827,918
7511,824,918
7512,823,918
7513,820,913
7514,820,915
7515,821,915
7516,824,918
7517,823,921
7518,825,923
7519,827,925
7520,829,921
7521,831,920
7522,829,923
7523,827,918
7524,826,917
7525,826,919
7526,823,918
7527,822,914
7528,822,920
7529,823,921
7530,824,922
7531,825,924
7532,829,926
7533,830,925
7534,835,925
7535,830,924
7536,829,923
7537,827,923
7538,824,921
7539,826,925
7540,827,923
7541,831,925
7542,834,927
7543,833,933
7544,837,932
7545,839,931
7546,837,928
7547,838,925
7548,837,924
7549,836,925
7550,838,925
7551,837,928
7552,838,928
7553,840,933
7554,842,933
7555,843,938
7556,851,940
7557,851,938
7558,853,942
7559,855,943
7560,853,940
7561,854,940
7562,855,940
7563,857,946
7564,862,949
7565,867,950
7566,871,954
7567,876,956
7568,880,962
7569,878,959
7570,884,962
7571,888,961
7572,889,957
7573,892,956
7574,892,959
7575,896,962
7576,898,965
7577,904,967
7578,909,971
7579,908,975
7580,918,980
7581,920,981
7582,921,982
7583,924,981
7584,925,977
7585,924,980
7586,927,978
7587,928,983
7588,928,985
7589,933,989
7590,933,991
7591,934,996
7592,934,989
7593,932,988
7594,930,984
7595,927,980
7596,921,973
7597,916,971
7598,912,967
7599,907,963
7600,901,960
7601,899,961
7602,892,961
7603,891,958
7604,890,956
7605,884,953
7606,879,947
7607,875,946
7608,870,940
7609,863,936
7610,860,935
7611,857,932
7612,854,933
7613,855,934
7614,854,930
7615,854,935
7616,853,932
7617,852,931
7618,849,931
7619,847,923
7620,844,926
7621,840,920
7622,838,921
7623,841,920
7624,836,919
7625,840,919
7626,841,920
7627,842,922
7628,846,919
7629,843,918
7630,843,914
7631,838,913
7632,838,911
7633,834,910
7634,834,910
7635,833,914
7636,833,915
7637,835,915
7638,835,919
7639,838,918
7640,839,924
7641,839,920
7642,839,919
7643,832,919
7644,834,916
7645,833,913
7646,833,912
7647,834,914
7648,835,915
7649,840,918
7650,842,924
7651,843,923
7652,844,924
7653,842,921
7654,845,919
7655,844,916
7656,845,915
7657,841,913
7658,840,915
7659,841,917
7660,840,915
7661,840,923
7662,842,923
7663,843,926
7664,846,925
7665,848,925
7666,845,927
7667,845,926
7668,845,925
7669,841,923
7670,840,921
7671,840,924
7672,841,923
7673,840,927
7674,845,930
7675,847,930
7676,849,929
7677,847,928
7678,848,925
7679,847,923
7680,843,922
7681,838,917
7682,840,920
7683,840,920
7684,839,920
7685,837,921
7686,844,924
7687,844,928
7688,844,924
7689,843,923
7690,842,923
7691,841,921
7692,836,924
7693,837,919
7694,836,920
7695,833,923
7696,834,921
7697,836,922
7698,840,921
7699,839,924
7700,842,922
7701,841,919
7702,841,920
7703,837,920
7704,834,920
7705,832,916
7706,828,915
7707,828,913
7708,827,915
7709,834,914
7710,837,913
7711,839,915
7712,838,921
7713,839,919
7714,838,917
7715,834,914
7716,835,918
7717,833,916
7718,832,915
7719,830,913
7720,830,917
7721,835,918
7722,835,922
7723,839,921
7724,840,920
7725,837,920
7726,835,918
7727,833,916
7728,831,914
7729,827,913
7730,829,910
7731,830,915
7732,827,915
7733,831,918
7734,832,920
7735,833,917
7736,836,920
7737,834,918
7738,836,918
7739,835,917
7740,831,914
7741,829,915
7742,828,913
7743,823,916
7744,830,917
7745,829,918
7746,831,920
7747,832,919
7748,835,921
7749,834,920
7750,837,919
7751,833,919
7752,833,921
7753,831,918
7754,828,916
7755,830,916
7756,829,914
7757,830,920
7758,832,921
7759,835,920
7760,836,920
7761,838,920
7762,837,917
7763,834,916
7764,833,913
7765,829,911
7766,827,917
7767,830,918
7768,828,919
7769,830,918
7770,830,923
7771,834,924
7772,835,923
7773,835,925
7774,835,922
7775,838,921
7776,834,921
7777,832,918
7778,829,915
7779,829,918
7780,830,918
7781,831,920
7782,835,922
7783,836,927
7784,838,924
7785,836,923
7786,836,921
7787,836,919
7788,835,918
7789,833,915
7790,830,916
7791,830,915
7792,828,915
7793,831,919
7794,834,923
7795,831,923
7796,837,925
7797,833,925
7798,835,924
7799,838,925
7800,838,922
7801,837,924
7802,834,922
7803,833,927
7804,832,924
7805,832,926
7806,836,925
7807,835,925
7808,838,928
7809,839,922
7810,841,927
7811,840,922
7812,835,923
7813,834,920
7814,832,918
7815,832,920
7816,835,920
7817,837,920
7818,840,924
7819,839,928
7820,841,931
7821,841,928
7822,841,927
7823,840,927
7824,840,924
7825,840,923
7826,841,924
7827,839,924
7828,843,927
7829,844,928
7830,852,929
7831,858,931
7832,863,934
7833,863,930
7834,862,930
7835,865,926
7836,860,927
7837,861,928
7838,868,926
7839,874,927
7840,880,929
7841,885,932
7842,888,936
7843,889,938
7844,890,939
7845,887,939
7846,886,936
7847,881,937
7848,877,938
7849,876,935
7850,875,938
7851,871,937
7852,873,938
7853,872,940
7854,873,943
7855,871,943
7856,868,942
7857,857,940
7858,850,940
7859,843,937
7860,836,930
7861,835,929
7862,835,924
7863,833,925
7864,832,926
7865,832,926
7866,831,929
7867,834,932
7868,833,932
7869,832,930
7870,834,926
7871,834,925
7872,831,922
7873,831,922
7874,830,921
7875,826,922
7876,828,925
7877,828,930
7878,830,928
7879,835,932
7880,836,931
7881,835,932
7882,833,928
7883,830,926
7884,827,927
7885,829,925
7886,827,928
7887,830,927
7888,829,927
7889,829,928
7890,835,930
7891,834,932
7892,837,935
7893,838,932
7894,837,931
7895,837,933
7896,833,931
7897,835,929
7898,831,929
7899,833,930
7900,833,928
7901,835,927
7902,839,927
7903,845,932
7904,849,931
7905,850,935
7906,852,936
7907,850,935
7908,849,935
7909,848,941
7910,850,943
7911,856,948
7912,873,958
7913,901,977
7914,942,994
7915,991,1028
7916,1040,1060
7917,1090,1091
7918,1143,1112
7919,1194,1121
7920,1245,1125
7921,1275,1125
7922,1284,1117
7923,1247,1102
7924,1178,1082
7925,1078,1043
7926,960,998
7927,841,934
7928,747,867
7929,686,810
7930,672,769
7931,684,754
7932,714,770
7933,744,799
7934,768,831
7935,787,858
7936,795,877
7937,805,896
7938,814,908
7939,818,915
7940,829,918
7941,834,921
7942,839,926
7943,842,923
7944,838,926
7945,836,923
7946,834,926
7947,830,926
7948,829,931
7949,832,930
7950,836,936
7951,840,939
7952,843,938
7953,840,935
7954,842,936
7955,839,934
7956,838,933
7957,837,932
7958,836,932
7959,836,932
7960,837,933
7961,839,934
7962,839,941
7963,844,939
7964,843,944
7965,843,943
7966,843,941
7967,840,940
7968,841,942
7969,837,940
7970,837,937
7971,836,939
7972,833,940
7973,837,943
7974,841,943
7975,842,946
7976,845,947
7977,844,943
7978,844,944
7979,842,943
7980,841,943
7981,838,940
7982,839,937
7983,838,939
7984,838,939
7985,838,940
7986,840,942
7987,845,946
7988,842,947
7989,841,947
7990,845,948
7991,844,946
7992,844,944
7993,844,943
7994,842,948
7995,845,944
7996,845,947
7997,847,948
7998,850,949
7999,855,953
8000,858,954
8001,860,954
8002,859,953
8003,860,953
8004,859,953
8005,858,951
8006,859,952
8007,861,954
8008,862,953
8009,866,955
8010,870,956
8011,872,960
8012,877,965
8013,880,965
8014,882,967
8015,882,967
8016,881,964
8017,885,963
8018,884,968
8019,887,967
8020,890,973
8021,892,975
8022,897,980
8023,903,982
8024,907,984
8025,914,987
8026,913,989
8027,913,987
8028,915,986
8029,914,986
8030,916,986
8031,918,990
8032,923,992
8033,924,993
8034,929,994
8035,932,995
8036,937,998
8037,938,997
8038,938,995
8039,938,994
8040,936,989
8041,934,987
8042,934,986
8043,931,986
8044,926,984
8045,927,989
8046,926,985
8047,926,985
8048,923,986
8049,922,981
8050,915,979
8051,909,976
8052,905,972
8053,900,963
8054,896,961
8055,891,962
8056,888,958
8057,882,956
8058,881,956
8059,880,955
8060,875,954
8061,876,952
8062,875,946
8063,874,947
8064,870,945
8065,866,943
8066,864,936
8067,859,937
8068,861,937
8069,861,936
8070,862,938
8071,863,937
8072,862,937
8073,861,939
8074,861,935
8075,859,934
8076,859,931
8077,854,931
8078,856,929
8079,852,929
8080,851,930
8081,854,936
8082,853,933
8083,857,936
8084,857,937
8085,856,933
8086,857,935
8087,857,935
8088,856,930
8089,854,928
8090,853,929
8091,853,930
8092,852,927
8093,853,932
8094,856,931
8095,858,933
8096,857,936
8097,857,933
8098,858,933
8099,860,931
8100,858,931
8101,856,932
8102,855,931
8103,854,932
8104,856,934
8105,854,935
8106,859,935
8107,859,937
8108,865,940
8109,864,938
8110,865,940
8111,864,939
8112,864,938
8113,862,935
8114,859,935
8115,859,934
8116,860,935
8117,862,937
8118,860,939
8119,865,940
8120,866,943
8121,867,940
8122,866,943
8123,866,939
8124,864,936
8125,864,933
8126,862,934
8127,864,937
8128,861,939
8129,864,940
8130,863,942
8131,865,943
8132,867,947
8133,865,944
8134,866,946
8135,865,941
8136,862,941
8137,860,938
8138,853,935
8139,858,935
8140,855,939
8141,854,938
8142,857,940
8143,860,938
8144,861,939
8145,860,936
8146,861,936
8147,861,933
8148,858,932
8149,856,931
8150,855,929
8151,854,929
8152,853,926
8153,854,933
8154,856,937
8155,857,936
8156,859,938
8157,857,937
8158,858,938
8159,857,935
8160,851,931
8161,855,929
8162,851,924
8163,850,929
8164,848,927
8165,849,930
8166,849,933
8167,852,932
8168,854,934
8169,854,931
8170,854,930
8171,854,928
8172,850,924
8173,848,926
8174,848,922
8175,847,924
8176,844,925
8177,848,924
8178,849,928
8179,852,928
8180,854,932
8181,854,933
8182,855,935
8183,853,928
8184,849,928
8185,847,928
8186,847,926
8187,844,927
8188,846,928
8189,844,929
8190,844,931
8191,852,933
8192,851,935
8193,853,935
8194,852,934
8195,848,931
8196,847,931
8197,846,928
8198,844,924
8199,842,923
8200,843,926
8201,845,926
8202,847,928
8203,850,928
8204,854,927
8205,853,928
8206,853,928
8207,852,928
8208,851,928
8209,847,926
8210,846,924
8211,843,927
8212,842,927
8213,844,931
8214,845,928
8215,849,933
8216,850,931
8217,850,931
8218,850,931
8219,847,930
8220,847,927
8221,846,925
8222,845,923
8223,843,924
8224,844,923
8225,842,925
8226,846,927
8227,849,930
8228,850,927
8229,850,928
8230,848,930
8231,854,925
8232,848,926
8233,848,925
8234,845,923
8235,845,925
8236,840,923
8237,842,928
8238,847,926
8239,847,931
8240,847,932
8241,850,932
8242,851,929
8243,852,927
8244,851,927
8245,848,926
8246,846,927
8247,846,923
8248,846,926
8249,848,930
8250,849,929
8251,850,928
8252,851,932
8253,855,931
8254,852,929
8255,849,926
8256,850,927
8257,848,923
8258,844,920
8259,843,918
8260,843,919
8261,846,923
8262,850,930
8263,850,931
8264,852,929
8265,851,930
8266,853,928
8267,850,926
8268,846,923
8269,844,921
8270,844,919
8271,846,923
8272,845,923
8273,846,926
8274,850,927
8275,853,930
8276,851,930
8277,853,927
8278,853,928
8279,852,926
8280,849,923
8281,847,921
8282,846,917
8283,845,921
8284,841,922
8285,844,924
8286,845,925
8287,849,925
8288,852,930
8289,855,929
8290,855,926
8291,855,927
8292,851,927
8293,853,925
8294,848,924
8295,845,923
8296,847,926
8297,845,925
8298,848,927
8299,851,928
8300,851,931
8301,853,932
8302,855,931
8303,852,927
8304,852,927
8305,849,925
8306,850,922
8307,846,920
8308,845,922
8309,848,922
8310,851,927
8311,853,931
8312,853,930
8313,855,931
8314,856,927
8315,858,928
8316,856,928
8317,856,925
8318,856,926
8319,858,925
8320,860,929
8321,867,927
8322,871,931
8323,877,931
8324,877,932
8325,880,930
8326,879,935
8327,877,928
8328,875,929
8329,876,930
8330,878,927
8331,884,928
8332,888,932
8333,892,933
8334,894,936
8335,895,940
8336,895,940
8337,893,942
8338,891,937
8339,889,936
8340,885,936
8341,880,935
8342,879,933
8343,879,936
8344,875,938
8345,875,944
8346,880,944
8347,877,945
8348,875,943
8349,874,943
8350,868,942
8351,864,940
8352,856,935
8353,851,930
8354,845,929
8355,841,930
8356,840,927
8357,839,929
8358,839,931
8359,840,932
8360,844,933
8361,844,931
8362,846,931
8363,845,927
8364,842,927
8365,842,925
8366,838,922
8367,835,926
8368,837,925
8369,837,928
8370,840,926
8371,843,927
8372,844,934
8373,846,933
8374,844,933
8375,844,931
8376,844,929
8377,841,929
8378,839,925
8379,839,925
8380,837,928
8381,838,928
8382,839,932
8383,841,933
8384,845,934
8385,847,935
8386,847,935
8387,851,930
8388,848,931
8389,845,929
8390,843,925
8391,848,924
8392,847,928
8393,851,929
8394,853,929
8395,859,935
8396,861,936
8397,864,942
8398,868,945
8399,873,946
8400,886,957
8401,907,967
8402,942,986
8403,988,1013
8404,1035,1043
8405,1089,1075
8406,1141,1094
8407,1195,1103
8408,1247,1107
8409,1287,1106
8410,1296,1106
8411,1270,1105
8412,1206,1090
8413,1112,1068
8414,996,1029
8415,881,976
8416,785,911
8417,723,851
8418,709,802
8419,726,786
8420,761,793
8421,802,824
8422,827,856
8423,838,883
8424,840,900
8425,833,906
8426,826,908
8427,825,904
8428,829,910
8429,835,912
8430,844,915
8431,847,923
8432,850,925
8433,849,927
8434,851,928
8435,849,928
8436,844,928
8437,840,925
8438,841,926
8439,842,927
8440,842,930
8441,844,929
8442,846,933
8443,848,932
8444,851,934
8445,849,933
8446,850,933
8447,849,930
8448,845,931
8449,847,928
8450,845,924
8451,845,926
8452,844,929
8453,845,935
8454,846,935
8455,843,936
8456,850,938
8457,851,936
8458,847,936
8459,849,938
8460,849,936
8461,847,934
8462,844,930
8463,842,931
8464,841,932
8465,843,937
8466,846,934
8467,847,938
8468,852,937
8469,852,940
8470,851,940
8471,850,938
8472,848,935
8473,846,937
8474,845,931
8475,841,933
8476,845,932
8477,845,933
8478,847,938
8479,850,941
8480,852,942
8481,855,944
8482,857,944
8483,857,944
8484,856,942
8485,854,942
8486,854,938
8487,854,939
8488,852,941
8489,855,945
8490,856,946
8491,861,949
8492,864,953
8493,866,949
8494,871,954
8495,870,953
8496,871,953
8497,869,950
8498,869,952
8499,871,951
8500,872,954
8501,877,956
8502,882,957
8503,886,960
8504,887,961
8505,893,964
8506,895,969
8507,897,967
8508,899,968
8509,900,967
8510,903,971
8511,904,972
8512,905,973
8513,911,977
8514,915,981
8515,922,983
8516,927,989
8517,930,988
8518,933,991
8519,936,990
8520,934,991
8521,937,989
8522,936,989
8523,937,988
8524,939,990
8525,941,992
8526,944,993
8527,947,996
8528,947,996
8529,946,992
8530,948,993
8531,945,991
8532,939,985
8533,934,983
8534,928,978
8535,922,975
8536,920,974
8537,917,974
8538,914,974
8539,911,972
8540,908,969
8541,905,964
8542,901,958
8543,896,955
8544,889,951
8545,881,944
8546,876,943
8547,874,937
8548,871,939
8549,868,939
8550,869,939
8551,868,938
8552,868,939
8553,870,937
8554,868,932
8555,865,929
8556,861,926
8557,860,924
8558,857,922
8559,854,920
8560,855,920
8561,853,924
8562,855,927
8563,858,927
8564,861,928
8565,861,932
8566,862,930
8567,861,924
8568,859,925
8569,854,925
8570,856,921
8571,854,920
8572,853,920
8573,852,925
8574,852,924
8575,855,928
8576,858,929
8577,859,925
8578,859,927
8579,861,926
8580,856,922
8581,855,925
8582,853,918
8583,852,920
8584,855,921
8585,854,926
8586,856,927
8587,860,928
8588,861,932
8589,861,930
8590,860,932
8591,861,927
8592,861,930
8593,859,925
8594,853,927
8595,851,926
8596,850,927
8597,854,930
8598,857,931
8599,860,930
8600,862,933
8601,861,933
8602,861,933
8603,862,929
8604,860,928
8605,855,928
8606,853,924
8607,851,923
8608,850,924
8609,852,926
8610,854,929
8611,858,928
8612,862,930
8613,863,932
8614,861,929
8615,860,930
8616,856,928
8617,853,930
8618,856,924
8619,854,923
8620,851,925
8621,851,923
8622,851,930
8623,855,930
8624,851,933
8625,855,933
8626,856,931
8627,855,926
8628,854,924
8629,852,925
8630,852,920
8631,848,920
8632,847,917
8633,848,921
8634,848,921
8635,852,923
8636,855,925
8637,855,923
8638,856,926
8639,853,923
8640,853,925
8641,848,920
8642,847,920
8643,846,920
8644,847,920
8645,846,921
8646,846,922
8647,850,922
8648,851,924
8649,847,926
8650,850,924
8651,849,922
8652,847,920
8653,843,919
8654,844,915
8655,842,917
8656,843,916
8657,842,915
8658,844,918
8659,845,918
8660,850,920
8661,851,922
8662,850,921
8663,849,919
8664,849,919
8665,848,916
8666,844,916
8667,844,915
8668,844,916
8669,844,922
8670,843,920
8671,845,921
8672,848,923
8673,850,923
8674,849,919
8675,849,920
8676,849,918
8677,845,918
8678,844,916
8679,841,914
8680,836,914
8681,837,916
8682,841,920
8683,844,918
8684,846,920
8685,846,921
8686,846,916
8687,846,919
8688,844,914
8689,843,914
8690,840,911
8691,841,914
8692,842,913
8693,842,914
8694,842,915
8695,844,918
8696,843,921
8697,847,920
8698,845,920
8699,845,917
8700,844,918
8701,843,914
8702,840,910
8703,839,912
8704,841,911
8705,840,913
8706,841,916
8707,844,918
8708,846,919
8709,848,921
8710,848,919
8711,846,915
8712,843,915
8713,844,909
8714,842,911
8715,841,910
8716,841,913
8717,840,914
8718,843,916
8719,848,917
8720,845,923
8721,847,919
8722,848,923
8723,845,923
8724,845,918
8725,846,915
8726,843,913
8727,841,913
8728,840,914
8729,841,913
8730,844,917
8731,845,918
8732,846,920
8733,848,919
8734,849,919
8735,848,919
8736,849,913
8737,847,912
8738,844,913
8739,843,912
8740,841,913
8741,840,917
8742,844,913
8743,847,918
8744,848,921
8745,848,921
8746,849,921
8747,848,917
8748,848,918
8749,847,914
8750,845,915
8751,844,915
8752,843,917
8753,841,918
8754,844,915
8755,846,919
8756,847,923
8757,851,923
8758,850,919
8759,848,918
8760,848,915
8761,847,915
8762,843,910
8763,843,912
8764,843,911
8765,842,915
8766,845,915
8767,844,918
8768,850,922
8769,849,921
8770,848,919
8771,850,920
8772,847,918
8773,846,917
8774,842,918
8775,842,915
8776,841,916
8777,844,916
8778,845,921
8779,847,921
8780,851,924
8781,851,920
8782,850,923
8783,852,921
8784,847,918
8785,846,917
8786,844,916
8787,843,916
8788,843,914
8789,842,914
8790,845,912
8791,847,915
8792,849,922
8793,851,919
8794,852,919
8795,850,920
8796,848,918
8797,847,916
8798,846,915
8799,843,916
8800,847,916
8801,848,916
8802,850,919
8803,852,920
8804,859,921
8805,865,920
8806,868,922
8807,873,922
8808,873,919
8809,870,915
8810,868,917
8811,869,914
8812,868,914
8813,870,918
8814,874,922
8815,881,923
8816,888,926
8817,891,927
8818,894,926
8819,893,923
8820,893,923
8821,889,919
8822,886,922
8823,880,923
8824,878,923
8825,876,929
8826,880,930
8827,877,933
8828,879,935
8829,880,935
8830,880,936
8831,876,933
8832,875,930
8833,865,929
8834,858,926
8835,852,923
8836,852,923
8837,846,920
8838,844,920
8839,843,921
8840,845,922
8841,843,923
8842,842,923
8843,841,921
8844,837,916
8845,832,915
8846,830,912
8847,828,911
8848,828,911
8849,831,911
8850,829,913
8851,833,917
8852,837,918
8853,837,925
8854,833,920
8855,830,921
8856,832,921
8857,833,919
8858,833,917
8859,830,915
8860,828,915
8861,834,914
8862,836,916
8863,836,920
8864,836,922
8865,839,922
8866,839,924
8867,838,920
8868,837,919
8869,837,917
8870,833,917
8871,831,914
8872,832,911
8873,833,912
8874,839,918
8875,837,920
8876,844,923
8877,843,925
8878,845,925
8879,846,925
8880,849,923
8881,854,923
8882,856,926
8883,862,933
8884,878,943
8885,905,958
8886,946,979
8887,993,1011
8888,1038,1044
8889,1090,1072
8890,1145,1090
8891,1192,1097
8892,1235,1097
8893,1244,1093
8894,1221,1086
8895,1161,1070
8896,1072,1043
8897,972,1004
8898,867,958
8899,783,903
8900,727,847
8901,709,801
8902,720,780
8903,746,780
8904,775,800
8905,795,827
8906,805,854
8907,805,872
8908,803,886
8909,803,891
8910,808,895
8911,813,900
8912,823,907
8913,833,910
8914,834,912
8915,841,912
8916,839,911
8917,835,914
8918,829,908
8919,825,911
8920,827,913
8921,830,914
8922,833,918
8923,833,918
8924,833,919
8925,838,922
8926,839,921
8927,842,920
8928,838,918
8929,834,913
8930,833,914
8931,831,914
8932,833,916
8933,832,920
8934,834,921
8935,835,925
8936,837,927
8937,840,932
8938,839,925
8939,836,925
8940,838,924
8941,836,923
8942,833,922
8943,834,920
8944,835,922
8945,831,919
8946,837,925
8947,835,928
8948,836,930
8949,841,928
8950,842,929
8951,842,927
8952,843,924
8953,843,926
8954,839,924
8955,840,921
8956,839,923
8957,837,926
8958,838,929
8959,839,924
8960,844,930
8961,844,930
8962,845,927
8963,846,932
8964,844,931
8965,845,928
8966,845,929
8967,843,924
8968,842,926
8969,844,926
8970,847,933
8971,851,935
8972,853,939
8973,857,938
8974,854,940
8975,858,939
8976,856,939
8977,855,938
8978,858,936
8979,857,936
8980,858,937
8981,862,940
8982,863,943
8983,868,946
8984,871,947
8985,877,946
8986,878,951
8987,882,950
8988,885,952
8989,886,955
8990,884,952
8991,886,954
8992,886,957
8993,888,962
8994,891,966
8995,900,968
8996,902,967
8997,908,973
8998,909,973
8999,915,973
9000,919,972
9001,920,976
9002,919,973
9003,922,976
9004,922,975
9005,925,976
9006,926,978
9007,928,981
9008,935,980
9009,935,981
9010,937,980
9011,936,981
9012,934,977
9013,930,978
9014,929,974
9015,924,975
9016,922,977
9017,920,972
9018,914,971
9019,914,973
9020,914,972
9021,913,968
9022,909,967
9023,906,962
9024,901,956
9025,893,951
9026,886,945
9027,880,945
9028,874,941
9029,873,940
9030,870,937
9031,867,935
9032,867,936
9033,866,934
9034,865,930
9035,862,930
9036,858,925
9037,856,922
9038,854,921
9039,850,918
9040,850,919
9041,849,919
9042,848,921
9043,852,922
9044,851,922
9045,853,924
9046,851,923
9047,849,923
9048,849,922
9049,845,919
9050,847,918
9051,845,913
9052,842,918
9053,842,916
9054,845,919
9055,848,922
9056,849,921
9057,852,922
9058,850,920
9059,847,919
9060,846,915
9061,842,914
9062,844,914
9063,844,914
9064,844,913
9065,843,917
9066,847,917
9067,849,919
9068,849,924
9069,850,923
9070,853,923
9071,854,920
9072,853,924
9073,851,923
9074,850,921
9075,850,923
9076,849,922
9077,849,923
9078,849,923
9079,852,924
9080,853,927
9081,854,929
9082,856,923
9083,855,922
9084,852,923
9085,853,924
9086,854,922
9087,851,918
9088,851,921
9089,850,921
9090,847,921
9091,853,925
9092,849,928
9093,855,928
9094,857,930
9095,857,930
9096,856,932
9097,853,931
9098,850,927
9099,849,927
9100,848,926
9101,847,924
9102,847,927
9103,851,926
9104,850,925
9105,852,929
9106,852,930
9107,850,927
9108,847,927
9109,848,923
9110,844,921
9111,846,920
9112,844,921
9113,844,919
9114,843,923
9115,844,923
9116,843,924
9117,847,925
9118,847,922
9119,846,923
9120,847,918
9121,847,923
9122,842,919
9123,838,919
9124,841,916
9125,839,916
9126,841,920
9127,842,919
9128,845,924
9129,845,923
9130,848,928
9131,848,926
9132,845,920
9133,843,920
9134,840,917
9135,841,919
9136,840,919
9137,837,919
9138,837,920
9139,838,923
9140,841,924
9141,842,925
9142,842,921
9143,846,920
9144,845,920
9145,844,919
9146,845,919
9147,843,916
9148,841,917
9149,838,921
9150,839,920
9151,842,921
9152,841,923
9153,842,928
9154,842,925
9155,841,923
9156,841,923
9157,842,919
9158,841,918
9159,839,920
9160,839,921
9161,838,921
9162,840,923
9163,836,922
9164,839,926
9165,838,928
9166,842,924
9167,845,923
9168,842,920
9169,842,923
9170,841,918
9171,839,915
9172,837,918
9173,836,919
9174,840,922
9175,840,923
9176,840,929
9177,845,928
9178,845,925
9179,844,926
9180,844,921
9181,844,922
9182,839,919
9183,837,920
9184,838,922
9185,837,921
9186,838,924
9187,840,925
9188,842,930
9189,844,932
9190,846,928
9191,843,927
9192,840,925
9193,840,922
9194,839,919
9195,835,918
9196,838,921
9197,842,920
9198,841,923
9199,844,925
9200,845,926
9201,847,925
9202,845,924
9203,844,922
9204,845,923
9205,843,923
9206,841,923
9207,842,924
9208,841,922
9209,839,924
9210,842,928
9211,842,930
9212,844,930
9213,845,932
9214,847,933
9215,847,928
9216,845,930
9217,843,926
9218,839,922
9219,838,922
9220,837,922
9221,839,920
9222,842,924
9223,841,927
9224,843,925
9225,844,929
9226,845,927
9227,846,928
9228,846,923
9229,843,926
9230,842,926
9231,842,927
9232,839,924
9233,842,925
9234,840,927
9235,843,929
9236,847,930
9237,848,936
9238,852,935
9239,857,931
9240,855,932
9241,857,929
9242,855,929
9243,858,928
9244,857,926
9245,858,927
9246,860,929
9247,864,930
9248,866,930
9249,873,936
9250,878,935
9251,887,935
9252,886,936
9253,886,935
9254,887,935
9255,887,936
9256,882,939
9257,878,941
9258,877,944
9259,874,945
9260,877,947
9261,881,949
9262,882,950
9263,883,947
9264,879,950
9265,874,947
9266,866,944
9267,859,942
9268,850,940
9269,846,938
9270,841,938
9271,841,938
9272,845,939
9273,847,941
9274,847,938
9275,843,938
9276,840,933
