'sample #','MLII','V4'
0,824,887
1,824,887
2,824,887
3,824,887
4,824,887
5,824,887
6,824,887
7,827,888
8,830,888
9,830,885
10,830,885
11,830,885
12,828,883
13,829,883
14,829,885
15,827,886
16,828,886
17,830,890
18,829,889
19,833,891
20,835,889
21,834,889
22,831,888
23,834,888
24,833,887
25,832,886
26,832,886
27,831,888
28,830,890
29,831,891
30,834,892
31,834,894
32,839,893
33,838,892
34,836,892
35,837,891
36,836,891
37,834,890
38,831,889
39,832,889
40,834,891
41,833,892
42,836,893
43,835,894
44,839,892
45,839,892
46,838,891
47,838,888
48,837,889
49,835,889
50,834,889
51,834,889
52,835,892
53,836,892
54,837,893
55,840,893
56,840,896
57,840,894
58,841,895
59,841,893
60,840,892
61,840,886
62,838,889
63,838,889
64,834,891
65,833,892
66,838,894
67,841,895
68,843,896
69,844,894
70,842,893
71,840,893
72,839,892
73,839,888
74,839,886
75,840,888
76,838,887
77,837,890
78,840,893
79,843,897
80,843,896
81,845,896
82,844,893
83,843,889
84,841,886
85,840,884
86,842,888
87,840,889
88,839,889
89,842,893
90,841,894
91,844,895
92,845,897
93,844,894
94,844,892
95,843,890
96,842,889
97,842,888
98,840,889
99,840,893
100,840,892
101,840,893
102,842,895
103,840,893
104,844,896
105,845,892
106,844,891
107,843,890
108,841,888
109,842,890
110,840,888
111,839,889
112,837,890
113,842,893
114,843,892
115,843,893
116,845,893
117,845,892
118,845,889
119,844,890
120,842,889
121,843,887
122,841,889
123,840,888
124,841,887
125,842,890
126,840,891
127,844,892
128,846,892
129,845,891
130,845,893
131,845,891
132,843,891
133,842,888
134,841,887
135,842,888
136,841,888
137,840,892
138,844,893
139,844,894
140,845,894
141,847,891
142,845,892
143,844,889
144,844,888
145,843,888
146,841,886
147,840,888
148,840,890
149,842,890
150,843,892
151,844,893
152,845,893
153,847,895
154,846,892
155,847,890
156,847,887
157,846,888
158,844,888
159,846,889
160,845,886
161,847,889
162,850,890
163,848,890
164,851,894
165,850,890
166,850,892
167,850,888
168,851,887
169,852,887
170,854,887
171,854,889
172,857,888
173,860,891
174,860,892
175,862,895
176,862,896
177,861,894
178,858,896
179,857,891
180,854,891
181,851,891
182,851,893
183,850,893
184,850,894
185,851,896
186,850,897
187,852,896
188,855,900
189,858,903
190,860,903
191,861,901
192,861,903
193,860,901
194,859,900
195,856,898
196,855,896
197,853,896
198,849,898
199,848,899
200,848,897
201,845,895
202,842,890
203,840,889
204,838,887
205,837,886
206,839,886
207,839,885
208,838,888
209,840,891
210,842,890
211,842,891
212,843,888
213,842,886
214,837,877
215,837,874
216,837,875
217,841,886
218,854,901
219,874,928
220,893,952
221,910,970
222,924,975
223,931,972
224,935,955
225,925,921
226,902,868
227,874,811
228,840,758
229,821,725
230,821,717
231,842,733
232,880,764
233,929,803
234,982,840
235,1031,871
236,1076,897
237,1122,915
238,1162,926
239,1200,929
240,1229,931
241,1250,932
242,1262,929
243,1263,921
244,1257,908
245,1241,897
246,1218,890
247,1187,886
248,1151,887
249,1109,890
250,1067,892
251,1024,896
252,981,902
253,938,899
254,895,895
255,857,886
256,828,878
257,810,874
258,799,872
259,796,874
260,798,882
261,800,886
262,805,891
263,808,894
264,807,896
265,810,899
266,810,901
267,812,907
268,815,909
269,817,913
270,820,916
271,821,916
272,824,917
273,824,915
274,823,913
275,820,913
276,819,911
277,816,911
278,816,915
279,814,916
280,815,918
281,816,921
282,818,922
283,819,920
284,821,922
285,822,919
286,819,920
287,819,920
288,817,920
289,815,919
290,816,919
291,815,917
292,816,920
293,816,921
294,819,922
295,820,923
296,821,925
297,820,922
298,820,924
299,817,922
300,815,920
301,814,916
302,812,915
303,812,917
304,812,916
305,813,920
306,812,921
307,815,921
308,814,923
309,813,921
310,813,919
311,810,917
312,809,915
313,809,912
314,808,914
315,806,913
316,806,915
317,807,916
318,806,916
319,808,918
320,807,917
321,808,915
322,807,911
323,806,909
324,802,908
325,799,905
326,799,905
327,797,902
328,794,901
329,794,902
330,796,903
331,796,903
332,797,903
333,793,899
334,790,894
335,789,892
336,785,885
337,786,884
338,787,879
339,784,880
340,784,883
341,785,881
342,784,882
343,782,883
344,785,879
345,783,878
346,785,875
347,783,871
348,782,868
349,782,862
350,780,862
351,782,861
352,782,861
353,783,863
354,788,860
355,788,860
356,791,859
357,792,858
358,792,856
359,793,855
360,795,853
361,796,853
362,800,853
363,801,854
364,803,853
365,806,857
366,810,857
367,814,859
368,820,859
369,823,855
370,825,857
371,830,858
372,831,859
373,834,856
374,837,859
375,837,858
376,840,861
377,844,863
378,847,863
379,854,868
380,855,869
381,856,869
382,855,866
383,859,865
384,857,867
385,857,867
386,858,869
387,858,869
388,860,867
389,860,875
390,860,874
391,862,877
392,862,877
393,861,876
394,859,874
395,855,875
396,852,871
397,849,872
398,847,872
399,844,873
400,843,874
401,843,877
402,843,877
403,841,881
404,844,881
405,840,878
406,839,876
407,836,873
408,836,873
409,831,872
410,832,872
411,830,873
412,830,872
413,830,875
414,832,875
415,832,880
416,832,880
417,830,879
418,830,878
419,832,877
420,829,875
421,828,872
422,829,871
423,826,873
424,828,874
425,830,882
426,831,886
427,833,887
428,834,886
429,834,885
430,833,884
431,833,884
432,835,881
433,836,880
434,833,879
435,834,884
436,837,884
437,837,886
438,838,888
439,839,886
440,841,886
441,841,887
442,840,885
443,842,886
444,839,885
445,839,885
446,838,887
447,838,888
448,838,887
449,840,889
450,839,890
451,843,891
452,842,892
453,843,891
454,844,892
455,845,891
456,842,889
457,842,889
458,843,888
459,842,889
460,842,890
461,843,891
462,845,892
463,846,895
464,849,896
465,847,893
466,847,894
467,845,894
468,846,891
469,843,889
470,844,890
471,843,890
472,845,890
473,845,891
474,846,894
475,846,896
476,849,897
477,850,896
478,848,895
479,848,894
480,848,891
481,845,891
482,844,889
483,844,890
484,844,891
485,845,892
486,847,894
487,849,894
488,852,893
489,852,895
490,852,895
491,851,891
492,850,892
493,851,894
494,848,894
495,850,893
496,849,894
497,851,896
498,852,895
499,852,898
500,853,896
501,853,897
502,853,895
503,851,890
504,851,890
505,851,889
506,848,889
507,850,889
508,851,893
509,850,893
510,852,894
511,851,896
512,855,895
513,855,891
514,855,893
515,855,891
516,852,890
517,852,890
518,851,891
519,849,889
520,849,892
521,851,893
522,851,895
523,852,896
524,852,897
525,855,894
526,856,895
527,854,894
528,852,891
529,852,889
530,849,890
531,852,889
532,852,891
533,852,894
534,852,893
535,855,893
536,856,893
537,856,895
538,854,890
539,855,892
540,851,891
541,852,890
542,850,889
543,849,888
544,848,887
545,847,890
546,852,891
547,853,892
548,855,892
549,857,893
550,855,892
551,853,892
552,852,892
553,851,890
554,851,888
555,850,890
556,852,889
557,851,891
558,855,891
559,853,893
560,857,895
561,854,893
562,852,892
563,856,893
564,853,891
565,853,889
566,852,889
567,853,889
568,852,888
569,853,888
570,855,890
571,856,891
572,856,894
573,857,894
574,855,894
575,855,889
576,856,888
577,852,886
578,853,884
579,853,884
580,852,888
581,852,886
582,853,888
583,852,892
584,854,892
585,855,891
586,856,891
587,852,887
588,852,887
589,850,886
590,848,888
591,853,885
592,851,887
593,854,887
594,854,887
595,855,889
596,856,891
597,857,891
598,857,889
599,857,888
600,853,886
601,854,886
602,853,885
603,853,888
604,855,888
605,854,891
606,857,893
607,856,893
608,858,891
609,857,891
610,859,890
611,860,887
612,859,887
613,857,885
614,857,884
615,858,885
616,859,886
617,860,889
618,858,890
619,859,891
620,860,894
621,863,892
622,865,895
623,865,892
624,866,890
625,866,889
626,865,890
627,866,890
628,868,890
629,868,892
630,867,893
631,866,893
632,866,894
633,864,893
634,863,894
635,860,895
636,860,891
637,861,890
638,860,890
639,861,891
640,865,893
641,869,899
642,870,901
643,873,899
644,874,901
645,873,900
646,869,897
647,867,896
648,867,891
649,861,888
650,855,884
651,853,884
652,850,883
653,851,882
654,852,884
655,851,888
656,854,888
657,855,887
658,854,886
659,855,882
660,852,881
661,852,878
662,851,878
663,851,878
664,851,875
665,849,870
666,849,870
667,849,873
668,856,880
669,864,893
670,879,916
671,896,938
672,911,954
673,925,960
674,932,952
675,929,931
676,922,894
677,902,844
678,876,786
679,854,747
680,843,725
681,855,731
682,886,764
683,933,804
684,983,849
685,1039,885
686,1093,918
687,1143,939
688,1192,955
689,1235,962
690,1270,964
691,1293,958
692,1304,946
693,1302,927
694,1283,905
695,1260,892
696,1227,884
697,1185,882
698,1137,881
699,1091,886
700,1046,892
701,999,900
702,955,902
703,908,898
704,869,890
705,838,877
706,815,868
707,802,861
708,795,862
709,797,868
710,800,876
711,804,884
712,809,892
713,814,899
714,820,906
715,820,908
716,826,912
717,831,914
718,830,913
719,828,912
720,828,910
721,825,908
722,822,907
723,821,910
724,823,913
725,825,916
726,828,917
727,828,918
728,829,918
729,828,918
730,828,915
731,826,915
732,825,914
733,823,915
734,823,915
735,821,916
736,822,913
737,824,919
738,825,918
739,827,921
740,828,922
741,828,921
742,828,921
743,825,918
744,823,917
745,822,915
746,817,914
747,818,914
748,818,914
749,819,915
750,821,919
751,823,919
752,824,920
753,824,922
754,823,917
755,819,915
756,815,914
757,813,912
758,813,910
759,811,910
760,809,911
761,808,911
762,811,912
763,809,912
764,812,911
765,808,909
766,809,905
767,808,906
768,806,904
769,803,901
770,802,900
771,800,899
772,798,897
773,798,899
774,800,895
775,800,896
776,802,893
777,800,892
778,800,888
779,797,888
780,797,884
781,792,884
782,792,881
783,791,878
784,790,878
785,791,879
786,792,874
787,794,874
788,797,873
789,795,872
790,795,868
791,796,869
792,795,867
793,795,865
794,796,863
795,796,865
796,802,865
797,804,863
798,810,864
799,812,866
800,817,868
801,821,866
802,822,865
803,823,864
804,826,864
805,827,862
806,830,861
807,833,862
808,836,864
809,839,868
810,846,870
811,849,874
812,852,875
813,855,874
814,859,872
815,860,872
816,861,869
817,864,869
818,862,870
819,863,871
820,864,873
821,865,876
822,870,876
823,869,876
824,871,876
825,870,873
826,870,875
827,866,872
828,865,872
829,861,872
830,858,869
831,858,870
832,854,872
833,850,871
834,849,872
835,850,872
836,850,871
837,847,868
838,844,869
839,842,864
840,838,861
841,838,861
842,830,863
843,827,860
844,832,864
845,829,864
846,830,864
847,831,867
848,830,866
849,831,863
850,829,864
851,829,864
852,825,863
853,824,862
854,824,863
855,823,862
856,823,867
857,824,867
858,825,868
859,829,868
860,828,870
861,829,872
862,828,871
863,830,870
864,827,869
865,827,869
866,828,869
867,828,869
868,830,872
869,833,873
870,835,875
871,838,876
872,840,877
873,841,878
874,839,877
875,839,876
876,838,878
877,840,873
878,837,875
879,836,873
880,838,875
881,839,875
882,842,877
883,843,877
884,844,880
885,844,881
886,843,878
887,843,876
888,842,877
889,843,876
890,842,876
891,841,874
892,840,876
893,844,878
894,847,880
895,848,885
896,850,886
897,849,886
898,850,886
899,848,884
900,846,879
901,844,878
902,842,876
903,844,877
904,845,877
905,848,879
906,848,880
907,849,882
908,850,884
909,851,883
910,850,882
911,850,879
912,850,881
913,848,877
914,847,877
915,848,877
916,848,878
917,848,878
918,850,879
919,852,882
920,853,882
921,853,885
922,853,881
923,854,881
924,851,879
925,850,876
926,849,877
927,850,877
928,851,879
929,851,884
930,852,884
931,853,887
932,856,886
933,856,885
934,856,884
935,855,882
936,854,879
937,851,883
938,852,880
939,850,880
940,850,881
941,853,883
942,853,886
943,852,886
944,855,885
945,856,887
946,855,883
947,857,885
948,854,884
949,853,882
950,850,881
951,849,880
952,849,882
953,852,881
954,851,884
955,854,883
956,856,887
957,856,886
958,856,885
959,854,885
960,856,882
961,852,884
962,851,881
963,851,883
964,851,883
965,854,885
966,855,887
967,856,889
968,859,888
969,860,889
970,860,885
971,859,884
972,856,884
973,854,883
974,855,882
975,853,881
976,851,883
977,851,884
978,856,886
979,856,885
980,859,889
981,860,888
982,859,886
983,858,888
984,858,885
985,857,885
986,856,884
987,855,884
988,855,883
989,854,883
990,857,886
991,856,885
992,857,891
993,857,888
994,860,887
995,859,888
996,857,885
997,857,885
998,853,884
999,855,885
1000,855,889
1001,856,891
1002,859,888
1003,860,891
1004,859,892
1005,861,890
1006,859,888
1007,859,886
1008,857,880
1009,856,881
1010,857,882
1011,857,882
1012,857,885
1013,856,887
1014,857,889
1015,858,890
1016,861,891
1017,862,887
1018,863,886
1019,861,883
1020,858,880
1021,856,880
1022,858,881
1023,858,882
1024,858,886
1025,860,887
1026,860,887
1027,863,890
1028,864,887
1029,862,884
1030,861,884
1031,862,884
1032,858,882
1033,859,883
1034,856,882
1035,856,884
1036,857,886
1037,859,888
1038,862,891
1039,865,892
1040,866,892
1041,867,891
1042,864,888
1043,863,883
1044,861,885
1045,860,884
1046,861,884
1047,861,883
1048,858,884
1049,862,888
1050,866,891
1051,873,893
1052,876,890
1053,878,889
1054,878,889
1055,877,887
1056,877,885
1057,874,884
1058,874,888
1059,874,890
1060,870,890
1061,868,892
1062,868,894
1063,870,894
1064,871,894
1065,870,894
1066,870,891
1067,871,892
1068,869,892
1069,869,895
1070,871,897
1071,874,898
1072,874,899
1073,877,899
1074,877,898
1075,877,897
1076,874,895
1077,871,893
1078,869,890
1079,864,886
1080,859,885
1081,857,882
1082,855,883
1083,856,883
1084,857,885
1085,858,889
1086,859,890
1087,862,891
1088,863,889
1089,860,887
1090,859,883
1091,858,880
1092,855,871
1093,852,868
1094,850,872
1095,857,886
1096,873,911
1097,892,938
1098,914,962
1099,932,973
1100,946,971
1101,949,952
1102,942,914
1103,921,854
1104,887,790
1105,856,739
1106,839,712
1107,841,716
1108,873,745
1109,921,790
1110,980,835
1111,1036,873
1112,1091,899
1113,1138,910
1114,1180,913
1115,1215,915
1116,1242,914
1117,1256,909
1118,1261,901
1119,1256,893
1120,1245,888
1121,1228,887
1122,1206,890
1123,1172,891
1124,1135,895
1125,1092,898
1126,1053,900
1127,1011,903
1128,965,901
1129,921,896
1130,885,889
1131,849,884
1132,831,879
1133,819,878
1134,815,881
1135,817,888
1136,819,892
1137,824,899
1138,829,901
1139,830,904
1140,831,908
1141,834,909
1142,837,914
1143,839,917
1144,838,919
1145,840,923
1146,841,924
1147,842,924
1148,840,924
1149,841,923
1150,840,922
1151,839,921
1152,837,922
1153,836,920
1154,836,922
1155,835,924
1156,836,924
1157,837,928
1158,837,930
1159,839,929
1160,841,927
1161,839,926
1162,836,926
1163,838,923
1164,838,920
1165,836,915
1166,836,918
1167,834,918
1168,835,923
1169,835,926
1170,833,930
1171,836,929
1172,835,928
1173,835,926
1174,836,924
1175,832,919
1176,833,920
1177,830,919
1178,829,918
1179,827,920
1180,828,924
1181,830,921
1182,829,922
1183,830,924
1184,831,922
1185,830,921
1186,825,920
1187,824,919
1188,823,915
1189,822,915
1190,821,914
1191,820,916
1192,820,917
1193,820,918
1194,821,915
1195,819,916
1196,819,915
1197,817,913
1198,816,910
1199,820,907
1200,814,903
1201,813,903
1202,812,901
1203,809,898
1204,809,901
1205,810,900
1206,810,899
1207,812,900
1208,811,895
1209,811,893
1210,809,889
1211,806,887
1212,803,882
1213,799,878
1214,800,880
1215,799,879
1216,799,877
1217,800,880
1218,801,876
1219,802,877
1220,802,876
1221,802,871
1222,799,865
1223,798,863
1224,799,859
1225,801,858
1226,801,857
1227,802,857
1228,806,857
1229,808,858
1230,813,856
1231,814,858
1232,817,857
1233,818,855
1234,822,854
1235,824,855
1236,827,853
1237,828,854
1238,831,855
1239,834,854
1240,837,857
1241,842,858
1242,847,861
1243,851,864
1244,855,863
1245,858,861
1246,861,860
1247,864,861
1248,864,861
1249,867,861
1250,867,860
1251,867,864
1252,871,866
1253,874,868
1254,877,872
1255,879,876
1256,880,875
1257,880,874
1258,880,870
1259,876,873
1260,873,871
1261,874,871
1262,874,873
1263,875,877
1264,874,879
1265,871,877
1266,873,880
1267,872,880
1268,871,881
1269,869,879
1270,867,877
1271,862,876
1272,860,875
1273,858,877
1274,857,876
1275,856,876
1276,853,880
1277,855,877
1278,854,878
1279,854,881
1280,855,880
1281,853,881
1282,854,877
1283,852,876
1284,849,876
1285,850,875
1286,849,875
1287,849,879
1288,848,882
1289,849,882
1290,852,883
1291,853,881
1292,854,883
1293,856,882
1294,855,881
1295,854,881
1296,854,879
1297,853,881
1298,854,880
1299,853,885
1300,855,885
1301,857,885
1302,858,886
1303,858,889
1304,862,887
1305,863,886
1306,861,885
1307,857,884
1308,855,887
1309,857,886
1310,856,884
1311,858,884
1312,862,886
1313,862,888
1314,863,888
1315,868,891
1316,866,890
1317,868,890
1318,865,886
1319,865,887
1320,867,884
1321,865,884
1322,862,881
1323,864,883
1324,866,886
1325,865,888
1326,865,891
1327,869,892
1328,871,889
1329,871,888
1330,872,887
1331,871,884
1332,872,883
1333,870,883
1334,868,884
1335,869,882
1336,872,887
1337,871,887
1338,873,890
1339,873,890
1340,876,887
1341,875,886
1342,875,884
1343,874,885
1344,872,883
1345,871,882
1346,870,881
1347,873,881
1348,873,884
1349,874,884
1350,875,887
1351,876,887
1352,875,885
1353,874,884
1354,875,883
1355,874,881
1356,876,884
1357,877,881
1358,875,882
1359,874,884
1360,873,885
1361,875,885
1362,878,888
1363,878,887
1364,880,885
1365,879,886
1366,881,884
1367,879,883
1368,878,883
1369,877,883
1370,878,882
1371,878,885
1372,877,888
1373,881,889
1374,883,890
1375,883,889
1376,885,889
1377,885,886
1378,886,884
1379,884,884
1380,883,882
1381,883,880
1382,882,882
1383,880,882
1384,880,881
1385,880,882
1386,886,882
1387,888,884
1388,887,884
1389,887,884
1390,887,884
1391,886,882
1392,886,882
1393,885,880
1394,883,879
1395,884,878
1396,885,880
1397,888,883
1398,890,883
1399,892,883
1400,890,885
1401,893,881
1402,893,882
1403,888,883
1404,889,879
1405,887,877
1406,888,876
1407,886,876
1408,888,878
1409,888,881
1410,890,881
1411,893,884
1412,892,881
1413,890,883
1414,891,880
1415,889,878
1416,888,878
1417,888,879
1418,890,876
1419,891,878
1420,891,878
1421,894,880
1422,895,879
1423,898,881
1424,898,878
1425,897,879
1426,895,878
1427,893,875
1428,893,873
1429,892,873
1430,891,873
1431,894,872
1432,894,876
1433,896,878
1434,894,880
1435,897,880
1436,900,879
1437,898,879
1438,897,876
1439,894,875
1440,893,876
1441,893,874
1442,893,873
1443,894,874
1444,896,876
1445,898,874
1446,899,876
1447,899,878
1448,898,878
1449,898,875
1450,901,874
1451,898,874
1452,898,872
1453,898,873
1454,896,871
1455,895,872
1456,900,874
1457,900,874
1458,905,875
1459,903,877
1460,906,876
1461,904,876
1462,905,874
1463,902,872
1464,899,871
1465,899,870
1466,902,871
1467,903,873
1468,903,871
1469,905,873
1470,907,874
1471,909,875
1472,913,874
1473,912,871
1474,913,871
1475,912,871
1476,911,871
1477,908,870
1478,908,871
1479,909,870
1480,911,873
1481,912,876
1482,918,875
1483,923,878
1484,926,878
1485,925,874
1486,927,873
1487,924,873
1488,922,872
1489,920,869
1490,917,871
1491,913,873
1492,915,874
1493,917,871
1494,917,875
1495,919,877
1496,919,880
1497,920,877
1498,917,876
1499,917,878
1500,919,877
1501,922,878
1502,927,879
1503,926,881
1504,928,879
1505,928,881
1506,928,880
1507,927,881
1508,923,877
1509,918,873
1510,916,870
1511,911,866
1512,909,864
1513,905,863
1514,905,862
1515,905,864
1516,907,869
1517,908,868
1518,910,870
1519,912,871
1520,913,870
1521,913,866
1522,911,861
1523,910,857
1524,907,852
1525,902,847
1526,904,849
1527,910,861
1528,921,884
1529,936,905
1530,954,928
1531,972,942
1532,987,942
1533,991,929
1534,991,905
1535,978,858
1536,959,802
1537,932,753
1538,912,719
1539,910,717
1540,930,741
1541,969,785
1542,1020,830
1543,1076,872
1544,1128,905
1545,1176,925
1546,1220,937
1547,1258,944
1548,1293,946
1549,1319,944
1550,1335,940
1551,1344,930
1552,1347,914
1553,1334,893
1554,1320,882
1555,1299,874
1556,1266,863
1557,1223,862
1558,1183,865
1559,1143,866
1560,1104,869
1561,1066,873
1562,1024,874
1563,986,873
1564,948,866
1565,914,855
1566,889,848
1567,872,846
1568,864,844
1569,862,850
1570,861,856
1571,864,862
1572,868,864
1573,871,868
1574,873,870
1575,876,874
1576,880,880
1577,883,888
1578,889,890
1579,890,893
1580,893,894
1581,892,891
1582,891,892
1583,890,891
1584,888,891
1585,885,892
1586,883,892
1587,883,892
1588,883,893
1589,885,895
1590,890,894
1591,891,899
1592,892,896
1593,891,896
1594,888,894
1595,886,893
1596,887,891
1597,885,890
1598,884,892
1599,884,890
1600,884,893
1601,885,891
1602,886,893
1603,886,894
1604,889,894
1605,888,894
1606,886,894
1607,886,892
1608,884,891
1609,883,889
1610,881,890
1611,882,891
1612,881,892
1613,884,893
1614,885,896
1615,884,897
1616,886,898
1617,886,894
1618,883,893
1619,882,891
1620,880,890
1621,878,885
1622,875,888
1623,875,888
1624,875,887
1625,878,889
1626,876,891
1627,875,892
1628,880,892
1629,879,889
1630,874,886
1631,874,885
1632,873,883
1633,871,882
1634,870,883
1635,870,882
1636,868,882
1637,869,883
1638,867,883
1639,869,883
1640,869,878
1641,868,878
1642,865,876
1643,863,870
1644,860,870
1645,859,866
1646,860,863
1647,859,865
1648,857,864
1649,859,865
1650,861,865
1651,860,865
1652,861,865
1653,859,862
1654,856,859
1655,858,856
1656,857,852
1657,855,850
1658,856,847
1659,856,854
1660,858,850
1661,858,851
1662,861,851
1663,864,855
1664,866,852
1665,866,848
1666,868,849
1667,867,846
1668,868,842
1669,869,844
1670,871,846
1671,875,848
1672,879,850
1673,883,848
1674,889,852
1675,892,851
1676,894,853
1677,896,851
1678,900,850
1679,905,850
1680,907,848
1681,908,847
1682,908,849
1683,913,853
1684,916,855
1685,917,855
1686,920,856
1687,926,857
1688,930,860
1689,931,858
1690,933,856
1691,933,857
1692,932,854
1693,929,854
1694,933,855
1695,931,857
1696,933,858
1697,934,856
1698,935,858
1699,934,857
1700,934,856
1701,934,856
1702,933,854
1703,928,851
1704,923,850
1705,922,850
1706,920,851
1707,917,852
1708,915,855
1709,914,853
1710,913,852
1711,913,854
1712,911,852
1713,908,852
1714,907,853
1715,901,849
1716,900,847
1717,895,847
1718,893,845
1719,893,849
1720,891,849
1721,892,852
1722,893,855
1723,895,855
1724,894,854
1725,893,853
1726,891,852
1727,889,852
1728,888,848
1729,886,848
1730,885,849
1731,886,849
1732,888,852
1733,889,854
1734,891,856
1735,894,856
1736,897,858
1737,894,858
1738,896,857
1739,894,858
1740,894,859
1741,893,857
1742,894,857
1743,895,860
1744,894,861
1745,897,864
1746,901,867
1747,900,869
1748,903,870
1749,900,869
1750,901,866
1751,899,862
1752,902,863
1753,900,863
1754,900,866
1755,899,869
1756,898,870
1757,901,874
1758,905,875
1759,905,874
1760,909,876
1761,906,873
1762,908,873
1763,908,870
1764,906,870
1765,905,869
1766,906,870
1767,906,873
1768,908,874
1769,910,878
1770,911,877
1771,912,880
1772,914,878
1773,911,878
1774,909,874
1775,910,874
1776,908,873
1777,909,872
1778,905,873
1779,905,875
1780,908,877
1781,909,875
1782,910,876
1783,911,879
1784,912,877
1785,914,878
1786,913,880
1787,910,876
1788,911,877
1789,908,876
1790,909,877
1791,907,877
1792,908,878
1793,908,878
1794,911,882
1795,913,882
1796,914,883
1797,913,882
1798,913,883
1799,911,881
1800,912,879
1801,910,879
1802,910,878
1803,909,877
1804,910,879
1805,909,882
1806,913,884
1807,912,887
1808,913,887
1809,914,886
1810,912,886
1811,910,883
1812,911,883
1813,909,882
1814,908,884
1815,911,884
1816,912,886
1817,913,887
1818,913,888
1819,915,891
1820,914,891
1821,914,887
1822,914,886
1823,909,884
1824,911,882
1825,911,881
1826,910,882
1827,911,883
1828,911,886
1829,913,886
1830,916,888
1831,913,889
1832,914,888
1833,912,888
1834,912,888
1835,913,886
1836,909,883
1837,910,886
1838,909,885
1839,908,887
1840,910,891
1841,911,894
1842,914,892
1843,915,894
1844,917,892
1845,915,892
1846,916,888
1847,913,886
1848,913,885
1849,911,886
1850,912,888
1851,912,888
1852,912,889
1853,913,893
1854,911,890
1855,913,895
1856,914,892
1857,913,893
1858,913,889
1859,914,888
1860,913,888
1861,911,889
1862,912,890
1863,914,889
1864,913,891
1865,912,888
1866,910,891
1867,911,891
1868,912,895
1869,914,893
1870,913,896
1871,913,890
1872,914,889
1873,910,891
1874,911,890
1875,910,889
1876,911,889
1877,912,891
1878,913,892
1879,914,895
1880,915,897
1881,914,897
1882,913,895
1883,913,895
1884,911,893
1885,911,893
1886,910,893
1887,907,892
1888,909,895
1889,910,895
1890,914,894
1891,914,899
1892,917,899
1893,914,897
1894,912,895
1895,913,895
1896,911,892
1897,911,892
1898,911,894
1899,910,895
1900,912,894
1901,911,898
1902,914,900
1903,916,900
1904,917,901
1905,916,899
1906,914,897
1907,914,897
1908,910,897
1909,911,896
1910,911,896
1911,912,900
1912,914,900
1913,918,900
1914,916,900
1915,918,902
1916,919,900
1917,917,896
1918,917,900
1919,914,895
1920,916,896
1921,916,899
1922,918,900
1923,920,900
1924,922,901
1925,925,903
1926,927,906
1927,928,910
1928,927,908
1929,926,908
1930,924,906
1931,921,905
1932,918,903
1933,918,903
1934,914,904
1935,915,907
1936,913,908
1937,915,911
1938,918,912
1939,923,917
1940,926,917
1941,928,915
1942,925,916
1943,926,914
1944,923,910
1945,919,910
1946,917,910
1947,915,910
1948,913,908
1949,911,909
1950,912,908
1951,911,906
1952,910,906
1953,907,904
1954,908,904
1955,906,901
1956,904,902
1957,904,899
1958,904,899
1959,905,900
1960,904,901
1961,908,900
1962,905,899
1963,907,897
1964,904,896
1965,906,902
1966,914,922
1967,929,947
1968,948,969
1969,964,986
1970,978,988
1971,987,974
1972,987,943
1973,972,885
1974,940,823
1975,906,768
1976,886,737
1977,887,737
1978,910,764
1979,952,805
1980,1002,846
1981,1054,880
1982,1102,907
1983,1147,921
1984,1188,928
1985,1224,930
1986,1252,932
1987,1272,932
1988,1281,925
1989,1279,914
1990,1269,907
1991,1255,905
1992,1231,906
1993,1200,909
1994,1163,911
1995,1122,917
1996,1084,922
1997,1046,925
1998,1006,925
1999,965,920
2000,929,909
2001,897,903
2002,875,898
2003,863,896
2004,856,900
2005,856,906
2006,859,915
2007,865,921
2008,871,926
2009,875,927
2010,881,934
2011,887,936
2012,887,938
2013,889,938
2014,887,939
2015,886,941
2016,881,938
2017,880,939
2018,880,937
2019,878,937
2020,878,942
2021,878,941
2022,882,943
2023,884,947
2024,886,949
2025,884,948
2026,885,947
2027,883,946
2028,883,943
2029,882,943
2030,882,943
2031,882,946
2032,880,946
2033,879,948
2034,881,951
2035,881,955
2036,883,952
2037,881,950
2038,881,950
2039,880,946
2040,877,947
2041,876,945
2042,874,945
2043,876,945
2044,872,947
2045,871,948
2046,876,951
2047,876,953
2048,877,954
2049,876,953
2050,873,948
2051,871,945
2052,870,944
2053,867,942
2054,867,943
2055,866,944
2056,867,947
2057,865,947
2058,867,947
2059,865,948
2060,864,945
2061,866,945
2062,862,942
2063,862,939
2064,860,936
2065,859,935
2066,856,933
2067,852,936
2068,856,935
2069,855,934
2070,855,934
2071,855,933
2072,855,932
2073,853,930
2074,851,927
2075,849,924
2076,847,921
2077,844,919
2078,839,920
2079,838,917
2080,839,914
2081,841,915
2082,841,914
2083,843,914
2084,842,910
2085,841,909
2086,839,907
2087,836,904
2088,833,901
2089,835,901
2090,832,900
2091,834,898
2092,835,896
2093,837,898
2094,837,897
2095,840,897
2096,845,896
2097,844,893
2098,846,893
2099,846,889
2100,847,889
2101,847,888
2102,851,886
2103,856,885
2104,859,887
2105,864,889
2106,866,890
2107,870,891
2108,876,893
2109,878,891
2110,880,891
2111,883,891
2112,884,890
2113,886,891
2114,890,894
2115,892,894
2116,894,897
2117,899,898
2118,903,901
2119,906,903
2120,908,902
2121,911,903
2122,913,902
2123,912,901
2124,911,902
2125,913,900
2126,911,903
2127,911,903
2128,910,907
2129,911,907
2130,906,911
2131,909,910
2132,910,912
2133,910,913
2134,907,909
2135,903,906
2136,900,905
2137,895,907
2138,894,907
2139,893,907
2140,892,911
2141,891,914
2142,892,913
2143,889,914
2144,888,915
2145,884,914
2146,885,913
2147,879,912
2148,880,909
2149,880,912
2150,876,910
2151,875,912
2152,875,915
2153,878,915
2154,878,915
2155,880,918
2156,881,915
2157,878,918
2158,876,916
2159,876,913
2160,872,911
2161,871,913
2162,872,911
2163,873,914
2164,871,917
2165,872,920
2166,876,920
2167,877,922
2168,879,919
2169,879,920
2170,879,919
2171,879,919
2172,878,918
2173,876,916
2174,877,918
2175,877,920
2176,875,922
2177,879,922
2178,880,922
2179,879,925
2180,883,929
2181,884,928
2182,882,926
2183,881,927
2184,881,925
2185,881,926
2186,877,925
2187,878,923
2188,879,928
2189,881,929
2190,884,930
2191,886,931
2192,885,933
2193,883,932
2194,883,932
2195,882,928
2196,883,928
2197,883,926
2198,881,927
2199,883,927
2200,884,925
2201,883,928
2202,886,933
2203,888,934
2204,890,933
2205,888,934
2206,888,934
2207,886,931
2208,887,932
2209,884,929
2210,884,927
2211,884,932
2212,882,931
2213,884,933
2214,887,934
2215,886,935
2216,889,939
2217,889,940
2218,887,936
2219,887,936
2220,887,935
2221,883,934
2222,882,934
2223,882,932
2224,882,935
2225,883,936
2226,884,938
2227,883,939
2228,886,939
2229,889,940
2230,888,938
2231,887,936
2232,885,934
2233,883,932
2234,882,933
2235,883,934
2236,883,937
2237,885,938
2238,884,941
2239,888,942
2240,889,941
2241,886,942
2242,884,940
2243,887,940
2244,884,939
2245,886,938
2246,885,935
2247,882,936
2248,882,939
2249,886,939
2250,885,939
2251,887,941
2252,890,944
2253,889,942
2254,887,941
2255,887,939
2256,887,936
2257,884,936
2258,883,936
2259,881,939
2260,882,937
2261,883,940
2262,885,944
2263,885,944
2264,885,944
2265,886,941
2266,886,941
2267,886,938
2268,885,937
2269,884,937
2270,881,938
2271,881,938
2272,881,940
2273,881,943
2274,881,942
2275,884,942
2276,889,942
2277,887,940
2278,886,940
2279,885,937
2280,881,936
2281,880,935
2282,879,935
2283,880,936
2284,882,939
2285,881,939
2286,882,944
2287,883,945
2288,882,942
2289,883,939
2290,883,937
2291,882,937
2292,883,935
2293,883,937
2294,882,938
2295,883,939
2296,884,941
2297,885,941
2298,887,943
2299,887,945
2300,889,942
2301,889,939
2302,887,942
2303,885,939
2304,884,937
2305,884,936
2306,880,937
2307,883,939
2308,884,940
2309,885,940
2310,888,940
2311,888,943
2312,889,944
2313,889,941
2314,885,939
2315,885,938
2316,883,937
2317,880,937
2318,880,939
2319,881,939
2320,879,939
2321,884,942
2322,883,942
2323,885,943
2324,886,943
2325,883,942
2326,884,940
2327,883,939
2328,885,938
2329,883,938
2330,880,936
2331,881,936
2332,880,940
2333,882,943
2334,884,942
2335,885,944
2336,887,941
2337,886,944
2338,884,940
2339,884,942
2340,882,939
2341,878,938
2342,877,939
2343,878,941
2344,881,942
2345,882,943
2346,882,941
2347,883,943
2348,886,942
2349,886,941
2350,883,940
2351,882,936
2352,881,938
2353,880,938
2354,879,937
2355,879,939
2356,880,941
2357,881,939
2358,882,943
2359,882,944
2360,882,945
2361,884,942
2362,883,945
2363,883,942
2364,884,939
2365,884,939
2366,883,937
2367,883,939
2368,885,940
2369,885,940
2370,885,943
2371,886,946
2372,886,943
2373,887,944
2374,887,943
2375,891,943
2376,890,942
2377,889,939
2378,893,938
2379,892,937
2380,893,939
2381,893,942
2382,894,944
2383,893,946
2384,894,947
2385,891,947
2386,890,946
2387,886,946
2388,887,942
2389,884,939
2390,883,941
2391,882,943
2392,885,946
2393,889,949
2394,892,956
2395,896,957
2396,899,960
2397,899,956
2398,899,952
2399,896,951
2400,892,949
2401,887,947
2402,884,944
2403,880,943
2404,876,941
2405,876,941
2406,876,944
2407,875,945
2408,878,945
2409,878,944
2410,878,940
2411,875,940
2412,874,939
2413,873,937
2414,872,936
2415,871,934
2416,871,934
2417,870,933
2418,869,930
2419,871,934
2420,878,948
2421,889,970
2422,905,992
2423,925,1008
2424,937,1019
2425,948,1014
2426,952,992
2427,946,957
2428,928,904
2429,901,847
2430,879,805
2431,866,786
2432,876,798
2433,904,835
2434,950,880
2435,1003,927
2436,1058,965
2437,1113,992
2438,1162,1009
2439,1208,1017
2440,1248,1023
2441,1284,1022
2442,1303,1017
2443,1313,1007
2444,1310,987
2445,1294,968
2446,1270,954
2447,1230,940
2448,1182,934
2449,1131,937
2450,1083,939
2451,1037,947
2452,994,952
2453,946,953
2454,901,944
2455,866,936
2456,840,928
2457,823,923
2458,815,925
2459,813,928
2460,816,935
2461,820,940
2462,823,946
2463,826,954
2464,831,962
2465,836,962
2466,841,970
2467,844,971
2468,844,970
2469,844,967
2470,843,965
2471,841,966
2472,842,962
2473,840,963
2474,839,963
2475,840,963
2476,839,967
2477,838,967
2478,843,972
2479,842,971
2480,845,971
2481,844,971
2482,843,970
2483,842,967
2484,841,967
2485,838,965
2486,840,967
2487,836,967
2488,839,969
2489,838,970
2490,838,974
2491,838,973
2492,842,976
2493,840,973
2494,840,972
2495,839,970
2496,834,969
2497,836,970
2498,835,970
2499,834,970
2500,835,975
2501,835,973
2502,834,974
2503,834,973
2504,838,974
2505,837,973
2506,835,972
2507,833,968
2508,831,969
2509,829,967
2510,828,968
2511,823,965
2512,824,966
2513,824,967
2514,829,966
2515,830,966
2516,829,965
2517,829,965
2518,826,965
2519,824,962
2520,821,959
2521,819,957
2522,818,954
2523,815,953
2524,816,955
2525,816,955
2526,818,956
2527,818,956
2528,818,955
2529,818,954
2530,814,950
2531,813,945
2532,810,941
2533,808,938
2534,806,935
2535,805,935
2536,804,934
2537,806,935
2538,805,937
2539,807,938
2540,809,935
2541,807,934
2542,805,931
2543,804,931
2544,806,926
2545,803,924
2546,804,922
2547,804,920
2548,806,918
2549,806,920
2550,811,922
2551,814,924
2552,816,925
2553,819,923
2554,821,921
2555,823,920
2556,824,918
2557,825,917
2558,826,917
2559,829,917
2560,832,921
2561,835,922
2562,840,925
2563,845,928
2564,849,928
2565,852,927
2566,855,926
2567,857,925
2568,858,924
2569,859,923
2570,862,923
2571,863,927
2572,865,928
2573,869,930
2574,868,930
2575,870,932
2576,874,933
2577,875,929
2578,876,928
2579,875,928
2580,874,924
2581,875,928
2582,875,925
2583,874,928
2584,873,927
2585,874,931
2586,874,931
2587,875,930
2588,873,932
2589,870,928
2590,869,928
2591,867,926
2592,864,923
2593,859,922
2594,857,923
2595,854,923
2596,851,923
2597,850,927
2598,849,928
2599,848,927
2600,848,927
2601,845,924
2602,844,923
2603,842,920
2604,841,918
2605,837,917
2606,837,916
2607,833,916
2608,830,918
2609,833,918
2610,834,921
2611,833,923
2612,836,919
2613,835,922
2614,834,922
2615,831,918
2616,828,920
2617,829,918
2618,828,921
2619,828,920
2620,829,923
2621,829,923
2622,834,926
2623,837,926
2624,837,928
2625,836,926
2626,836,925
2627,838,923
2628,836,921
2629,835,921
2630,833,923
2631,835,925
2632,837,929
2633,837,927
2634,840,927
2635,841,931
2636,844,932
2637,845,930
2638,842,933
2639,839,932
2640,839,929
2641,842,930
2642,841,930
2643,843,933
2644,845,934
2645,844,937
2646,846,936
2647,848,937
2648,849,937
2649,849,937
2650,849,938
2651,847,936
2652,848,936
2653,847,934
2654,845,935
2655,846,937
2656,848,938
2657,848,937
2658,851,936
2659,852,938
2660,853,938
2661,851,938
2662,851,939
2663,849,938
2664,850,939
2665,848,937
2666,847,935
2667,848,935
2668,849,936
2669,850,938
2670,853,940
2671,851,938
2672,852,940
2673,853,940
2674,853,941
2675,854,939
2676,851,939
2677,849,936
2678,849,933
2679,848,934
2680,850,937
2681,849,937
2682,850,938
2683,851,942
2684,856,944
2685,856,946
2686,855,946
2687,853,943
2688,851,941
2689,848,937
2690,849,936
2691,847,939
2692,849,941
2693,852,944
2694,852,942
2695,853,945
2696,856,947
2697,857,942
2698,857,942
2699,855,942
2700,852,937
2701,848,935
2702,848,936
2703,848,937
2704,851,940
2705,853,943
2706,855,945
2707,857,945
2708,858,946
2709,860,944
2710,857,944
2711,854,941
2712,855,941
2713,854,941
2714,851,942
2715,851,943
2716,852,943
2717,852,945
2718,853,947
2719,856,947
2720,856,948
2721,855,945
2722,855,941
2723,853,941
2724,851,940
2725,850,939
2726,850,941
2727,847,943
2728,850,945
2729,851,946
2730,855,947
2731,858,948
2732,859,948
2733,859,948
2734,857,948
2735,857,947
2736,854,944
2737,853,945
2738,854,942
2739,854,941
2740,853,945
2741,854,945
2742,857,945
2743,857,944
2744,856,944
2745,857,945
2746,858,948
2747,859,947
2748,857,948
2749,855,943
2750,854,943
2751,851,945
2752,852,943
2753,854,944
2754,857,945
2755,855,948
2756,859,950
2757,859,946
2758,860,952
2759,859,948
2760,856,946
2761,855,947
2762,852,946
2763,853,943
2764,853,945
2765,853,947
2766,855,950
2767,855,951
2768,858,952
2769,859,950
2770,858,948
2771,857,947
2772,857,944
2773,854,943
2774,853,944
2775,852,946
2776,853,949
2777,855,951
2778,858,953
2779,858,954
2780,860,953
2781,858,951
2782,858,952
2783,859,950
2784,858,948
2785,855,947
2786,854,946
2787,852,948
2788,851,947
2789,855,953
2790,855,955
2791,859,953
2792,863,952
2793,861,950
2794,860,949
2795,859,948
2796,858,946
2797,858,947
2798,856,944
2799,856,946
2800,857,947
2801,858,946
2802,859,949
2803,860,950
2804,864,950
2805,865,949
2806,864,947
2807,863,946
2808,860,943
2809,859,942
2810,857,943
2811,856,946
2812,857,947
2813,859,948
2814,862,948
2815,865,949
2816,871,952
2817,872,950
2818,873,949
2819,871,947
2820,870,947
2821,869,946
2822,865,946
2823,862,946
2824,860,949
2825,862,948
2826,864,953
2827,866,954
2828,868,957
2829,865,957
2830,864,957
2831,868,958
2832,869,955
2833,867,955
2834,869,953
2835,869,952
2836,868,950
2837,866,953
2838,865,951
2839,861,951
2840,858,951
2841,855,946
2842,853,943
2843,850,938
2844,850,938
2845,849,940
2846,848,936
2847,846,940
2848,845,940
2849,847,941
2850,849,941
2851,851,943
2852,852,939
2853,849,939
2854,849,936
2855,847,930
2856,844,927
2857,842,927
2858,846,936
2859,854,954
2860,868,978
2861,888,1002
2862,908,1020
2863,924,1031
2864,935,1031
2865,940,1018
2866,937,986
2867,923,940
2868,896,884
2869,865,829
2870,833,785
2871,816,762
2872,816,768
2873,842,792
2874,880,828
2875,930,863
2876,981,897
2877,1024,920
2878,1062,937
2879,1102,945
2880,1137,951
2881,1170,953
2882,1195,955
2883,1217,953
2884,1227,949
2885,1226,942
2886,1218,939
2887,1206,940
2888,1186,945
2889,1155,947
2890,1118,948
2891,1081,950
2892,1041,952
2893,1004,952
2894,965,950
2895,921,944
2896,878,938
2897,847,933
2898,826,928
2899,810,926
2900,804,930
2901,803,935
2902,805,940
2903,809,946
2904,814,951
2905,818,955
2906,819,957
2907,821,960
2908,822,962
2909,823,968
2910,826,971
2911,829,972
2912,830,970
2913,832,971
2914,829,969
2915,827,967
2916,823,965
2917,823,965
2918,822,964
2919,824,965
2920,824,965
2921,824,968
2922,826,968
2923,827,970
2924,828,972
2925,827,974
2926,828,971
2927,826,969
2928,824,968
2929,823,965
2930,822,965
2931,822,964
2932,820,968
2933,819,970
2934,824,972
2935,820,973
2936,822,975
2937,826,975
2938,824,971
2939,823,968
2940,819,966
2941,820,965
2942,816,967
2943,812,967
2944,817,968
2945,815,970
2946,815,970
2947,815,968
2948,818,968
2949,817,967
2950,818,969
2951,819,966
2952,815,965
2953,814,963
2954,810,961
2955,810,962
2956,809,965
2957,808,966
2958,810,966
2959,808,967
2960,810,969
2961,808,964
2962,808,960
2963,806,957
2964,804,956
2965,802,955
2966,799,953
2967,798,953
2968,797,953
2969,799,956
2970,796,954
2971,794,953
2972,795,947
2973,796,948
2974,795,945
2975,793,942
2976,791,938
2977,790,936
2978,787,933
2979,786,930
2980,786,932
2981,784,931
2982,785,930
2983,786,929
2984,785,927
2985,784,924
2986,784,921
2987,784,916
2988,782,915
2989,779,910
2990,780,911
2991,779,908
2992,779,908
2993,781,908
2994,783,906
2995,786,905
2996,787,904
2997,790,904
2998,789,900
2999,790,896
3000,791,895
3001,791,893
3002,793,894
3003,796,894
3004,799,896
3005,802,894
3006,805,896
3007,808,896
3008,815,898
3009,818,896
3010,820,896
3011,822,893
3012,824,891
3013,827,893
3014,829,892
3015,832,893
3016,836,892
3017,838,898
3018,843,899
3019,843,900
3020,847,903
3021,848,902
3022,852,902
3023,853,903
3024,853,900
3025,852,900
3026,853,902
3027,854,903
3028,854,905
3029,854,908
3030,856,910
3031,856,913
3032,860,913
3033,856,910
3034,855,910
3035,851,908
3036,848,909
3037,846,907
3038,843,904
3039,841,907
3040,839,907
3041,839,911
3042,838,912
3043,837,914
3044,836,915
3045,834,914
3046,830,911
3047,829,911
3048,826,907
3049,824,909
3050,819,908
3051,820,909
3052,820,910
3053,819,913
3054,820,912
3055,821,913
3056,823,914
3057,821,914
3058,819,915
3059,819,910
3060,817,907
3061,816,907
3062,815,910
3063,815,908
3064,814,911
3065,815,913
3066,819,910
3067,819,912
3068,821,913
3069,820,913
3070,820,913
3071,820,909
3072,822,910
3073,819,909
3074,819,910
3075,819,912
3076,820,913
3077,822,915
3078,823,917
3079,826,916
3080,828,918
3081,828,921
3082,827,920
3083,825,916
3084,823,918
3085,825,917
3086,822,915
3087,826,916
3088,826,917
3089,824,919
3090,827,918
3091,826,918
3092,829,921
3093,830,920
3094,829,921
3095,828,920
3096,828,917
3097,827,916
3098,827,914
3099,826,915
3100,825,918
3101,828,917
3102,829,920
3103,831,922
3104,832,923
3105,832,922
3106,831,923
3107,830,919
3108,828,916
3109,827,914
3110,825,914
3111,825,915
3112,824,917
3113,828,919
3114,830,918
3115,831,920
3116,833,922
3117,834,921
3118,830,920
3119,829,918
3120,830,917
3121,824,916
3122,827,913
3123,827,914
3124,826,915
3125,827,918
3126,830,920
3127,831,922
3128,834,921
3129,832,921
3130,833,917
3131,831,918
3132,830,916
3133,827,915
3134,827,916
3135,828,914
3136,825,916
3137,830,918
3138,832,916
3139,832,921
3140,832,920
3141,831,921
3142,828,917
3143,829,917
3144,829,915
3145,828,912
3146,828,913
3147,828,915
3148,829,916
3149,827,917
3150,828,918
3151,830,918
3152,831,918
3153,833,919
3154,832,918
3155,830,915
3156,829,916
3157,828,913
3158,828,912
3159,828,914
3160,828,916
3161,828,915
3162,830,915
3163,831,918
3164,832,917
3165,832,915
3166,832,913
3167,830,915
3168,829,913
3169,829,912
3170,827,912
3171,825,911
3172,828,913
3173,829,913
3174,827,916
3175,829,916
3176,831,916
3177,832,916
3178,831,914
3179,828,913
3180,829,914
3181,826,912
3182,824,911
3183,824,911
3184,830,910
3185,829,912
3186,829,915
3187,833,916
3188,832,919
3189,833,918
3190,830,918
3191,829,915
3192,827,918
3193,825,913
3194,825,912
3195,825,910
3196,823,912
3197,827,915
3198,828,918
3199,829,917
3200,833,920
3201,834,919
3202,830,915
3203,830,914
3204,830,914
3205,828,912
3206,827,911
3207,828,911
3208,826,914
3209,830,917
3210,831,917
3211,832,919
3212,834,919
3213,833,917
3214,833,917
3215,832,915
3216,830,913
3217,829,913
3218,827,913
3219,827,914
3220,830,913
3221,830,916
3222,830,918
3223,833,920
3224,835,918
3225,836,916
3226,835,913
3227,834,913
3228,834,912
3229,831,911
3230,832,911
3231,831,912
3232,834,914
3233,832,913
3234,832,915
3235,834,915
3236,837,918
3237,839,917
3238,840,919
3239,839,917
3240,840,917
3241,841,917
3242,841,916
3243,842,915
3244,842,918
3245,843,916
3246,843,917
3247,843,918
3248,844,919
3249,844,917
3250,842,917
3251,838,916
3252,836,916
3253,836,916
3254,833,918
3255,832,917
3256,835,917
3257,837,922
3258,841,925
3259,844,927
3260,850,927
3261,851,930
3262,850,926
3263,846,926
3264,846,920
3265,842,920
3266,836,914
3267,831,913
3268,828,913
3269,827,914
3270,826,910
3271,824,912
3272,827,913
3273,827,911
3274,825,911
3275,828,910
3276,825,910
3277,826,905
3278,825,905
3279,822,901
3280,821,899
3281,819,898
3282,819,902
3283,823,912
3284,834,933
3285,848,954
3286,870,974
3287,886,986
3288,897,986
3289,906,974
3290,903,942
3291,893,893
3292,866,835
3293,838,787
3294,821,762
3295,822,769
3296,848,799
3297,891,846
3298,946,891
3299,1003,931
3300,1057,958
3301,1111,979
3302,1156,986
3303,1195,992
3304,1231,994
3305,1257,992
3306,1274,984
3307,1276,966
3308,1266,947
3309,1247,928
3310,1215,917
3311,1174,907
3312,1126,905
3313,1076,908
3314,1027,914
3315,980,922
3316,936,925
3317,892,921
3318,854,916
3319,823,904
3320,799,896
3321,783,895
3322,775,894
3323,774,902
3324,773,904
3325,774,911
3326,779,918
3327,783,921
3328,787,925
3329,791,930
3330,795,935
3331,799,937
3332,802,941
3333,804,941
3334,803,940
3335,801,940
3336,798,939
3337,794,939
3338,794,939
3339,793,938
3340,795,942
3341,796,943
3342,797,943
3343,796,944
3344,798,948
3345,800,945
3346,801,946
3347,799,945
3348,796,943
3349,797,943
3350,792,943
3351,791,942
3352,790,944
3353,794,944
3354,794,949
3355,796,949
3356,798,951
3357,797,950
3358,796,949
3359,796,946
3360,793,943
3361,791,941
3362,790,940
3363,789,942
3364,789,943
3365,789,946
3366,790,945
3367,794,946
3368,795,949
3369,794,946
3370,792,945
3371,791,941
3372,788,939
3373,788,937
3374,787,935
3375,784,936
3376,783,936
3377,783,938
3378,785,938
3379,783,941
3380,786,941
3381,786,938
3382,784,935
3383,783,932
3384,781,931
3385,777,930
3386,774,927
3387,775,925
3388,771,928
3389,775,928
3390,773,927
3391,773,927
3392,774,929
3393,774,926
3394,775,924
3395,771,919
3396,769,918
3397,769,917
3398,764,913
3399,764,911
3400,764,911
3401,763,912
3402,763,913
3403,765,912
3404,765,909
3405,763,907
3406,765,906
3407,764,902
3408,762,899
3409,762,897
3410,761,896
3411,761,895
3412,762,897
3413,764,896
3414,765,896
3415,768,899
3416,770,899
3417,774,896
3418,779,893
3419,778,893
3420,783,891
3421,782,891
3422,786,891
3423,790,892
3424,790,892
3425,794,895
3426,800,898
3427,801,901
3428,808,903
3429,810,903
3430,813,902
3431,814,901
3432,817,900
3433,820,899
3434,821,900
3435,823,898
3436,822,900
3437,827,901
3438,829,906
3439,832,906
3440,837,906
3441,838,907
3442,836,904
3443,837,903
3444,837,902
3445,836,901
3446,834,899
3447,834,900
3448,831,902
3449,832,903
3450,830,903
3451,830,902
3452,831,902
3453,829,899
3454,826,898
3455,826,895
3456,821,896
3457,819,893
3458,815,894
3459,812,895
3460,812,897
3461,811,899
3462,809,900
3463,810,899
3464,809,898
3465,809,898
3466,805,898
3467,806,895
3468,805,892
3469,800,893
3470,799,893
3471,799,892
3472,799,894
3473,798,896
3474,799,898
3475,798,898
3476,800,900
3477,801,900
3478,800,901
3479,801,901
3480,799,897
3481,799,897
3482,797,895
3483,796,895
3484,797,895
3485,798,901
3486,800,900
3487,801,903
3488,803,903
3489,803,903
3490,802,903
3491,804,902
3492,804,902
3493,805,899
3494,805,898
3495,806,902
3496,807,906
3497,809,908
3498,811,911
3499,813,910
3500,813,910
3501,812,911
3502,810,908
3503,815,907
3504,812,907
3505,811,905
3506,812,906
3507,812,909
3508,811,911
3509,814,916
3510,816,915
3511,817,917
3512,818,918
3513,819,915
3514,819,913
3515,819,910
3516,818,911
3517,818,910
3518,814,911
3519,814,914
3520,814,912
3521,815,915
3522,818,917
3523,818,916
3524,820,919
3525,820,919
3526,820,915
3527,818,915
3528,816,915
3529,818,912
3530,816,914
3531,815,913
3532,816,913
3533,816,915
3534,818,920
3535,819,922
3536,822,924
3537,824,921
3538,824,922
3539,823,921
3540,821,918
3541,819,916
3542,818,915
3543,817,916
3544,818,918
3545,819,920
3546,821,922
3547,822,924
3548,824,926
3549,826,924
3550,825,923
3551,825,924
3552,823,921
3553,822,918
3554,822,919
3555,821,917
3556,819,916
3557,821,918
3558,823,920
3559,822,923
3560,824,924
3561,823,926
3562,824,925
3563,821,922
3564,817,922
3565,819,919
3566,817,915
3567,818,914
3568,822,918
3569,822,918
3570,820,923
3571,821,922
3572,825,923
3573,828,922
3574,828,922
3575,828,918
3576,825,916
3577,824,917
3578,824,915
3579,823,916
3580,823,919
3581,824,920
3582,827,920
3583,828,919
3584,829,923
3585,829,918
3586,830,921
3587,828,918
3588,826,915
3589,824,916
3590,825,915
3591,824,915
3592,824,917
3593,826,919
3594,827,920
3595,830,920
3596,833,922
3597,830,920
3598,830,921
3599,830,919
3600,827,919
3601,827,914
3602,828,917
3603,826,919
3604,827,920
3605,827,921
3606,829,922
3607,831,926
3608,831,925
3609,833,925
3610,831,921
3611,831,920
3612,830,917
3613,828,914
3614,829,917
3615,827,915
3616,827,917
3617,829,920
3618,830,920
3619,831,923
3620,834,925
3621,834,923
3622,834,922
3623,832,919
3624,830,916
3625,830,916
3626,828,916
3627,831,918
3628,829,918
3629,831,921
3630,832,925
3631,834,927
3632,834,927
3633,834,924
3634,833,925
3635,834,922
3636,832,920
3637,830,919
3638,831,920
3639,832,918
3640,832,921
3641,833,922
3642,833,924
3643,833,921
3644,834,924
3645,836,922
3646,837,924
3647,835,922
3648,835,923
3649,834,922
3650,832,923
3651,834,921
3652,832,920
3653,833,922
3654,832,921
3655,835,923
3656,838,924
3657,837,921
3658,839,920
3659,838,919
3660,838,922
3661,839,918
3662,838,918
3663,838,919
3664,839,920
3665,839,918
3666,840,920
3667,839,923
3668,841,923
3669,840,922
3670,841,924
3671,846,923
3672,844,923
3673,847,920
3674,845,920
3675,847,921
3676,849,922
3677,849,921
3678,852,923
3679,853,924
3680,851,928
3681,852,926
3682,847,924
3683,847,925
3684,846,925
3685,845,926
3686,844,926
3687,843,927
3688,844,929
3689,845,929
3690,847,931
3691,852,934
3692,854,935
3693,857,936
3694,858,935
3695,857,934
3696,851,931
3697,850,930
3698,847,926
3699,844,926
3700,842,926
3701,838,925
3702,836,922
3703,836,923
3704,837,927
3705,838,929
3706,832,926
3707,832,921
3708,831,921
3709,832,919
3710,830,918
3711,833,917
3712,831,919
3713,834,918
3714,837,918
3715,837,917
3716,835,914
3717,835,909
3718,832,911
3719,834,918
3720,840,935
3721,852,957
3722,868,981
3723,887,998
3724,904,1005
3725,917,1003
3726,924,981
3727,917,937
3728,896,881
3729,862,816
3730,830,767
3731,810,746
3732,817,756
3733,841,790
3734,883,828
3735,938,867
3736,993,901
3737,1042,924
3738,1090,938
3739,1130,941
3740,1166,942
3741,1194,943
3742,1211,939
3743,1221,932
3744,1220,923
3745,1213,917
3746,1196,919
3747,1174,922
3748,1145,927
3749,1105,931
3750,1065,938
3751,1027,939
3752,986,940
3753,944,937
3754,894,927
3755,859,919
3756,827,911
3757,804,905
3758,791,905
3759,786,909
3760,789,919
3761,797,928
3762,805,935
3763,811,939
3764,816,944
3765,820,944
3766,820,946
3767,821,948
3768,821,948
3769,816,949
3770,816,948
3771,814,949
3772,812,949
3773,814,953
3774,819,956
3775,820,953
3776,822,954
3777,823,956
3778,822,956
3779,821,955
3780,818,955
3781,816,953
3782,817,957
3783,816,954
3784,817,954
3785,818,954
3786,818,956
3787,818,959
3788,820,960
3789,823,960
3790,819,960
3791,820,958
3792,818,955
3793,816,953
3794,814,954
3795,813,951
3796,813,954
3797,813,957
3798,815,956
3799,813,959
3800,814,959
3801,815,958
3802,815,957
3803,813,955
3804,812,954
3805,810,952
3806,808,952
3807,809,949
3808,807,949
3809,807,949
3810,808,949
3811,809,951
3812,809,949
3813,810,949
3814,807,946
3815,805,943
3816,799,940
3817,795,942
3818,797,937
3819,797,939
3820,797,939
3821,795,938
3822,795,938
3823,796,938
3824,794,937
3825,796,933
3826,792,932
3827,793,930
3828,791,924
3829,790,922
3830,786,921
3831,785,920
3832,785,919
3833,785,919
3834,784,918
3835,786,916
3836,786,917
3837,784,912
3838,782,909
3839,779,906
3840,781,904
3841,780,902
3842,776,899
3843,777,899
3844,778,900
3845,779,900
3846,780,899
3847,783,897
3848,784,895
3849,787,893
3850,788,891
3851,787,889
3852,788,887
3853,789,887
3854,788,883
3855,789,884
3856,791,883
3857,797,881
3858,798,884
3859,804,884
3860,808,883
3861,814,884
3862,817,885
3863,817,883
3864,820,883
3865,821,881
3866,823,884
3867,828,882
3868,832,883
3869,835,889
3870,837,890
3871,841,894
3872,847,894
3873,849,896
3874,848,894
3875,852,895
3876,851,896
3877,852,894
3878,850,895
3879,849,894
3880,850,895
3881,852,897
3882,852,900
3883,853,901
3884,854,903
3885,855,905
3886,852,903
3887,849,900
3888,847,900
3889,845,898
3890,843,899
3891,840,900
3892,837,904
3893,835,902
3894,835,904
3895,834,904
3896,835,909
3897,835,907
3898,831,904
3899,827,903
3900,825,900
3901,825,899
3902,822,899
3903,820,902
3904,818,902
3905,820,902
3906,822,905
3907,822,904
3908,822,906
3909,823,905
3910,825,903
3911,822,901
3912,821,899
3913,821,900
3914,817,900
3915,819,899
3916,818,903
3917,817,905
3918,818,906
3919,821,906
3920,824,909
3921,825,907
3922,824,907
3923,826,904
3924,823,904
3925,824,903
3926,825,902
3927,825,903
3928,822,904
3929,824,907
3930,829,910
3931,829,912
3932,831,912
3933,832,911
3934,832,910
3935,832,909
3936,830,908
3937,829,910
3938,825,909
3939,829,909
3940,828,908
3941,830,914
3942,831,914
3943,832,915
3944,835,917
3945,835,915
3946,835,913
3947,836,914
3948,833,912
3949,835,912
3950,833,910
3951,831,911
3952,834,912
3953,834,913
3954,836,913
3955,837,917
3956,840,917
3957,841,918
3958,841,917
3959,839,917
3960,838,915
3961,839,914
3962,838,909
3963,837,912
3964,836,913
3965,836,914
3966,837,916
3967,839,915
3968,839,916
3969,840,917
3970,840,915
3971,840,915
3972,839,913
3973,838,914
3974,839,913
3975,837,912
3976,838,913
3977,835,915
3978,836,915
3979,840,916
3980,841,919
3981,839,919
3982,838,917
3983,840,915
3984,838,913
3985,836,912
3986,834,910
3987,836,911
3988,835,914
3989,835,915
3990,838,918
3991,839,917
3992,838,919
3993,844,916
3994,842,917
3995,842,915
3996,841,914
3997,840,912
3998,838,914
3999,839,912
4000,839,910
4001,839,915
4002,839,917
4003,841,917
4004,843,918
4005,845,916
4006,842,915
4007,841,913
4008,841,913
4009,842,912
4010,838,913
4011,837,912
4012,838,911
4013,839,913
4014,838,913
4015,840,919
4016,841,918
4017,843,918
4018,843,915
4019,845,912
4020,844,914
4021,842,912
4022,842,913
4023,842,913
4024,839,914
4025,841,916
4026,843,917
4027,846,920
4028,846,919
4029,848,921
4030,846,917
4031,846,917
4032,844,919
4033,843,916
4034,841,915
4035,842,915
4036,840,915
4037,846,919
4038,845,919
4039,844,920
4040,845,921
4041,848,921
4042,848,922
4043,846,917
4044,844,919
4045,841,916
4046,842,916
4047,842,916
4048,842,917
4049,842,918
4050,844,920
4051,845,922
4052,845,923
4053,845,922
4054,848,922
4055,847,921
4056,847,917
4057,846,917
4058,845,915
4059,845,916
4060,844,917
4061,843,920
4062,845,920
4063,847,922
4064,848,923
4065,850,923
4066,849,920
4067,848,919
4068,849,918
4069,846,916
4070,847,916
4071,846,917
4072,843,918
4073,844,917
4074,846,920
4075,846,922
4076,848,922
4077,851,921
4078,851,919
4079,852,918
4080,853,917
4081,852,916
4082,849,915
4083,847,916
4084,848,915
4085,850,919
4086,852,924
4087,853,926
4088,856,927
4089,858,923
4090,861,923
4091,863,923
4092,862,922
4093,861,923
4094,858,919
4095,857,918
4096,856,921
4097,854,924
4098,854,923
4099,853,927
4100,854,927
4101,855,928
4102,858,928
4103,856,927
4104,856,929
4105,859,930
4106,859,933
4107,863,934
4108,863,932
4109,864,933
4110,864,933
4111,862,931
4112,863,932
4113,862,929
4114,858,926
4115,854,922
4116,850,922
4117,844,920
4118,846,920
4119,841,920
4120,840,922
4121,842,919
4122,845,922
4123,846,924
4124,846,925
4125,847,923
4126,848,921
4127,848,918
4128,844,912
4129,842,908
4130,838,904
4131,839,906
4132,842,917
4133,851,935
4134,866,959
4135,883,984
4136,902,1000
4137,918,1000
4138,929,991
4139,929,965
4140,918,915
4141,898,860
4142,871,804
4143,847,773
4144,839,770
4145,857,800
4146,896,848
4147,953,900
4148,1016,949
4149,1078,981
4150,1140,1003
4151,1195,1011
4152,1244,1014
4153,1278,1009
4154,1300,998
4155,1303,977
4156,1295,958
4157,1276,945
4158,1247,934
4159,1209,928
4160,1164,925
4161,1116,929
4162,1066,932
4163,1018,937
4164,974,937
4165,925,932
4166,881,923
4167,845,914
4168,816,906
4169,798,907
4170,791,908
4171,795,915
4172,797,923
4173,801,928
4174,808,933
4175,809,938
4176,816,940
4177,816,943
4178,820,947
4179,817,951
4180,819,951
4181,821,954
4182,822,953
4183,821,956
4184,823,959
4185,822,958
4186,824,957
4187,824,955
4188,820,958
4189,821,958
4190,819,955
4191,818,955
4192,818,957
4193,817,960
4194,818,959
4195,822,962
4196,823,960
4197,824,963
4198,823,961
4199,821,964
4200,821,960
4201,820,961
4202,818,960
4203,816,961
4204,818,962
4205,818,961
4206,820,963
4207,820,963
4208,820,965
4209,821,965
4210,821,965
4211,818,963
4212,818,961
4213,816,960
4214,815,958
4215,815,958
4216,815,960
4217,813,960
4218,814,962
4219,814,962
4220,814,960
4221,818,962
4222,814,962
4223,815,960
4224,812,960
4225,810,957
4226,810,955
4227,807,954
4228,806,953
4229,805,955
4230,805,956
4231,805,955
4232,806,956
4233,806,955
4234,804,953
4235,803,952
4236,799,947
4237,798,945
4238,795,944
4239,795,941
4240,796,944
4241,796,941
4242,797,942
4243,798,942
4244,800,943
4245,798,938
4246,799,936
4247,797,933
4248,792,927
4249,791,925
4250,790,923
4251,788,924
4252,789,924
4253,790,925
4254,793,925
4255,792,927
4256,795,926
4257,792,927
4258,794,924
4259,793,921
4260,790,919
4261,789,916
4262,789,915
4263,787,913
4264,789,915
4265,793,917
4266,794,919
4267,798,917
4268,801,918
4269,805,917
4270,804,917
4271,806,917
4272,808,914
4273,810,910
4274,811,912
4275,813,913
4276,816,915
4277,818,914
4278,822,920
4279,827,921
4280,833,922
4281,836,921
4282,836,921
4283,841,920
4284,843,919
4285,843,916
4286,845,914
4287,847,919
4288,847,919
4289,852,924
4290,854,923
4291,857,927
4292,860,927
4293,864,927
4294,867,927
4295,867,923
4296,865,920
4297,865,921
4298,864,919
4299,861,918
4300,863,920
4301,861,922
4302,861,923
4303,861,922
4304,860,925
4305,861,923
4306,857,921
4307,855,920
4308,852,917
4309,851,916
4310,842,912
4311,838,912
4312,837,913
4313,837,911
4314,838,916
4315,836,914
4316,838,913
4317,836,912
4318,835,911
4319,833,910
4320,831,910
4321,828,909
4322,825,908
4323,822,907
4324,822,909
4325,823,910
4326,823,910
4327,824,913
4328,825,916
4329,826,918
4330,826,915
4331,825,915
4332,823,914
4333,822,911
4334,822,912
4335,821,912
4336,821,913
4337,820,915
4338,822,916
4339,823,918
4340,823,918
4341,828,923
4342,830,922
4343,830,920
4344,829,922
4345,829,922
4346,828,921
4347,829,921
4348,829,921
4349,828,922
4350,832,921
4351,834,924
4352,836,922
4353,837,924
4354,837,925
4355,839,926
4356,838,921
4357,839,924
4358,839,924
4359,837,924
4360,838,926
4361,836,926
4362,841,927
4363,839,928
4364,838,929
4365,842,931
4366,842,930
4367,844,929
4368,845,928
4369,843,928
4370,841,923
4371,840,926
4372,839,927
4373,844,930
4374,845,931
4375,846,933
4376,846,934
4377,848,934
4378,844,935
4379,846,930
4380,844,929
4381,843,927
4382,847,929
4383,845,930
4384,845,929
4385,846,930
4386,847,933
4387,847,934
4388,848,938
4389,848,938
4390,852,933
4391,851,933
4392,849,932
4393,848,929
4394,846,928
4395,847,931
4396,847,933
4397,850,935
4398,850,937
4399,851,937
4400,852,940
4401,852,939
4402,853,937
4403,850,934
4404,848,934
4405,848,933
4406,848,934
4407,847,933
4408,845,933
4409,848,934
4410,848,936
4411,852,937
4412,853,939
4413,854,936
4414,852,937
4415,854,933
4416,852,932
4417,850,933
4418,851,932
4419,850,931
4420,850,932
4421,850,933
4422,853,933
4423,853,936
4424,854,938
4425,856,936
4426,854,933
4427,853,932
4428,853,930
4429,853,930
4430,849,930
4431,852,931
4432,851,932
4433,854,935
4434,855,935
4435,855,937
4436,855,934
4437,859,933
4438,856,935
4439,857,934
4440,856,934
4441,857,935
4442,856,932
4443,855,934
4444,854,935
4445,854,937
4446,856,939
4447,857,941
4448,858,941
4449,859,939
4450,858,939
4451,857,936
4452,857,935
4453,851,934
4454,854,933
4455,853,935
4456,853,936
4457,853,935
4458,856,939
4459,857,937
4460,858,942
4461,861,940
4462,859,938
4463,859,938
4464,859,935
4465,860,933
4466,857,933
4467,856,932
4468,858,933
4469,857,936
4470,860,939
4471,860,942
4472,862,944
4473,864,944
4474,864,942
4475,863,939
4476,862,936
4477,860,936
4478,859,935
4479,858,936
4480,859,936
4481,859,939
4482,859,940
4483,859,943
4484,862,942
4485,863,940
4486,863,940
4487,863,938
4488,860,939
4489,860,939
4490,860,938
4491,862,937
4492,861,938
4493,862,941
4494,860,943
4495,863,941
4496,864,942
4497,864,942
4498,864,940
4499,865,937
4500,863,937
4501,863,937
4502,862,937
4503,861,937
4504,863,939
4505,862,942
4506,862,942
4507,865,944
4508,867,945
4509,867,944
4510,868,942
4511,868,940
4512,867,938
4513,867,937
4514,866,934
4515,868,938
4516,865,935
4517,866,938
4518,867,936
4519,868,938
4520,870,940
4521,875,942
4522,876,942
4523,876,938
4524,875,939
4525,875,935
4526,877,937
4527,876,936
4528,877,936
4529,875,939
4530,875,939
4531,875,940
4532,877,942
4533,877,943
4534,875,943
4535,875,945
4536,874,943
4537,875,943
4538,873,942
4539,871,943
4540,878,943
4541,880,948
4542,882,950
4543,883,948
4544,881,949
4545,881,952
4546,879,949
4547,876,948
4548,873,942
4549,869,939
4550,867,933
4551,864,933
4552,862,933
4553,861,935
4554,861,937
4555,861,938
4556,863,940
4557,865,939
4558,865,940
4559,865,937
4560,864,935
4561,862,933
4562,860,935
4563,858,933
4564,861,934
4565,860,931
4566,860,930
4567,857,929
4568,861,936
4569,867,951
4570,880,969
4571,894,990
4572,912,1010
4573,927,1016
4574,938,1013
4575,944,1001
4576,942,975
4577,930,930
4578,907,871
4579,878,818
4580,850,779
4581,836,766
4582,848,778
4583,876,809
4584,917,847
4585,965,882
4586,1016,913
4587,1064,936
4588,1110,950
4589,1153,955
4590,1191,961
4591,1222,963
4592,1244,960
4593,1254,950
4594,1252,945
4595,1241,938
4596,1221,940
4597,1193,943
4598,1155,946
4599,1116,950
4600,1076,954
4601,1037,955
4602,996,955
4603,951,950
4604,911,943
4605,877,932
4606,846,926
4607,829,924
4608,820,923
4609,817,928
4610,819,935
4611,827,944
4612,832,947
4613,838,953
4614,843,960
4615,844,963
4616,849,967
4617,853,968
4618,850,969
4619,851,968
4620,849,967
4621,849,966
4622,846,964
4623,846,965
4624,846,967
4625,845,966
4626,845,971
4627,848,971
4628,849,972
4629,852,971
4630,851,972
4631,847,970
4632,849,971
4633,845,972
4634,843,971
4635,842,969
4636,841,972
4637,841,972
4638,845,974
4639,846,975
4640,848,975
4641,849,976
4642,850,974
4643,850,976
4644,849,972
4645,845,970
4646,845,971
4647,843,970
4648,842,969
4649,842,968
4650,844,975
4651,841,975
4652,843,975
4653,844,975
4654,841,972
4655,842,972
4656,841,971
4657,839,970
4658,836,966
4659,832,967
4660,833,965
4661,835,965
4662,836,968
4663,836,966
4664,838,969
4665,837,969
4666,835,966
4667,834,965
4668,831,965
4669,830,960
4670,828,960
4671,826,959
4672,827,958
4673,826,961
4674,825,959
4675,825,958
4676,826,957
4677,826,956
4678,825,956
4679,823,952
4680,822,946
4681,820,945
4682,817,939
4683,813,939
4684,814,938
4685,811,939
4686,812,937
4687,815,938
4688,813,936
4689,814,933
4690,811,929
4691,811,928
4692,809,924
4693,806,921
4694,809,917
4695,807,916
4696,808,915
4697,807,917
4698,809,916
4699,808,915
4700,811,914
4701,815,912
4702,816,908
4703,815,909
4704,816,905
4705,817,902
4706,816,901
4707,817,900
4708,819,900
4709,824,902
4710,823,900
4711,829,902
4712,834,903
4713,837,903
4714,841,903
4715,840,901
4716,847,901
4717,849,901
4718,848,902
4719,851,902
4720,856,903
4721,858,905
4722,864,906
4723,868,905
4724,873,910
4725,876,910
4726,880,907
4727,882,910
4728,882,908
4729,882,911
4730,881,909
4731,882,909
4732,883,911
4733,885,914
4734,884,917
4735,883,915
4736,885,917
4737,886,920
4738,883,920
4739,882,920
4740,878,917
4741,874,917
4742,871,915
4743,867,916
4744,866,917
4745,865,917
4746,861,919
4747,862,920
4748,860,922
4749,862,923
4750,857,922
4751,856,918
4752,852,919
4753,851,912
4754,848,912
4755,846,913
4756,844,914
4757,844,917
4758,845,921
4759,847,921
4760,848,924
4761,848,922
4762,847,920
4763,849,918
4764,847,917
4765,846,918
4766,845,916
4767,846,917
4768,845,919
4769,844,921
4770,846,920
4771,852,922
4772,854,923
4773,857,921
4774,856,925
4775,855,922
4776,853,921
4777,852,919
4778,849,919
4779,851,920
4780,852,922
4781,853,923
4782,855,922
4783,857,928
4784,858,927
4785,862,927
4786,862,927
4787,861,924
4788,861,925
4789,860,924
4790,858,923
4791,857,922
4792,857,924
4793,858,925
4794,857,926
4795,860,929
4796,861,931
4797,865,933
4798,865,931
4799,864,931
4800,864,929
4801,863,927
4802,860,924
4803,860,924
4804,860,927
4805,860,925
4806,858,928
4807,861,929
4808,862,931
4809,864,932
4810,866,933
4811,864,930
4812,864,931
4813,862,930
4814,862,928
4815,860,926
4816,861,929
4817,860,929
4818,863,930
4819,864,929
4820,865,933
4821,864,932
4822,867,931
4823,865,930
4824,865,927
4825,865,927
4826,863,925
4827,863,928
4828,861,929
4829,862,929
4830,863,930
4831,864,930
4832,866,933
4833,866,931
4834,865,934
4835,865,932
4836,864,932
4837,864,930
4838,863,928
4839,862,928
4840,861,929
4841,862,929
4842,865,933
4843,866,934
4844,868,937
4845,870,937
4846,869,933
4847,866,931
4848,865,932
4849,863,927
4850,863,926
4851,864,928
4852,863,931
4853,862,931
4854,864,933
4855,865,934
4856,868,937
4857,868,935
4858,869,934
4859,869,933
4860,865,930
4861,863,930
4862,862,928
4863,864,928
4864,862,929
4865,864,931
4866,866,933
4867,867,935
4868,867,937
4869,866,937
4870,869,935
4871,868,935
4872,868,932
4873,864,928
4874,864,925
4875,864,927
4876,861,928
4877,862,931
4878,863,931
4879,864,932
4880,865,933
4881,869,935
4882,869,932
4883,867,933
4884,866,930
4885,865,929
4886,862,928
4887,862,927
4888,863,928
4889,865,933
4890,863,933
4891,866,931
4892,867,930
4893,868,932
4894,868,931
4895,868,931
4896,864,929
4897,864,927
4898,863,926
4899,866,927
4900,863,928
4901,865,931
4902,865,931
4903,866,930
4904,867,932
4905,871,929
4906,869,931
4907,869,929
4908,867,928
4909,867,926
4910,865,925
4911,866,927
4912,863,929
4913,864,928
4914,866,930
4915,866,932
4916,868,934
4917,869,933
4918,868,931
4919,870,931
4920,870,932
4921,867,930
4922,866,929
4923,865,930
4924,864,928
4925,864,931
4926,867,933
4927,867,933
4928,870,932
4929,873,934
4930,872,935
4931,872,933
4932,873,932
4933,867,931
4934,866,931
4935,868,929
4936,869,930
4937,869,931
4938,870,934
4939,868,933
4940,872,932
4941,875,932
4942,876,932
4943,874,932
4944,874,929
4945,874,929
4946,876,931
4947,878,930
4948,875,932
4949,877,932
4950,882,934
4951,883,935
4952,884,937
4953,884,937
4954,884,935
4955,882,932
4956,878,933
4957,875,932
4958,873,927
4959,874,930
4960,874,931
4961,872,932
4962,873,936
4963,878,941
4964,883,943
4965,887,945
4966,887,943
4967,889,942
4968,885,938
4969,882,935
4970,877,931
4971,876,933
4972,872,930
4973,872,933
4974,868,931
4975,867,931
4976,868,934
4977,867,931
4978,868,932
4979,867,931
4980,866,926
4981,866,923
4982,863,924
4983,865,926
4984,864,925
4985,865,925
4986,865,928
4987,866,925
4988,867,920
4989,866,918
4990,866,916
4991,866,918
4992,872,933
4993,882,952
4994,894,973
4995,909,990
4996,926,1000
4997,936,996
4998,944,983
4999,940,945
5000,926,895
5001,904,839
5002,880,795
5003,867,777
5004,869,787
5005,897,820
5006,938,862
5007,987,908
5008,1041,948
5009,1095,980
5010,1144,999
5011,1191,1010
5012,1232,1015
5013,1267,1015
5014,1292,1013
5015,1305,999
5016,1308,984
5017,1298,963
5018,1281,946
5019,1257,937
5020,1225,930
5021,1187,928
5022,1146,929
5023,1103,934
5024,1060,943
5025,1020,946
5026,974,943
5027,928,935
5028,884,926
5029,847,913
5030,821,907
5031,809,908
5032,805,914
5033,810,920
5034,816,930
5035,823,940
5036,827,946
5037,836,950
5038,839,953
5039,840,953
5040,841,952
5041,838,954
5042,834,952
5043,835,955
5044,833,953
5045,835,956
5046,834,956
5047,837,959
5048,836,961
5049,837,962
5050,837,963
5051,837,963
5052,837,959
5053,835,959
5054,833,957
5055,832,956
5056,833,960
5057,830,958
5058,830,962
5059,831,962
5060,832,962
5061,833,960
5062,835,960
5063,831,959
5064,830,956
5065,828,955
5066,827,954
5067,827,954
5068,826,954
5069,825,956
5070,827,957
5071,826,960
5072,828,959
5073,828,959
5074,827,958
5075,827,957
5076,828,951
5077,824,951
5078,822,949
5079,820,947
5080,820,951
5081,819,952
5082,819,952
5083,823,954
5084,820,954
5085,821,953
5086,822,949
5087,821,949
5088,819,944
5089,818,942
5090,815,942
5091,813,942
5092,813,941
5093,812,940
5094,811,944
5095,811,941
5096,809,942
5097,810,942
5098,810,939
5099,809,933
5100,807,931
5101,805,928
5102,801,925
5103,801,924
5104,799,924
5105,799,923
5106,799,923
5107,799,924
5108,799,923
5109,799,922
5110,803,920
5111,803,918
5112,801,915
5113,800,911
5114,800,909
5115,798,908
5116,798,909
5117,802,911
5118,803,911
5119,805,912
5120,808,912
5121,813,912
5122,814,914
5123,813,913
5124,817,911
5125,817,910
5126,820,909
5127,823,909
5128,824,911
5129,828,912
5130,833,915
5131,836,917
5132,842,917
5133,846,918
5134,847,919
5135,850,919
5136,849,916
5137,852,915
5138,856,915
5139,857,917
5140,861,917
5141,863,920
5142,864,921
5143,870,924
5144,871,924
5145,875,925
5146,876,924
5147,877,922
5148,877,921
5149,874,917
5150,873,918
5151,870,915
5152,871,920
5153,869,919
5154,870,923
5155,871,923
5156,870,919
5157,871,921
5158,866,919
5159,866,916
5160,863,914
5161,860,913
5162,857,909
5163,853,912
5164,851,911
5165,849,914
5166,848,915
5167,846,914
5168,846,917
5169,843,914
5170,844,912
5171,839,913
5172,839,910
5173,839,909
5174,835,905
5175,837,907
5176,834,908
5177,832,906
5178,831,913
5179,834,912
5180,834,913
5181,835,915
5182,836,912
5183,835,912
5184,836,910
5185,834,910
5186,835,911
5187,837,912
5188,837,913
5189,836,913
5190,838,916
5191,837,915
5192,836,918
5193,840,918
5194,844,916
5195,844,918
5196,844,919
5197,844,920
5198,843,920
5199,843,918
5200,844,920
5201,845,922
5202,846,923
5203,847,922
5204,847,925
5205,850,926
5206,851,924
5207,847,925
5208,851,925
5209,848,923
5210,847,922
5211,851,921
5212,850,920
5213,849,923
5214,848,922
5215,850,924
5216,851,928
5217,854,929
5218,853,929
5219,855,930
5220,852,927
5221,854,924
5222,853,922
5223,854,924
5224,852,924
5225,853,926
5226,854,927
5227,855,929
5228,856,928
5229,857,931
5230,858,928
5231,858,925
5232,856,923
5233,856,924
5234,855,923
5235,854,923
5236,854,922
5237,856,925
5238,855,930
5239,858,931
5240,860,932
5241,859,933
5242,861,932
5243,859,930
5244,858,928
5245,857,924
5246,856,924
5247,856,925
5248,856,924
5249,857,928
5250,857,931
5251,859,929
5252,859,932
5253,859,932
5254,859,931
5255,860,928
5256,862,928
5257,858,928
5258,859,923
5259,858,925
5260,859,925
5261,860,926
5262,860,930
5263,860,930
5264,862,932
5265,865,930
5266,862,932
5267,861,930
5268,861,927
5269,859,924
5270,864,923
5271,861,924
5272,858,923
5273,859,925
5274,860,929
5275,861,929
5276,861,930
5277,866,935
5278,864,932
5279,864,929
5280,863,926
5281,862,925
5282,862,923
5283,859,925
5284,859,926
5285,859,929
5286,860,930
5287,860,929
5288,862,927
5289,865,927
5290,863,929
5291,862,926
5292,862,927
5293,861,925
5294,862,926
5295,861,924
5296,859,927
5297,862,926
5298,864,930
5299,864,933
5300,866,931
5301,863,931
5302,864,929
5303,864,928
5304,866,925
5305,864,925
5306,863,921
5307,862,921
5308,862,924
5309,863,927
5310,863,929
5311,865,930
5312,864,931
5313,868,931
5314,866,930
5315,865,926
5316,864,923
5317,864,922
5318,862,923
5319,864,925
5320,862,928
5321,863,929
5322,864,930
5323,863,928
5324,868,930
5325,867,929
5326,866,931
5327,866,932
5328,867,927
5329,864,927
5330,866,924
5331,864,926
5332,863,926
5333,862,927
5334,862,928
5335,864,928
5336,866,931
5337,867,932
5338,868,930
5339,866,930
5340,865,927
5341,864,924
5342,865,923
5343,864,922
5344,862,923
5345,864,923
5346,864,927
5347,864,927
5348,865,930
5349,869,930
5350,867,930
5351,863,930
5352,867,927
5353,866,924
5354,866,924
5355,864,926
5356,862,924
5357,863,924
5358,864,928
5359,866,926
5360,866,926
5361,870,926
5362,870,930
5363,866,927
5364,867,925
5365,865,926
5366,865,923
5367,865,922
5368,866,924
5369,864,925
5370,867,926
5371,869,927
5372,872,930
5373,872,930
5374,871,929
5375,871,926
5376,872,926
5377,871,923
5378,871,921
5379,871,924
5380,872,921
5381,870,922
5382,871,923
5383,872,924
5384,873,927
5385,876,928
5386,877,927
5387,878,927
5388,881,924
5389,881,920
5390,880,920
5391,881,920
5392,880,921
5393,879,923
5394,876,925
5395,878,928
5396,876,928
5397,878,930
5398,878,928
5399,876,928
5400,878,925
5401,876,927
5402,875,923
5403,878,926
5404,881,932
5405,883,932
5406,887,937
5407,887,937
5408,885,937
5409,884,935
5410,883,932
5411,880,930
5412,876,923
5413,872,922
5414,868,917
5415,868,918
5416,863,919
5417,863,919
5418,866,921
5419,866,925
5420,867,925
5421,868,925
5422,868,923
5423,868,921
5424,867,918
5425,867,918
5426,863,914
5427,862,909
5428,863,908
5429,860,907
5430,859,907
5431,863,918
5432,869,933
5433,883,957
5434,901,979
5435,920,995
5436,933,1003
5437,943,1000
5438,949,986
5439,947,954
5440,932,909
5441,907,851
5442,878,797
5443,851,757
5444,841,746
5445,853,762
5446,882,795
5447,926,836
5448,977,877
5449,1024,907
5450,1068,931
5451,1108,941
5452,1146,945
5453,1183,947
5454,1215,948
5455,1239,947
5456,1255,942
5457,1261,932
5458,1258,926
5459,1248,928
5460,1226,931
5461,1194,930
5462,1154,933
5463,1111,936
5464,1063,935
5465,1011,935
5466,961,927
5467,907,920
5468,867,913
5469,839,905
5470,821,905
5471,816,908
5472,817,914
5473,822,920
5474,826,924
5475,832,929
5476,837,933
5477,840,936
5478,842,939
5479,844,943
5480,844,943
5481,847,944
5482,845,943
5483,844,941
5484,842,940
5485,839,939
5486,837,939
5487,837,939
5488,837,939
5489,838,940
5490,841,943
5491,841,944
5492,841,946
5493,844,946
5494,840,943
5495,842,945
5496,841,943
5497,840,941
5498,837,940
5499,839,940
5500,839,942
5501,837,943
5502,835,947
5503,838,948
5504,838,946
5505,842,951
5506,841,943
5507,841,945
5508,839,943
5509,838,940
5510,834,941
5511,832,939
5512,834,942
5513,834,941
5514,836,945
5515,835,946
5516,837,945
5517,838,946
5518,837,943
5519,836,943
5520,834,941
5521,830,940
5522,829,939
5523,830,938
5524,830,940
5525,829,941
5526,831,942
5527,829,942
5528,832,941
5529,832,942
5530,832,941
5531,827,938
5532,827,935
5533,827,934
5534,827,931
5535,825,929
5536,820,930
5537,823,930
5538,819,930
5539,820,929
5540,819,930
5541,821,929
5542,823,924
5543,818,924
5544,817,919
5545,815,919
5546,816,915
5547,813,913
5548,810,912
5549,811,912
5550,812,912
5551,813,910
5552,812,910
5553,811,910
5554,816,907
5555,814,905
5556,813,899
5557,809,896
5558,808,893
5559,808,892
5560,806,890
5561,808,891
5562,812,893
5563,814,893
5564,817,894
5565,819,895
5566,820,892
5567,821,891
5568,819,889
5569,821,888
5570,819,884
5571,821,881
5572,825,883
5573,827,884
5574,831,887
5575,835,888
5576,839,891
5577,842,891
5578,845,890
5579,850,891
5580,849,888
5581,849,888
5582,851,884
5583,855,885
5584,856,886
5585,860,889
5586,864,894
5587,867,896
5588,871,898
5589,872,901
5590,872,899
5591,874,899
5592,876,897
5593,879,898
5594,879,895
5595,877,895
5596,878,897
5597,880,898
5598,880,901
5599,882,902
5600,883,905
5601,886,904
5602,884,905
5603,882,903
5604,882,899
5605,881,896
5606,879,894
5607,872,895
5608,870,895
5609,867,897
5610,867,897
5611,865,901
5612,864,902
5613,863,901
5614,861,899
5615,859,897
5616,854,895
5617,849,892
5618,845,891
5619,843,892
5620,844,894
5621,842,895
5622,842,897
5623,844,898
5624,844,901
5625,845,900
5626,842,899
5627,841,896
5628,842,894
5629,840,894
5630,840,894
5631,839,892
5632,837,894
5633,837,896
5634,838,899
5635,839,902
5636,840,900
5637,841,899
5638,843,898
5639,843,898
5640,840,895
5641,842,896
5642,842,896
5643,842,899
5644,843,901
5645,843,904
5646,844,903
5647,845,906
5648,846,908
5649,849,904
5650,849,902
5651,849,904
5652,849,903
5653,849,899
5654,847,903
5655,848,903
5656,846,902
5657,848,906
5658,850,906
5659,850,907
5660,851,907
5661,853,907
5662,854,907
5663,852,906
5664,854,906
5665,852,904
5666,851,906
5667,850,905
5668,852,906
5669,850,906
5670,852,907
5671,856,907
5672,853,910
5673,855,910
5674,856,913
5675,855,908
5676,853,909
5677,851,907
5678,852,905
5679,853,907
5680,853,904
5681,854,905
5682,855,906
5683,856,907
5684,857,909
5685,859,909
5686,859,909
5687,858,908
5688,857,908
5689,855,908
5690,855,903
5691,854,904
5692,853,904
5693,854,906
5694,856,907
5695,858,908
5696,858,909
5697,859,908
5698,860,910
5699,860,907
5700,860,907
5701,857,904
5702,858,903
5703,858,904
5704,857,904
5705,858,906
5706,858,907
5707,858,909
5708,860,909
5709,864,909
5710,862,910
5711,862,908
5712,862,906
5713,858,905
5714,859,903
5715,856,903
5716,858,901
5717,857,904
5718,857,908
5719,861,910
5720,858,912
5721,862,912
5722,861,909
5723,860,908
5724,860,904
5725,859,904
5726,857,902
5727,858,902
5728,858,906
5729,857,907
5730,858,907
5731,859,907
5732,862,909
5733,863,909
5734,863,907
5735,862,908
5736,863,906
5737,861,904
5738,860,906
5739,857,904
5740,861,906
5741,860,904
5742,862,906
5743,863,907
5744,863,910
5745,865,909
5746,867,912
5747,865,908
5748,864,908
5749,862,905
5750,862,905
5751,860,905
5752,861,905
5753,862,905
5754,861,907
5755,862,906
5756,861,908
5757,863,910
5758,864,908
5759,866,909
5760,866,907
5761,863,903
5762,861,904
5763,862,905
5764,861,904
5765,861,902
5766,861,905
5767,860,906
5768,862,907
5769,865,908
5770,865,909
5771,865,909
5772,863,907
5773,863,907
5774,863,903
5775,860,902
5776,860,901
5777,857,901
5778,859,905
5779,862,910
5780,861,909
5781,863,907
5782,863,908
5783,863,907
5784,863,902
5785,861,903
5786,861,901
5787,860,901
5788,857,902
5789,858,906
5790,858,908
5791,862,908
5792,864,909
5793,864,909
5794,863,908
5795,863,908
5796,861,906
5797,861,905
5798,860,903
5799,861,901
5800,860,901
5801,860,903
5802,861,905
5803,864,904
5804,863,909
5805,863,907
5806,863,908
5807,865,906
5808,866,911
5809,868,911
5810,867,910
5811,870,907
5812,871,908
5813,871,909
5814,873,910
5815,875,911
5816,877,914
5817,877,915
5818,874,914
5819,872,915
5820,870,910
5821,868,909
5822,865,909
5823,865,909
5824,865,908
5825,866,910
5826,865,915
5827,867,918
5828,869,919
5829,875,922
5830,877,922
5831,880,924
5832,881,921
5833,877,916
5834,874,915
5835,869,910
5836,865,908
5837,859,907
5838,858,910
5839,858,909
5840,856,911
5841,856,911
5842,858,909
5843,859,910
5844,856,907
5845,856,905
5846,856,903
5847,856,903
5848,853,900
5849,853,900
5850,855,898
5851,851,896
5852,854,900
5853,858,911
5854,867,926
5855,879,947
5856,894,966
5857,910,981
5858,925,982
5859,934,972
5860,935,947
5861,926,903
5862,906,849
5863,880,801
5864,859,769
5865,854,762
5866,867,782
5867,897,820
5868,943,862
5869,994,904
5870,1044,934
5871,1095,955
5872,1141,973
5873,1184,979
5874,1224,984
5875,1257,989
5876,1283,990
5877,1299,983
5878,1303,969
5879,1295,948
5880,1276,930
5881,1249,915
5882,1212,903
5883,1166,898
5884,1119,904
5885,1074,910
5886,1031,920
5887,989,923
5888,949,925
5889,910,916
5890,875,906
5891,846,895
5892,823,889
5893,811,889
5894,804,891
5895,801,899
5896,804,906
5897,808,912
5898,813,919
5899,818,922
5900,822,926
5901,825,931
5902,825,932
5903,830,932
5904,829,931
5905,827,934
5906,826,931
5907,824,931
5908,823,932
5909,823,933
5910,823,932
5911,821,934
5912,824,935
5913,825,937
5914,827,937
5915,825,939
5916,823,937
5917,822,935
5918,820,936
5919,819,932
5920,817,933
5921,819,934
5922,822,936
5923,821,939
5924,820,940
5925,824,942
5926,822,939
5927,822,937
5928,821,935
5929,821,933
5930,818,931
5931,817,932
5932,818,931
5933,816,934
5934,817,934
5935,818,936
5936,816,936
5937,817,937
5938,818,938
5939,816,935
5940,816,932
5941,814,933
5942,813,930
5943,810,927
5944,810,930
5945,809,929
5946,810,930
5947,810,930
5948,810,931
5949,810,933
5950,808,931
5951,807,928
5952,808,924
5953,805,922
5954,803,920
5955,802,919
5956,802,923
5957,803,921
5958,801,921
5959,801,920
5960,801,919
5961,799,918
5962,797,919
5963,799,916
5964,797,912
5965,794,910
5966,792,908
5967,791,907
5968,792,905
5969,791,906
5970,789,907
5971,792,902
5972,791,902
5973,789,901
5974,790,898
5975,790,897
5976,789,891
5977,787,890
5978,785,890
5979,786,888
5980,787,885
5981,787,886
5982,789,887
5983,793,891
5984,794,890
5985,797,893
5986,800,889
5987,802,887
5988,806,888
5989,807,885
5990,806,885
5991,808,884
5992,814,884
5993,816,886
5994,816,890
5995,822,891
5996,829,891
5997,834,892
5998,837,892
5999,838,893
6000,844,892
6001,843,890
6002,846,891
6003,849,891
6004,853,894
6005,855,896
6006,856,897
6007,858,899
6008,862,900
6009,865,902
6010,864,901
6011,868,901
6012,867,897
6013,869,901
6014,869,896
6015,865,897
6016,865,896
6017,865,897
6018,863,899
6019,863,901
6020,863,903
6021,862,904
6022,860,901
6023,859,900
6024,855,899
6025,854,895
6026,850,894
6027,849,893
6028,846,889
6029,846,888
6030,844,892
6031,843,895
6032,841,897
6033,840,897
6034,837,896
6035,838,897
6036,836,892
6037,833,890
6038,833,888
6039,829,886
6040,829,888
6041,830,889
6042,829,891
6043,830,897
6044,829,899
6045,830,896
6046,833,896
6047,833,895
6048,833,896
6049,832,893
6050,832,892
6051,833,893
6052,831,892
6053,834,897
6054,834,898
6055,837,899
6056,839,904
6057,838,902
6058,842,904
6059,841,901
6060,843,900
6061,841,900
6062,841,899
6063,840,901
6064,839,900
6065,841,901
6066,841,902
6067,842,904
6068,843,907
6069,846,910
6070,847,909
6071,846,907
6072,845,904
6073,843,903
6074,841,905
6075,843,903
6076,842,903
6077,843,907
6078,843,908
6079,844,909
6080,848,910
6081,849,914
6082,849,912
6083,851,913
6084,849,913
6085,845,909
6086,843,908
6087,846,907
6088,846,908
6089,847,911
6090,846,914
6091,847,914
6092,846,916
6093,851,918
6094,849,914
6095,850,913
6096,849,912
6097,847,911
6098,849,911
6099,847,910
6100,849,911
6101,847,912
6102,850,915
6103,848,915
6104,849,917
6105,849,919
6106,853,916
6107,849,916
6108,849,915
6109,848,912
6110,848,910
6111,848,910
6112,849,913
6113,849,911
6114,851,914
6115,854,914
6116,853,917
6117,855,917
6118,854,915
6119,853,914
6120,853,911
6121,850,913
6122,851,912
6123,851,912
6124,850,911
6125,849,915
6126,852,915
6127,854,918
6128,854,915
6129,856,917
6130,857,916
6131,856,913
6132,853,915
6133,853,911
6134,852,911
6135,852,914
6136,850,915
6137,851,914
6138,850,917
6139,853,918
6140,851,918
6141,851,920
6142,853,920
6143,855,920
6144,854,919
6145,851,915
6146,851,913
6147,853,913
6148,852,912
6149,853,914
6150,854,916
6151,855,917
6152,855,916
6153,853,920
6154,854,920
6155,856,920
6156,853,916
6157,855,917
6158,852,915
6159,852,914
6160,852,912
6161,853,915
6162,854,914
6163,853,920
6164,856,919
6165,857,921
6166,856,921
6167,856,919
6168,856,916
6169,855,915
6170,854,916
6171,854,916
6172,855,917
6173,852,917
6174,853,918
6175,854,919
6176,856,920
6177,859,925
6178,863,924
6179,861,923
6180,859,921
6181,857,919
6182,856,914
6183,854,915
6184,854,916
6185,855,917
6186,855,922
6187,856,922
6188,858,923
6189,860,924
6190,861,923
6191,859,920
6192,857,921
6193,858,918
6194,856,915
6195,855,912
6196,854,916
6197,854,916
6198,855,917
6199,857,920
6200,859,923
6201,861,924
6202,860,923
6203,861,923
6204,860,922
6205,857,919
6206,856,917
6207,856,916
6208,856,918
6209,855,920
6210,856,924
6211,858,925
6212,858,925
6213,861,926
6214,863,922
6215,861,923
6216,858,919
6217,857,920
6218,857,921
6219,855,920
6220,856,922
6221,854,923
6222,856,923
6223,857,924
6224,857,924
6225,859,925
6226,862,924
6227,860,923
6228,858,923
6229,860,921
6230,857,920
6231,856,921
6232,856,922
6233,855,922
6234,855,922
6235,857,925
6236,857,924
6237,860,925
6238,861,923
6239,861,922
6240,861,921
6241,862,920
6242,864,917
6243,861,917
6244,862,918
6245,861,919
6246,860,920
6247,862,923
6248,863,924
6249,865,925
6250,866,924
6251,865,923
6252,866,922
6253,869,920
6254,871,917
6255,871,919
6256,872,922
6257,872,922
6258,875,923
6259,873,925
6260,875,926
6261,874,927
6262,871,925
6263,870,924
6264,868,924
6265,867,924
6266,867,921
6267,866,922
6268,863,921
6269,867,923
6270,864,928
6271,867,931
6272,872,933
6273,875,936
6274,879,935
6275,879,931
6276,878,930
6277,875,925
6278,870,922
6279,866,919
6280,862,919
6281,858,917
6282,856,916
6283,855,915
6284,856,918
6285,855,917
6286,855,920
6287,857,919
6288,857,917
6289,855,915
6290,853,913
6291,851,914
6292,850,913
6293,853,914
6294,852,912
6295,851,908
6296,852,907
6297,851,904
6298,851,906
6299,854,920
6300,861,935
6301,876,956
6302,892,976
6303,907,988
6304,919,994
6305,928,990
6306,933,982
6307,935,960
6308,929,924
6309,910,874
6310,885,817
6311,856,767
6312,835,741
6313,829,743
6314,846,771
6315,881,809
6316,926,849
6317,977,888
6318,1026,920
6319,1076,945
6320,1121,962
6321,1165,973
6322,1207,972
6323,1239,974
6324,1263,965
6325,1277,950
6326,1281,937
6327,1275,925
6328,1262,919
6329,1244,919
6330,1216,923
6331,1182,927
6332,1145,931
6333,1108,936
6334,1070,936
6335,1027,936
6336,983,930
6337,935,921
6338,890,912
6339,851,902
6340,827,895
6341,812,894
6342,803,898
6343,804,906
6344,809,914
6345,814,922
6346,818,927
6347,821,930
6348,823,932
6349,825,933
6350,828,934
6351,827,935
6352,828,934
6353,828,934
6354,830,940
6355,831,941
6356,830,944
6357,830,943
6358,831,942
6359,830,940
6360,829,940
6361,828,938
6362,827,939
6363,826,937
6364,825,939
6365,825,941
6366,827,946
6367,828,946
6368,831,946
6369,829,949
6370,829,947
6371,830,947
6372,829,945
6373,828,944
6374,827,944
6375,825,944
6376,824,942
6377,824,942
6378,824,948
6379,826,948
6380,827,952
6381,825,950
6382,824,950
6383,828,947
6384,826,946
6385,823,943
6386,821,945
6387,819,943
6388,822,947
6389,821,949
6390,821,949
6391,822,950
6392,823,951
6393,825,950
6394,828,947
6395,825,945
6396,824,946
6397,820,943
6398,816,940
6399,816,942
6400,815,942
6401,813,942
6402,812,941
6403,814,943
6404,815,939
6405,817,941
6406,816,941
6407,816,938
6408,813,935
6409,809,933
6410,810,929
6411,806,927
6412,805,925
6413,803,927
6414,804,926
6415,806,927
6416,803,926
6417,804,928
6418,803,922
6419,800,922
6420,802,918
6421,799,914
6422,799,913
6423,796,908
6424,796,906
6425,794,908
6426,798,905
6427,797,904
6428,796,905
6429,798,903
6430,801,903
6431,800,899
6432,799,897
6433,799,898
6434,798,896
6435,799,892
6436,801,893
6437,803,893
6438,807,891
6439,811,893
6440,815,896
6441,819,898
6442,821,896
6443,822,896
6444,825,896
6445,826,893
6446,829,889
6447,829,890
6448,829,890
6449,834,892
6450,839,894
6451,844,900
6452,849,902
6453,852,904
6454,856,900
6455,857,900
6456,859,900
6457,859,901
6458,860,897
6459,861,899
6460,860,901
6461,863,903
6462,866,904
6463,867,907
6464,871,906
6465,871,906
6466,870,905
6467,869,905
6468,866,905
6469,867,903
6470,864,904
6471,860,902
6472,859,901
6473,857,903
6474,856,906
6475,857,908
6476,859,907
6477,853,907
6478,852,906
6479,849,905
6480,849,905
6481,845,903
6482,841,902
6483,838,901
6484,835,902
6485,835,901
6486,833,902
6487,835,902
6488,831,902
6489,837,904
6490,834,904
6491,830,902
6492,831,901
6493,831,899
6494,828,900
6495,826,897
6496,824,900
6497,826,899
6498,827,900
6499,826,902
6500,828,898
6501,830,903
6502,831,902
6503,829,902
6504,829,904
6505,830,903
6506,828,904
6507,829,905
6508,827,903
6509,829,904
6510,831,904
6511,833,907
6512,836,909
6513,839,911
6514,838,910
6515,838,910
6516,838,911
6517,838,908
6518,835,910
6519,835,909
6520,835,906
6521,834,908
6522,835,910
6523,838,914
6524,840,913
6525,842,915
6526,843,913
6527,844,911
6528,841,914
6529,842,909
6530,841,909
6531,839,911
6532,839,909
6533,840,911
6534,841,913
6535,844,916
6536,843,917
6537,847,917
6538,847,915
6539,848,918
6540,846,915
6541,842,913
6542,843,912
6543,842,909
6544,843,912
6545,844,914
6546,843,917
6547,844,916
6548,847,920
6549,850,919
6550,848,918
6551,850,918
6552,851,917
6553,849,916
6554,847,916
6555,845,916
6556,843,918
6557,847,919
6558,846,921
6559,849,921
6560,852,921
6561,853,921
6562,851,922
6563,853,920
6564,851,919
6565,851,919
6566,851,917
6567,849,914
6568,847,916
6569,849,916
6570,848,920
6571,849,920
6572,849,922
6573,852,922
6574,853,922
6575,854,919
6576,852,921
6577,849,917
6578,848,917
6579,847,917
6580,849,917
6581,849,918
6582,848,920
6583,850,922
6584,850,922
6585,852,923
6586,851,923
6587,852,921
6588,848,920
6589,846,920
6590,848,917
6591,847,914
6592,847,916
6593,847,915
6594,847,918
6595,848,919
6596,850,919
6597,851,919
6598,851,919
6599,852,917
6600,851,916
6601,851,916
6602,851,916
6603,848,916
6604,846,914
6605,846,916
6606,847,917
6607,849,917
6608,851,919
6609,852,919
6610,854,920
6611,853,921
6612,850,919
6613,849,918
6614,850,916
6615,847,915
6616,848,917
6617,846,916
6618,848,917
6619,850,919
6620,852,919
6621,851,924
6622,856,924
6623,854,923
6624,853,921
6625,851,920
6626,850,920
6627,850,918
6628,849,918
6629,849,921
6630,849,921
6631,851,921
6632,850,922
6633,851,926
6634,853,924
6635,852,923
6636,853,921
6637,851,919
6638,850,916
6639,849,916
6640,850,915
6641,849,917
6642,849,919
6643,851,922
6644,852,923
6645,852,923
6646,853,923
6647,853,923
6648,854,923
6649,853,922
6650,851,920
6651,849,920
6652,847,917
6653,850,920
6654,850,922
6655,849,922
6656,851,924
6657,851,923
6658,854,922
6659,853,921
6660,852,920
6661,851,917
6662,849,917
6663,850,919
6664,850,917
6665,848,919
6666,851,919
6667,852,921
6668,851,920
6669,851,922
6670,854,921
6671,853,921
6672,853,919
6673,852,917
6674,853,918
6675,851,915
6676,852,918
6677,852,918
6678,851,921
6679,852,920
6680,855,919
6681,859,919
6682,859,920
6683,861,919
6684,857,917
6685,857,917
6686,856,918
6687,854,919
6688,857,915
6689,859,922
6690,862,921
6691,865,922
6692,865,922
6693,868,921
6694,868,922
6695,869,919
6696,868,918
6697,866,916
6698,863,917
6699,856,918
6700,856,920
6701,854,920
6702,857,925
6703,857,922
6704,857,926
6705,860,926
6706,858,924
6707,863,927
6708,865,930
6709,866,930
6710,865,930
6711,867,928
6712,864,925
6713,862,925
6714,860,925
6715,860,924
6716,857,923
6717,855,923
6718,853,921
6719,851,918
6720,847,918
6721,845,917
6722,847,914
6723,845,913
6724,845,913
6725,844,913
6726,845,914
6727,846,912
6728,848,913
6729,847,911
6730,846,905
6731,841,902
6732,840,906
6733,846,916
6734,854,936
6735,870,961
6736,890,983
6737,907,994
6738,923,996
6739,933,978
6740,933,939
6741,913,884
6742,884,823
6743,853,774
6744,833,748
6745,832,760
6746,856,791
6747,902,832
6748,957,879
6749,1016,919
6750,1075,946
6751,1131,963
6752,1179,970
6753,1220,973
6754,1252,967
6755,1270,961
6756,1274,944
6757,1264,931
6758,1246,917
6759,1215,908
6760,1173,906
6761,1124,912
6762,1069,918
6763,1019,927
6764,970,932
6765,922,930
6766,879,921
6767,843,911
6768,817,903
6769,800,900
6770,795,900
6771,797,908
6772,800,916
6773,806,922
6774,813,931
6775,819,936
6776,820,941
6777,826,946
6778,828,944
6779,827,943
6780,825,942
6781,825,943
6782,821,938
6783,824,940
6784,822,938
6785,823,938
6786,819,939
6787,822,942
6788,824,946
6789,827,946
6790,828,948
6791,828,947
6792,826,945
6793,826,944
6794,824,943
6795,823,942
6796,822,943
6797,821,941
6798,821,944
6799,820,947
6800,822,950
6801,825,951
6802,826,953
6803,825,948
6804,824,945
6805,824,944
6806,822,943
6807,819,940
6808,818,942
6809,817,944
6810,816,946
6811,817,947
6812,818,947
6813,816,945
6814,817,944
6815,818,943
6816,815,940
6817,813,938
6818,811,941
6819,809,939
6820,808,937
6821,807,937
6822,806,939
6823,809,939
6824,808,939
6825,806,939
6826,805,939
6827,805,934
6828,802,931
6829,801,930
6830,801,931
6831,800,931
6832,799,930
6833,798,931
6834,800,931
6835,797,928
6836,799,926
6837,798,926
6838,797,926
6839,797,922
6840,795,919
6841,795,919
6842,793,913
6843,789,913
6844,787,912
6845,788,908
6846,786,905
6847,787,905
6848,786,905
6849,787,903
6850,787,904
6851,787,902
6852,785,900
6853,788,897
6854,783,893
6855,782,894
6856,781,890
6857,783,889
6858,784,890
6859,787,888
6860,792,892
6861,795,891
6862,801,891
6863,802,890
6864,804,888
6865,804,888
6866,807,887
6867,807,888
6868,810,887
6869,812,890
6870,816,888
6871,818,892
6872,822,894
6873,828,893
6874,832,895
6875,836,896
6876,837,896
6877,836,897
6878,840,897
6879,841,897
6880,843,897
6881,846,896
6882,848,898
6883,853,898
6884,856,900
6885,858,901
6886,862,904
6887,864,901
6888,864,903
6889,865,904
6890,865,903
6891,861,902
6892,862,903
6893,861,904
6894,862,906
6895,863,912
6896,865,909
6897,864,911
6898,864,913
6899,863,911
6900,860,911
6901,858,910
6902,855,910
6903,851,908
6904,849,907
6905,849,909
6906,847,910
6907,847,913
6908,846,913
6909,845,914
6910,844,911
6911,843,911
6912,840,909
6913,837,909
6914,837,906
6915,836,906
6916,833,904
6917,833,906
6918,831,908
6919,833,912
6920,831,913
6921,832,912
6922,835,910
6923,834,912
6924,832,910
6925,833,907
6926,833,907
6927,830,906
6928,830,906
6929,831,909
6930,832,912
6931,832,914
6932,834,915
6933,836,915
6934,838,915
6935,835,911
6936,836,912
6937,835,912
6938,834,912
6939,832,911
6940,833,915
6941,836,915
6942,837,918
6943,841,917
6944,842,918
6945,845,917
6946,846,919
6947,844,918
6948,843,918
6949,840,915
6950,842,913
6951,842,913
6952,839,915
6953,841,916
6954,841,918
6955,842,921
6956,842,918
6957,843,921
6958,847,922
6959,847,921
6960,846,920
6961,843,918
6962,845,919
6963,844,918
6964,843,918
6965,845,918
6966,845,919
6967,846,920
6968,847,919
6969,849,924
6970,853,924
6971,852,924
6972,848,922
6973,847,921
6974,847,918
6975,844,920
6976,847,920
6977,848,920
6978,848,923
6979,849,923
6980,851,923
6981,852,926
6982,853,927
6983,852,925
6984,850,924
6985,848,925
6986,850,921
6987,851,921
6988,849,924
6989,849,925
6990,851,926
6991,853,927
6992,853,925
6993,855,925
6994,856,929
6995,856,927
6996,854,926
6997,854,925
6998,850,923
6999,849,920
7000,851,921
7001,850,919
7002,852,925
7003,854,926
7004,854,927
7005,856,927
7006,859,927
7007,858,926
7008,855,925
7009,856,924
7010,852,919
7011,851,920
7012,851,918
7013,852,919
7014,850,922
7015,851,922
7016,851,923
7017,854,925
7018,856,925
7019,854,927
7020,854,924
7021,854,921
7022,854,917
7023,853,916
7024,852,918
7025,850,920
7026,851,921
7027,852,924
7028,853,922
7029,856,924
7030,859,925
7031,858,922
7032,856,921
7033,853,919
7034,852,916
7035,851,916
7036,853,916
7037,853,918
7038,850,920
7039,853,918
7040,853,921
7041,855,919
7042,856,920
7043,856,919
7044,856,920
7045,853,918
7046,854,916
7047,850,916
7048,849,915
7049,849,916
7050,852,918
7051,855,921
7052,855,921
7053,857,920
7054,859,922
7055,856,920
7056,857,918
7057,853,919
7058,853,913
7059,852,917
7060,852,917
7061,852,916
7062,852,919
7063,856,917
7064,857,922
7065,855,920
7066,858,921
7067,860,919
7068,858,919
7069,856,917
7070,854,916
7071,853,915
7072,851,916
7073,848,917
7074,852,919
7075,853,921
7076,855,920
7077,855,921
7078,858,919
7079,856,918
7080,854,918
7081,855,915
7082,855,915
7083,854,913
7084,853,914
7085,852,915
7086,855,918
7087,855,915
7088,856,918
7089,856,919
7090,858,921
7091,857,917
7092,858,918
7093,857,915
7094,853,914
7095,852,915
7096,848,914
7097,848,913
7098,846,917
7099,848,917
7100,854,918
7101,856,918
7102,858,921
7103,859,918
7104,857,917
7105,854,916
7106,853,914
7107,852,911
7108,854,911
7109,852,912
7110,852,915
7111,851,917
7112,856,916
7113,859,921
7114,860,919
7115,860,916
7116,859,916
7117,858,911
7118,858,913
7119,857,911
7120,860,913
7121,858,915
7122,859,914
7123,858,915
7124,859,914
7125,858,915
7126,860,917
7127,861,915
7128,862,915
7129,866,913
7130,866,909
7131,865,910
7132,867,912
7133,867,915
7134,868,914
7135,867,916
7136,868,920
7137,868,919
7138,868,920
7139,868,918
7140,867,916
7141,862,914
7142,863,915
7143,861,914
7144,861,915
7145,860,919
7146,860,922
7147,866,924
7148,868,927
7149,871,927
7150,877,929
7151,877,928
7152,874,924
7153,870,922
7154,864,916
7155,861,917
7156,854,914
7157,851,913
7158,851,911
7159,854,911
7160,854,912
7161,855,915
7162,858,913
7163,857,913
7164,854,912
7165,853,910
7166,852,909
7167,853,907
7168,849,904
7169,849,903
7170,848,900
7171,847,897
7172,847,899
7173,850,906
7174,858,921
7175,870,943
7176,887,963
7177,904,975
7178,917,982
7179,926,979
7180,929,967
7181,929,941
7182,922,899
7183,901,847
7184,876,797
7185,852,765
7186,839,756
7187,841,770
7188,873,805
7189,915,845
7190,967,887
7191,1019,921
7192,1070,949
7193,1116,964
7194,1162,977
7195,1206,983
7196,1243,986
7197,1275,983
7198,1293,973
7199,1300,955
7200,1295,937
7201,1279,920
7202,1255,913
7203,1222,911
7204,1181,911
7205,1136,914
7206,1090,922
7207,1046,928
7208,1004,931
7209,960,927
7210,916,920
7211,872,908
7212,837,897
7213,813,890
7214,799,889
7215,796,896
7216,798,900
7217,803,910
7218,808,916
7219,814,924
7220,818,931
7221,825,936
7222,829,938
7223,830,940
7224,832,940
7225,831,938
7226,828,939
7227,827,936
7228,823,936
7229,823,939
7230,825,942
7231,825,944
7232,827,944
7233,829,946
7234,831,950
7235,830,946
7236,828,943
7237,828,943
7238,826,942
7239,824,944
7240,824,943
7241,824,944
7242,824,944
7243,825,947
7244,826,948
7245,828,947
7246,830,949
7247,828,950
7248,828,947
7249,825,944
7250,826,945
7251,824,942
7252,821,942
7253,820,943
7254,820,942
7255,821,944
7256,823,945
7257,822,946
7258,823,949
7259,823,946
7260,822,947
7261,822,943
7262,820,942
7263,817,941
7264,816,939
7265,814,940
7266,813,941
7267,815,941
7268,814,941
7269,815,946
7270,818,944
7271,817,944
7272,816,941
7273,814,937
7274,813,935
7275,809,932
7276,808,932
7277,806,932
7278,805,934
7279,806,935
7280,804,937
7281,803,937
7282,805,935
7283,805,936
7284,804,932
7285,803,927
7286,802,923
7287,801,920
7288,799,918
7289,796,918
7290,796,919
7291,796,920
7292,797,916
7293,798,918
7294,799,917
7295,796,913
7296,796,910
7297,795,907
7298,793,904
7299,790,904
7300,790,900
7301,791,898
7302,791,898
7303,794,900
7304,795,901
7305,798,899
7306,803,899
7307,805,899
7308,806,898
7309,807,895
7310,809,895
7311,811,896
7312,812,896
7313,814,897
7314,817,898
7315,821,899
7316,824,900
7317,828,902
7318,833,904
7319,837,903
7320,839,904
7321,839,902
7322,842,900
7323,843,902
7324,846,903
7325,848,901
7326,849,902
7327,853,904
7328,858,906
7329,861,909
7330,862,908
7331,864,908
7332,867,909
7333,868,907
7334,867,906
7335,864,903
7336,865,902
7337,865,903
7338,863,907
7339,863,906
7340,863,907
7341,863,907
7342,863,908
7343,863,905
7344,861,903
7345,858,905
7346,855,902
7347,853,900
7348,848,898
7349,844,897
7350,842,898
7351,842,902
7352,840,900
7353,841,902
7354,840,904
7355,841,902
7356,837,903
7357,836,899
7358,832,896
7359,828,896
7360,824,898
7361,826,896
7362,825,897
7363,825,901
7364,825,902
7365,826,904
7366,828,905
7367,827,903
7368,825,902
7369,824,902
7370,824,902
7371,823,900
7372,825,902
7373,822,902
7374,822,905
7375,826,907
7376,825,910
7377,828,910
7378,830,913
7379,832,911
7380,831,909
7381,829,910
7382,830,908
7383,832,909
7384,830,909
7385,832,910
7386,834,911
7387,833,915
7388,836,914
7389,839,915
7390,837,917
7391,837,914
7392,839,916
7393,839,913
7394,839,911
7395,838,913
7396,840,914
7397,840,915
7398,841,915
7399,841,920
7400,843,922
7401,843,923
7402,845,923
7403,845,921
7404,843,919
7405,843,917
7406,843,916
7407,841,916
7408,843,914
7409,841,918
7410,843,919
7411,844,923
7412,846,921
7413,846,923
7414,850,922
7415,848,919
7416,848,920
7417,847,921
7418,845,917
7419,845,917
7420,846,916
7421,842,918
7422,842,922
7423,846,921
7424,848,923
7425,847,923
7426,849,924
7427,850,925
7428,850,922
7429,848,922
7430,847,919
7431,846,918
7432,845,917
7433,846,919
7434,848,920
7435,850,918
7436,850,921
7437,850,923
7438,852,925
7439,850,923
7440,851,921
7441,847,921
7442,848,919
7443,847,917
7444,847,916
7445,847,916
7446,849,918
7447,850,918
7448,848,923
7449,848,923
7450,851,925
7451,852,923
7452,851,923
7453,850,920
7454,850,921
7455,848,919
7456,848,920
7457,847,922
7458,847,923
7459,851,925
7460,849,927
7461,850,926
7462,854,928
7463,851,926
7464,851,926
7465,852,926
7466,850,924
7467,849,920
7468,848,919
7469,847,924
7470,847,922
7471,848,924
7472,850,925
7473,852,928
7474,854,930
7475,854,929
7476,852,930
7477,851,926
7478,851,923
7479,850,921
7480,850,921
7481,849,920
7482,849,922
7483,850,923
7484,852,924
7485,852,926
7486,854,927
7487,854,926
7488,853,925
7489,852,922
7490,848,922
7491,849,921
7492,850,921
7493,848,920
7494,847,924
7495,849,921
7496,850,924
7497,852,925
7498,852,926
7499,853,924
7500,852,924
7501,851,920
7502,850,917
7503,849,917
7504,849,915
7505,848,915
7506,848,920
7507,852,920
7508,851,923
7509,851,925
7510,853,927
7511,853,925
7512,852,922
7513,852,921
7514,849,919
7515,848,918
7516,846,917
7517,847,920
7518,845,920
7519,848,923
7520,850,923
7521,852,924
7522,854,926
7523,853,922
7524,850,924
7525,850,922
7526,849,925
7527,849,923
7528,847,924
7529,848,922
7530,848,921
7531,850,927
7532,852,928
7533,852,926
7534,853,929
7535,853,925
7536,852,924
7537,849,922
7538,846,919
7539,845,920
7540,845,918
7541,846,918
7542,845,921
7543,848,923
7544,851,924
7545,854,926
7546,856,926
7547,854,925
7548,855,924
7549,852,923
7550,852,921
7551,853,919
7552,851,919
7553,848,919
7554,847,920
7555,851,917
7556,852,922
7557,854,921
7558,858,923
7559,858,926
7560,862,924
7561,862,925
7562,861,920
7563,861,918
7564,862,920
7565,863,922
7566,863,925
7567,864,925
7568,862,926
7569,864,928
7570,865,930
7571,862,926
7572,858,927
7573,857,924
7574,856,927
7575,856,925
7576,856,922
7577,855,925
7578,855,929
7579,859,935
7580,864,938
7581,868,939
7582,870,939
7583,869,935
7584,868,933
7585,864,931
7586,862,925
7587,859,924
7588,855,924
7589,849,921
7590,848,921
7591,848,921
7592,847,921
7593,847,924
7594,849,921
7595,848,926
7596,847,922
7597,847,920
7598,846,916
7599,847,916
7600,845,916
7601,845,914
7602,844,912
7603,842,909
7604,842,908
7605,841,909
7606,847,919
7607,856,937
7608,868,959
7609,886,978
7610,901,996
7611,916,1002
7612,928,998
7613,934,981
7614,933,952
7615,920,905
7616,893,847
7617,862,796
7618,837,759
7619,824,753
7620,831,770
7621,860,800
7622,903,835
7623,951,870
7624,999,900
7625,1043,924
7626,1085,943
7627,1126,954
7628,1168,960
7629,1206,964
7630,1240,967
7631,1259,964
7632,1268,953
7633,1268,937
7634,1255,923
7635,1235,914
7636,1206,911
7637,1168,910
7638,1128,915
7639,1085,924
7640,1042,930
7641,1001,934
7642,958,933
7643,918,927
7644,874,917
7645,840,909
7646,817,902
7647,801,900
7648,796,904
7649,796,911
7650,798,917
7651,806,926
7652,809,928
7653,816,933
7654,820,938
7655,821,939
7656,825,941
7657,823,941
7658,826,939
7659,821,941
7660,823,941
7661,823,942
7662,823,944
7663,823,944
7664,825,947
7665,826,947
7666,827,950
7667,829,948
7668,828,945
7669,827,944
7670,826,945
7671,824,941
7672,824,943
7673,820,941
7674,822,946
7675,822,946
7676,822,947
7677,825,949
7678,826,949
7679,825,947
7680,824,948
7681,824,945
7682,822,944
7683,822,944
7684,820,943
7685,819,944
7686,818,943
7687,817,945
7688,818,948
7689,819,949
7690,821,950
7691,821,948
7692,818,948
7693,818,946
7694,817,947
7695,815,942
7696,813,941
7697,812,938
7698,813,940
7699,814,941
7700,815,944
7701,813,944
7702,813,946
7703,812,944
7704,812,942
7705,810,937
7706,808,932
7707,806,930
7708,805,931
7709,804,932
7710,805,934
7711,806,933
7712,806,936
7713,805,935
7714,807,931
7715,805,931
7716,803,926
7717,799,924
7718,798,921
7719,796,917
7720,792,918
7721,792,916
7722,791,917
7723,789,914
7724,789,916
7725,789,916
7726,790,914
7727,792,907
7728,789,907
7729,787,901
7730,783,897
7731,782,894
7732,781,893
7733,781,890
7734,781,889
7735,783,891
7736,787,889
7737,788,891
7738,789,886
7739,789,884
7740,791,882
7741,790,881
7742,792,878
7743,794,877
7744,795,877
7745,799,879
7746,801,880
7747,806,880
7748,810,882
7749,812,883
7750,816,881
7751,818,880
7752,820,881
7753,823,880
7754,828,880
7755,828,881
7756,834,878
7757,837,880
7758,838,882
7759,841,885
7760,846,888
7761,850,891
7762,855,893
7763,858,892
7764,860,893
7765,862,891
7766,862,889
7767,862,891
7768,864,891
7769,866,891
7770,864,889
7771,866,895
7772,865,895
7773,864,898
7774,867,899
7775,863,897
7776,864,897
7777,862,892
7778,859,891
7779,856,887
7780,855,888
7781,854,892
7782,852,894
7783,852,895
7784,849,897
7785,847,898
7786,848,898
7787,845,894
7788,845,891
7789,841,890
7790,837,889
7791,837,888
7792,834,890
7793,834,887
7794,835,888
7795,834,890
7796,835,891
7797,836,892
7798,837,893
7799,839,893
7800,835,892
7801,833,890
7802,832,889
7803,831,891
7804,832,892
7805,832,893
7806,831,894
7807,831,896
7808,835,898
7809,835,899
7810,837,898
7811,837,900
7812,836,898
7813,837,896
7814,837,899
7815,834,899
7816,836,896
7817,834,899
7818,832,899
7819,835,902
7820,838,902
7821,840,902
7822,843,903
7823,842,902
7824,840,904
7825,842,900
7826,841,901
7827,841,900
7828,842,900
7829,842,901
7830,843,901
7831,842,905
7832,846,903
7833,847,906
7834,848,908
7835,848,905
7836,846,905
7837,844,904
7838,846,903
7839,846,902
7840,844,902
7841,845,904
7842,845,905
7843,846,906
7844,848,903
7845,850,908
7846,850,906
7847,846,905
7848,848,906
7849,847,906
7850,844,904
7851,847,905
7852,847,904
7853,848,904
7854,848,907
7855,848,906
7856,850,910
7857,850,910
7858,851,908
7859,851,910
7860,852,911
7861,848,911
7862,848,908
7863,850,908
7864,849,906
7865,846,907
7866,846,908
7867,848,910
7868,848,912
7869,853,914
7870,855,914
7871,855,912
7872,853,911
7873,852,909
7874,850,903
7875,849,906
7876,849,901
7877,847,905
7878,846,906
7879,851,907
7880,851,911
7881,853,910
7882,857,911
7883,852,912
7884,853,909
7885,850,907
7886,850,907
7887,851,905
7888,849,904
7889,851,904
7890,852,903
7891,851,908
7892,853,909
7893,855,909
7894,857,909
7895,851,908
7896,852,906
7897,851,905
7898,850,902
7899,849,904
7900,850,903
7901,850,903
7902,851,902
7903,851,905
7904,855,906
7905,856,908
7906,856,907
7907,857,906
7908,856,905
7909,855,905
7910,854,901
7911,852,899
7912,852,903
7913,847,901
7914,849,904
7915,849,903
7916,851,903
7917,853,902
7918,854,905
7919,854,904
7920,855,901
7921,854,899
7922,851,900
7923,849,900
7924,850,900
7925,850,901
7926,848,903
7927,850,904
7928,851,907
7929,852,907
7930,855,905
7931,853,904
7932,853,902
7933,852,900
7934,851,901
7935,851,899
7936,852,899
7937,850,898
7938,850,899
7939,848,899
7940,851,899
7941,853,899
7942,855,902
7943,855,898
7944,854,899
7945,852,897
7946,848,896
7947,849,896
7948,848,895
7949,848,898
7950,849,898
7951,849,898
7952,853,900
7953,854,903
7954,855,900
7955,856,902
7956,853,901
7957,851,899
7958,851,899
7959,848,895
7960,847,892
7961,848,890
7962,847,893
7963,850,893
7964,851,896
7965,849,896
7966,851,898
7967,852,896
7968,851,894
7969,852,893
7970,850,890
7971,847,889
7972,848,888
7973,848,888
7974,848,891
7975,850,891
7976,851,892
7977,852,892
7978,856,894
7979,852,892
7980,850,891
7981,848,889
7982,847,890
7983,848,888
7984,847,888
7985,846,890
7986,847,891
7987,849,893
7988,849,893
7989,853,892
7990,855,893
7991,856,892
7992,855,890
7993,855,888
7994,854,885
7995,853,887
7996,854,885
7997,852,890
7998,850,888
7999,852,890
8000,855,894
8001,856,892
8002,861,893
8003,863,896
8004,863,894
8005,865,891
8006,863,891
8007,863,890
8008,862,889
8009,860,891
8010,859,889
8011,859,892
8012,859,893
8013,859,892
8014,860,894
8015,858,893
8016,858,894
8017,857,892
8018,854,893
8019,853,892
8020,856,895
8021,856,898
8022,859,901
8023,863,902
8024,865,904
8025,865,903
8026,866,901
8027,863,900
8028,860,895
8029,856,892
8030,852,889
8031,846,886
8032,841,884
8033,840,885
8034,840,886
8035,841,888
8036,843,890
8037,845,892
8038,847,891
8039,847,889
8040,846,888
8041,845,886
8042,845,886
8043,843,880
8044,841,875
8045,837,873
8046,836,874
8047,836,882
8048,845,901
8049,861,925
8050,878,946
8051,899,959
8052,914,966
8053,923,955
8054,928,927
8055,920,886
8056,899,833
8057,869,782
8058,842,743
8059,824,736
8060,830,752
8061,859,790
8062,905,832
8063,959,871
8064,1014,908
8065,1071,931
8066,1123,950
8067,1172,956
8068,1217,961
8069,1252,961
8070,1278,954
8071,1294,942
8072,1295,925
8073,1288,910
8074,1271,901
8075,1242,893
8076,1203,889
8077,1156,890
8078,1109,893
8079,1061,900
8080,1008,902
8081,960,903
8082,912,898
8083,869,889
8084,832,883
8085,807,876
8086,794,872
8087,789,872
8088,790,879
8089,792,883
8090,798,887
8091,801,892
8092,804,897
8093,807,903
8094,811,909
8095,817,909
8096,820,912
8097,823,916
8098,821,919
8099,823,915
8100,819,918
8101,817,915
8102,818,913
8103,815,912
8104,816,914
8105,815,914
8106,816,915
8107,815,917
8108,816,917
8109,818,918
8110,818,922
8111,820,920
8112,821,918
8113,817,919
8114,816,916
8115,815,915
8116,814,915
8117,811,914
8118,813,915
8119,812,917
8120,814,919
8121,813,916
8122,816,918
8123,816,915
8124,815,917
8125,815,916
8126,813,912
8127,813,914
8128,809,911
8129,810,913
8130,808,913
8131,809,916
8132,810,915
8133,814,916
8134,812,917
8135,811,915
8136,812,917
8137,810,914
8138,808,913
8139,802,911
8140,804,909
8141,800,907
8142,804,907
8143,803,909
8144,803,909
8145,803,912
8146,805,913
8147,804,912
8148,802,909
8149,800,908
8150,799,904
8151,797,897
8152,796,898
8153,795,898
8154,794,900
8155,792,900
8156,795,900
8157,795,898
8158,795,897
8159,795,892
8160,792,891
8161,793,888
8162,789,884
8163,787,882
8164,785,880
8165,784,880
8166,782,880
8167,783,879
8168,786,880
8169,785,880
8170,788,877
8171,788,875
8172,789,872
8173,788,871
8174,785,868
8175,785,867
8176,787,866
8177,789,868
8178,790,867
8179,791,870
8180,795,866
8181,797,867
8182,800,867
8183,803,867
8184,805,868
8185,806,867
8186,807,862
8187,809,863
8188,807,865
8189,810,866
8190,812,866
8191,818,870
8192,821,872
8193,826,874
8194,829,875
8195,835,874
8196,838,873
8197,839,872
8198,842,872
8199,843,872
8200,844,872
8201,844,874
8202,848,875
8203,850,876
8204,853,877
8205,855,878
8206,859,880
8207,858,879
8208,859,881
8209,858,880
8210,857,876
8211,856,875
8212,856,876
8213,855,876
8214,854,875
8215,854,875
8216,852,875
8217,854,877
8218,853,878
8219,849,875
8220,848,876
8221,845,874
8222,843,871
8223,839,869
8224,838,868
8225,836,867
8226,832,869
8227,829,869
8228,828,872
8229,831,872
8230,831,871
8231,829,870
8232,826,868
8233,822,867
8234,820,867
8235,817,866
8236,815,864
8237,816,865
8238,815,866
8239,815,867
8240,817,869
8241,818,872
8242,818,872
8243,819,871
8244,816,870
8245,817,869
8246,816,867
8247,815,867
8248,812,868
8249,813,869
8250,815,870
8251,816,871
8252,818,874
8253,819,878
8254,820,877
8255,822,875
8256,822,875
8257,821,873
8258,820,873
8259,819,874
8260,821,872
8261,821,874
8262,820,877
8263,823,881
8264,825,881
8265,825,882
8266,829,883
8267,832,885
8268,828,882
8269,829,881
8270,829,880
8271,828,879
8272,826,880
8273,827,877
8274,827,881
8275,828,884
8276,832,887
8277,833,889
8278,834,886
8279,836,886
8280,836,885
8281,833,883
8282,832,885
8283,832,883
8284,831,882
8285,831,883
8286,832,885
8287,832,885
8288,834,890
8289,834,890
8290,836,890
8291,840,892
8292,838,889
8293,839,887
8294,837,886
8295,834,885
8296,832,886
8297,831,885
8298,834,887
8299,836,890
8300,837,893
8301,839,892
8302,840,890
8303,837,887
8304,838,887
8305,838,888
8306,836,886
8307,835,887
8308,834,887
8309,836,887
8310,834,889
8311,836,891
8312,837,894
8313,839,894
8314,842,895
8315,842,896
8316,844,893
8317,842,891
8318,840,890
8319,841,891
8320,835,890
8321,835,891
8322,834,892
8323,833,893
8324,836,892
8325,839,892
8326,842,895
8327,842,894
8328,843,893
8329,842,891
8330,839,891
8331,838,891
8332,837,890
8333,837,891
8334,834,894
8335,836,896
8336,838,896
8337,838,897
8338,842,896
8339,842,895
8340,844,896
8341,839,896
8342,841,893
8343,840,892
8344,836,892
8345,834,892
8346,838,891
8347,836,892
8348,839,892
8349,839,896
8350,840,893
8351,842,895
8352,842,894
8353,842,894
8354,842,893
8355,841,892
8356,838,890
8357,838,889
8358,837,888
8359,837,892
8360,838,891
8361,840,896
8362,840,896
8363,842,897
8364,842,897
8365,841,894
8366,841,892
8367,840,892
8368,838,889
8369,838,893
8370,838,892
8371,838,893
8372,840,894
8373,839,895
8374,842,895
8375,839,894
8376,838,894
8377,835,893
8378,834,891
8379,834,889
8380,835,890
8381,835,888
8382,837,890
8383,837,893
8384,840,892
8385,842,896
8386,841,896
8387,841,894
8388,841,893
8389,839,892
8390,837,888
8391,838,888
8392,837,889
8393,836,889
8394,836,891
8395,835,894
8396,837,893
8397,838,896
8398,841,895
8399,840,895
8400,840,895
8401,840,892
8402,839,890
8403,837,890
8404,835,889
8405,837,888
8406,835,891
8407,837,892
8408,837,895
8409,838,897
8410,839,897
8411,840,896
8412,840,894
8413,841,893
8414,843,889
8415,840,890
8416,839,890
8417,838,892
8418,839,890
8419,843,891
8420,842,893
8421,846,893
8422,847,894
8423,848,894
8424,849,892
8425,847,893
8426,846,891
8427,844,889
8428,843,888
8429,842,889
8430,842,891
8431,845,892
8432,852,889
8433,854,892
8434,856,895
8435,858,895
8436,858,894
8437,858,892
8438,856,894
8439,854,893
8440,848,892
8441,846,893
8442,845,894
8443,844,897
8444,844,900
8445,844,901
8446,847,902
8447,848,903
8448,850,904
8449,853,905
8450,854,903
8451,855,905
8452,854,904
8453,850,900
8454,851,902
8455,851,903
8456,848,901
8457,844,901
8458,845,897
8459,842,897
8460,840,896
8461,837,891
8462,838,890
8463,834,890
8464,832,888
8465,835,885
8466,834,891
8467,833,892
8468,835,894
8469,838,893
8470,839,896
8471,840,890
8472,835,884
8473,833,878
8474,831,878
8475,829,883
8476,837,902
8477,851,930
8478,870,955
8479,892,977
8480,910,980
8481,925,976
8482,930,952
8483,922,899
8484,898,839
8485,859,777
8486,823,735
8487,800,716
8488,803,730
8489,832,764
8490,881,809
8491,940,853
8492,1004,886
8493,1063,912
8494,1117,925
8495,1166,926
8496,1205,929
8497,1237,927
8498,1253,922
8499,1262,914
8500,1256,901
8501,1242,895
8502,1220,891
8503,1191,892
8504,1155,893
8505,1111,895
8506,1071,902
8507,1033,906
8508,990,908
8509,947,910
8510,903,901
8511,862,895
8512,828,886
8513,804,881
8514,786,883
8515,783,886
8516,783,893
8517,789,901
8518,799,906
8519,804,910
8520,806,912
8521,811,913
8522,813,917
8523,815,918
8524,814,921
8525,819,923
8526,818,923
8527,817,926
8528,817,929
8529,819,930
8530,819,931
8531,819,933
8532,817,931
8533,815,929
8534,816,924
8535,817,924
8536,816,922
8537,816,923
8538,814,926
8539,816,932
8540,817,933
8541,819,937
8542,820,939
8543,820,936
8544,820,931
8545,815,932
8546,815,928
8547,814,926
8548,814,925
8549,813,927
8550,813,926
8551,816,928
8552,817,931
8553,816,932
8554,817,932
8555,819,933
8556,816,931
8557,814,930
8558,813,928
8559,812,928
8560,811,929
8561,811,929
8562,809,929
8563,810,928
8564,807,928
8565,808,929
8566,809,929
8567,809,928
8568,807,925
8569,806,923
8570,805,923
8571,805,921
8572,802,920
8573,800,918
8574,801,917
8575,802,918
8576,802,922
8577,800,921
8578,802,921
8579,802,921
8580,799,916
8581,799,913
8582,795,911
8583,796,908
8584,792,907
8585,789,907
8586,790,907
8587,790,907
8588,790,907
8589,792,906
8590,791,904
8591,789,898
8592,786,897
8593,786,894
8594,782,890
8595,780,889
8596,780,889
8597,777,888
8598,777,887
8599,777,885
8600,780,882
8601,779,880
8602,782,881
8603,780,879
8604,783,876
8605,783,874
8606,779,875
8607,780,870
8608,779,869
8609,782,870
8610,783,868
8611,787,870
8612,789,871
8613,792,870
8614,796,872
8615,796,874
8616,801,870
8617,801,871
8618,804,870
8619,806,868
8620,808,868
8621,807,868
8622,814,870
8623,819,871
8624,826,876
8625,828,876
8626,831,879
8627,837,878
8628,839,878
8629,839,877
8630,844,876
8631,843,877
8632,844,878
8633,848,877
8634,845,881
8635,852,882
8636,855,886
8637,857,887
8638,861,889
8639,862,890
8640,858,891
8641,858,886
8642,855,885
8643,857,884
8644,857,885
8645,857,887
8646,854,888
8647,854,890
8648,855,889
8649,855,891
8650,854,893
8651,855,893
8652,852,893
8653,848,891
8654,845,890
8655,843,890
8656,840,889
8657,835,886
8658,837,891
8659,837,892
8660,838,892
8661,835,896
8662,836,895
8663,838,893
8664,835,895
8665,834,892
8666,831,891
8667,829,890
8668,828,890
8669,827,890
8670,828,891
8671,829,892
8672,828,896
8673,831,896
8674,834,898
8675,834,898
8676,835,897
8677,835,895
8678,833,893
8679,832,895
8680,831,893
8681,830,896
8682,832,896
8683,835,899
8684,837,901
8685,837,902
8686,837,903
8687,839,906
8688,839,903
8689,839,901
8690,838,899
8691,837,899
8692,835,899
8693,835,899
8694,836,900
8695,835,902
8696,838,904
8697,839,905
8698,843,907
8699,845,907
8700,843,903
8701,844,902
8702,842,900
8703,842,898
8704,842,897
8705,841,899
8706,842,901
8707,842,902
8708,843,906
8709,846,906
8710,848,906
8711,847,906
8712,848,902
8713,844,903
8714,844,900
8715,845,900
8716,844,900
8717,844,904
8718,845,904
8719,844,904
8720,847,906
8721,849,908
8722,849,908
8723,851,908
8724,851,907
8725,850,905
8726,848,904
8727,847,900
8728,846,903
8729,846,904
8730,846,905
8731,846,908
8732,846,908
8733,850,911
8734,849,911
8735,848,911
8736,851,909
8737,851,908
8738,847,908
8739,846,904
8740,845,905
8741,845,908
8742,845,908
8743,847,906
8744,849,908
8745,850,911
8746,850,913
8747,852,910
8748,850,906
8749,849,906
8750,847,903
8751,847,904
8752,846,903
8753,846,903
8754,847,904
8755,847,905
8756,846,906
8757,849,908
8758,851,907
8759,853,905
8760,851,905
8761,849,904
8762,847,903
8763,849,899
8764,847,901
8765,846,899
8766,845,901
8767,846,903
8768,849,905
8769,848,905
8770,849,906
8771,849,906
8772,851,903
8773,850,900
8774,848,901
8775,849,900
8776,849,899
8777,847,898
8778,847,899
8779,846,903
8780,849,902
8781,851,904
8782,852,904
8783,853,904
8784,850,901
8785,852,902
8786,853,902
8787,849,899
8788,847,897
8789,849,898
8790,850,900
8791,852,903
8792,853,903
8793,854,904
8794,854,906
8795,853,903
8796,852,902
8797,853,900
8798,852,898
8799,851,896
8800,849,897
8801,848,898
8802,850,897
8803,849,897
8804,850,898
8805,850,899
8806,855,902
8807,856,901
8808,855,898
8809,851,898
8810,851,897
8811,851,896
8812,850,897
8813,849,897
8814,849,896
8815,849,897
8816,848,902
8817,851,902
8818,851,902
8819,851,905
8820,851,903
8821,849,900
8822,850,902
8823,846,899
8824,849,899
8825,850,897
8826,847,898
8827,849,900
8828,849,898
8829,849,902
8830,852,902
8831,853,900
8832,852,901
8833,853,902
8834,851,900
8835,849,896
8836,849,898
8837,850,896
8838,850,897
8839,850,899
8840,853,900
8841,855,902
8842,855,903
8843,854,905
8844,856,903
8845,853,903
8846,853,897
8847,854,896
8848,853,894
8849,852,895
8850,853,897
8851,855,895
8852,857,899
8853,858,898
8854,860,900
8855,863,900
8856,861,899
8857,860,896
8858,858,899
8859,858,894
8860,856,896
8861,856,897
8862,858,898
8863,859,900
8864,864,902
8865,869,903
8866,872,905
8867,873,905
8868,872,905
8869,870,901
8870,869,900
8871,867,898
8872,864,899
8873,862,899
8874,860,899
8875,861,902
8876,863,902
8877,863,907
8878,864,908
8879,862,910
8880,862,907
8881,861,905
8882,863,904
8883,864,905
8884,865,905
8885,868,909
8886,872,910
8887,874,911
8888,873,912
8889,872,911
8890,872,912
8891,872,908
8892,865,905
8893,862,904
8894,855,900
8895,852,896
8896,848,897
8897,848,896
8898,847,898
8899,850,898
8900,851,899
8901,850,902
8902,852,904
8903,856,901
8904,853,900
8905,853,897
8906,852,895
8907,849,890
8908,846,885
8909,845,882
8910,843,885
8911,845,899
8912,857,920
8913,876,943
8914,893,962
8915,914,973
8916,927,974
8917,933,959
8918,934,926
8919,921,880
8920,897,829
8921,866,778
8922,842,748
8923,831,747
8924,844,770
8925,881,808
8926,929,851
8927,984,890
8928,1038,923
8929,1092,947
8930,1141,959
8931,1186,966
8932,1229,969
8933,1266,969
8934,1294,966
8935,1310,957
8936,1313,942
8937,1308,927
8938,1294,914
8939,1267,905
8940,1233,901
8941,1188,897
8942,1141,899
8943,1095,902
8944,1051,907
8945,1007,909
8946,963,907
8947,920,903
8948,878,895
8949,844,890
8950,821,883
8951,805,881
8952,798,881
8953,797,887
8954,799,889
8955,802,895
8956,803,898
8957,808,905
8958,812,911
8959,815,918
8960,821,921
8961,825,927
8962,830,929
8963,830,927
8964,831,927
8965,829,927
8966,828,926
8967,826,924
8968,821,924
8969,823,927
8970,823,927
8971,825,927
8972,826,930
8973,826,931
8974,828,935
8975,830,934
8976,826,932
8977,827,930
8978,828,932
8979,826,928
8980,824,929
8981,823,930
8982,823,929
8983,822,933
8984,825,933
8985,825,934
8986,826,935
8987,827,934
8988,825,934
8989,823,930
8990,822,928
8991,819,928
8992,822,928
8993,820,929
8994,820,930
8995,822,933
8996,822,934
8997,821,935
8998,823,936
8999,822,932
9000,822,934
9001,822,931
9002,819,930
9003,818,929
9004,817,929
9005,815,927
9006,814,927
9007,815,928
9008,815,928
9009,816,928
9010,817,928
9011,817,927
9012,815,925
9013,813,924
9014,811,922
9015,807,921
9016,804,917
9017,803,915
9018,802,916
9019,806,915
9020,802,917
9021,806,915
9022,805,918
9023,805,916
9024,804,913
9025,803,910
9026,800,908
9027,799,904
9028,796,902
9029,797,900
9030,794,899
9031,794,901
9032,794,900
9033,795,900
9034,798,901
9035,797,900
9036,796,895
9037,799,892
9038,796,890
9039,797,889
9040,793,887
9041,792,886
9042,794,887
9043,799,889
9044,800,890
9045,804,889
9046,807,889
9047,810,890
9048,811,885
9049,814,883
9050,817,885
9051,818,881
9052,818,882
9053,823,883
9054,827,885
9055,830,887
9056,836,890
9057,839,890
9058,845,892
9059,849,893
9060,850,894
9061,854,892
9062,856,889
9063,859,888
9064,859,889
9065,858,889
9066,863,889
9067,866,891
9068,868,892
9069,870,895
9070,872,894
9071,873,893
9072,872,889
9073,872,889
9074,870,888
9075,867,890
9076,862,888
9077,862,889
9078,860,892
9079,858,890
9080,859,890
9081,857,890
9082,855,891
9083,852,892
9084,847,886
9085,848,886
9086,843,885
9087,840,884
9088,837,882
9089,834,883
9090,830,884
9091,832,885
9092,828,888
9093,832,889
9094,831,887
9095,829,885
9096,828,886
9097,828,881
9098,828,883
9099,826,879
9100,822,879
9101,824,881
9102,823,883
9103,824,882
9104,824,888
9105,825,888
9106,829,892
9107,828,890
9108,831,888
9109,832,886
9110,830,889
9111,826,887
9112,827,889
9113,827,888
9114,828,891
9115,828,891
9116,831,893
9117,832,896
9118,833,897
9119,837,896
9120,835,897
9121,838,896
9122,837,894
9123,834,894
9124,836,892
9125,834,891
9126,836,894
9127,836,896
9128,837,897
9129,842,902
9130,843,901
9131,847,899
9132,845,898
9133,843,898
9134,844,895
9135,842,893
9136,839,893
9137,841,895
9138,841,896
9139,841,898
9140,843,898
9141,843,900
9142,846,899
9143,846,899
9144,848,899
9145,847,896
9146,846,897
9147,845,895
9148,843,894
9149,842,895
9150,843,898
9151,845,899
9152,846,901
9153,847,900
9154,848,903
9155,849,902
9156,850,900
9157,849,900
9158,847,898
9159,846,900
9160,844,897
9161,841,895
9162,845,900
9163,843,899
9164,847,902
9165,849,899
9166,852,901
9167,849,901
9168,849,901
9169,850,900
9170,849,901
9171,848,900
9172,845,900
9173,846,900
9174,846,897
9175,846,902
9176,848,903
9177,850,902
9178,854,904
9179,851,905
9180,850,901
9181,850,901
9182,848,898
9183,851,898
9184,847,897
9185,845,896
9186,846,898
9187,846,899
9188,848,902
9189,851,902
9190,851,905
9191,851,905
9192,850,903
9193,851,905
9194,850,899
9195,849,900
9196,847,898
9197,848,899
9198,846,898
9199,845,900
9200,846,900
9201,850,903
9202,853,904
9203,856,904
9204,853,902
9205,855,901
9206,853,900
9207,851,898
9208,850,896
9209,849,896
9210,847,897
9211,850,898
9212,850,900
9213,850,901
9214,849,903
9215,851,901
9216,851,901
9217,854,900
9218,853,899
9219,846,899
9220,850,898
9221,847,895
9222,848,899
9223,850,900
9224,852,903
9225,854,906
9226,854,908
9227,854,905
9228,853,900
9229,853,903
9230,851,900
9231,850,898
9232,846,899
9233,849,899
9234,846,901
9235,848,900
9236,849,900
9237,849,906
9238,851,905
9239,852,907
9240,855,904
9241,853,902
9242,852,902
9243,850,899
9244,847,901
9245,850,900
9246,848,902
9247,850,903
9248,849,902
9249,851,905
9250,854,904
9251,854,904
9252,855,901
9253,855,900
9254,854,900
9255,852,901
9256,851,903
9257,848,903
9258,850,902
9259,851,905
9260,851,904
9261,852,907
9262,854,907
9263,855,906
9264,855,904
9265,855,906
9266,855,905
9267,853,902
9268,852,903
9269,847,902
9270,848,902
9271,848,902
9272,850,905
9273,853,903
9274,855,905
9275,856,906
9276,857,906
9277,856,904
9278,857,902
9279,858,899
9280,856,899
9281,853,898
9282,853,898
9283,855,899
