'sample #','MLII','V1'
0,1094,1045
1,1094,1045
2,1094,1045
3,1094,1045
4,1094,1045
5,1094,1045
6,1094,1045
7,1094,1045
8,1094,1045
9,1028,1047
10,982,1042
11,958,1039
12,950,1043
13,957,1047
14,967,1042
15,978,1041
16,981,1042
17,984,1041
18,986,1038
19,984,1039
20,984,1042
21,982,1043
22,978,1038
23,974,1030
24,973,1032
25,975,1038
26,976,1037
27,981,1032
28,977,1032
29,978,1033
30,978,1032
31,983,1027
32,988,1032
33,991,1034
34,985,1036
35,982,1032
36,981,1030
37,985,1036
38,990,1041
39,993,1038
40,989,1033
41,985,1034
42,982,1037
43,984,1042
44,984,1040
45,985,1039
46,987,1039
47,987,1034
48,988,1033
49,989,1037
50,989,1038
51,991,1041
52,996,1039
53,1000,1033
54,1001,1036
55,998,1039
56,993,1036
57,986,1031
58,986,1032
59,987,1035
60,988,1038
61,992,1036
62,996,1038
63,998,1038
64,1002,1038
65,1000,1035
66,998,1032
67,998,1034
68,999,1040
69,1005,1041
70,1005,1036
71,1006,1034
72,1008,1037
73,1009,1040
74,1010,1038
75,1009,1034
76,1011,1037
77,1013,1036
78,1012,1039
79,1013,1035
80,1016,1036
81,1018,1040
82,1020,1037
83,1021,1034
84,1021,1032
85,1022,1037
86,1027,1043
87,1031,1039
88,1029,1034
89,1027,1037
90,1027,1038
91,1029,1036
92,1029,1035
93,1032,1034
94,1032,1038
95,1030,1037
96,1027,1037
97,1028,1038
98,1031,1041
99,1033,1042
100,1034,1036
101,1029,1031
102,1028,1035
103,1028,1041
104,1026,1043
105,1026,1040
106,1024,1040
107,1023,1039
108,1019,1039
109,1020,1038
110,1018,1038
111,1018,1041
112,1017,1039
113,1015,1036
114,1013,1035
115,1012,1041
116,1011,1045
117,1009,1041
118,1008,1036
119,1009,1033
120,1009,1036
121,1009,1041
122,1010,1042
123,1009,1039
124,1008,1041
125,1006,1042
126,1004,1043
127,1005,1040
128,1005,1039
129,1007,1040
130,1005,1043
131,1004,1040
132,1004,1041
133,1001,1041
134,1001,1043
135,998,1042
136,996,1036
137,994,1034
138,992,1041
139,995,1044
140,993,1043
141,992,1040
142,990,1042
143,987,1041
144,989,1041
145,990,1040
146,991,1039
147,990,1042
148,990,1045
149,991,1038
150,988,1039
151,988,1040
152,984,1045
153,984,1043
154,981,1039
155,983,1033
156,982,1037
157,983,1044
158,982,1042
159,980,1039
160,979,1040
161,979,1040
162,976,1039
163,979,1036
164,982,1035
165,983,1041
166,985,1043
167,986,1038
168,984,1037
169,986,1042
170,986,1045
171,987,1047
172,990,1039
173,990,1038
174,989,1042
175,991,1046
176,991,1045
177,987,1042
178,987,1041
179,983,1042
180,983,1041
181,982,1040
182,985,1036
183,985,1042
184,986,1042
185,985,1036
186,985,1037
187,985,1037
188,987,1042
189,989,1041
190,989,1033
191,984,1029
192,979,1032
193,974,1038
194,976,1035
195,976,1030
196,976,1028
197,974,1028
198,972,1030
199,970,1027
200,968,1021
201,963,1024
202,957,1027
203,954,1024
204,956,1019
205,967,1018
206,983,1020
207,997,1020
208,1005,1013
209,1015,1008
210,1026,1010
211,1039,1016
212,1052,1013
213,1059,1011
214,1051,1005
215,1033,1008
216,993,1011
217,939,1010
218,882,1007
219,841,1011
220,806,1014
221,773,1012
222,745,1008
223,731,1008
224,723,1018
225,726,1020
226,734,1019
227,746,1014
228,756,1023
229,770,1030
230,793,1033
231,819,1033
232,834,1029
233,838,1030
234,838,1034
235,842,1032
236,847,1030
237,851,1027
238,856,1032
239,864,1032
240,873,1029
241,881,1028
242,892,1031
243,898,1035
244,908,1032
245,916,1026
246,922,1027
247,931,1032
248,937,1038
249,945,1038
250,951,1033
251,961,1035
252,971,1040
253,984,1042
254,993,1042
255,1006,1040
256,1016,1042
257,1021,1044
258,1022,1045
259,1025,1044
260,1030,1044
261,1035,1050
262,1040,1050
263,1041,1043
264,1042,1042
265,1046,1042
266,1046,1051
267,1050,1052
268,1054,1047
269,1055,1044
270,1054,1047
271,1060,1054
272,1061,1051
273,1065,1047
274,1068,1046
275,1071,1049
276,1071,1054
277,1075,1051
278,1078,1049
279,1082,1054
280,1082,1052
281,1084,1049
282,1084,1045
283,1085,1047
284,1089,1055
285,1087,1057
286,1086,1050
287,1087,1048
288,1087,1053
289,1093,1056
290,1096,1055
291,1098,1049
292,1099,1049
293,1099,1050
294,1097,1055
295,1099,1052
296,1101,1050
297,1106,1053
298,1105,1052
299,1104,1049
300,1104,1044
301,1105,1050
302,1104,1056
303,1106,1054
304,1103,1050
305,1104,1045
306,1101,1052
307,1102,1054
308,1103,1052
309,1101,1048
310,1100,1051
311,1095,1049
312,1095,1050
313,1095,1046
314,1094,1049
315,1089,1052
316,1084,1048
317,1080,1042
318,1074,1044
319,1074,1046
320,1074,1051
321,1074,1050
322,1071,1044
323,1066,1043
324,1059,1047
325,1057,1050
326,1056,1047
327,1053,1043
328,1052,1045
329,1053,1048
330,1050,1046
331,1044,1044
332,1040,1046
333,1032,1049
334,1027,1048
335,1022,1041
336,1019,1040
337,1019,1045
338,1018,1049
339,1016,1044
340,1015,1041
341,1010,1044
342,1003,1045
343,1008,1044
344,1009,1042
345,1007,1042
346,1006,1047
347,1002,1044
348,998,1041
349,1000,1045
350,1001,1048
351,999,1047
352,994,1042
353,990,1039
354,992,1043
355,992,1045
356,994,1044
357,993,1042
358,992,1043
359,990,1042
360,987,1040
361,988,1038
362,988,1044
363,986,1044
364,988,1046
365,990,1036
366,992,1039
367,996,1045
368,996,1047
369,995,1040
370,990,1038
371,988,1039
372,989,1044
373,992,1043
374,993,1042
375,993,1044
376,991,1048
377,994,1043
378,993,1037
379,994,1042
380,995,1047
381,995,1045
382,991,1042
383,985,1039
384,983,1044
385,986,1045
386,988,1042
387,991,1039
388,990,1044
389,992,1042
390,990,1040
391,991,1041
392,990,1044
393,990,1046
394,990,1039
395,990,1031
396,987,1038
397,986,1043
398,988,1043
399,988,1038
400,988,1042
401,989,1040
402,984,1038
403,982,1035
404,984,1039
405,984,1045
406,982,1040
407,981,1035
408,982,1036
409,984,1042
410,989,1039
411,992,1036
412,995,1034
413,995,1038
414,997,1041
415,996,1039
416,997,1036
417,998,1040
418,1000,1043
419,1001,1038
420,1002,1036
421,1003,1039
422,1004,1045
423,1005,1045
424,1002,1037
425,996,1038
426,989,1043
427,988,1045
428,988,1042
429,988,1039
430,991,1043
431,989,1042
432,989,1038
433,989,1038
434,991,1042
435,991,1046
436,991,1040
437,989,1030
438,991,1036
439,992,1041
440,993,1042
441,994,1038
442,993,1039
443,992,1040
444,992,1040
445,993,1036
446,995,1039
447,994,1043
448,994,1042
449,987,1039
450,984,1036
451,984,1042
452,985,1045
453,986,1041
454,986,1037
455,985,1039
456,984,1044
457,985,1043
458,987,1040
459,989,1040
460,989,1043
461,993,1042
462,990,1036
463,990,1038
464,991,1042
465,994,1045
466,992,1039
467,991,1034
468,989,1039
469,990,1045
470,990,1045
471,987,1041
472,981,1038
473,979,1041
474,986,1042
475,999,1039
476,1016,1040
477,1034,1044
478,1049,1045
479,1067,1037
480,1088,1035
481,1107,1044
482,1124,1046
483,1145,1045
484,1169,1042
485,1193,1043
486,1212,1046
487,1236,1049
488,1246,1048
489,1244,1044
490,1225,1047
491,1196,1048
492,1147,1047
493,1072,1048
494,1002,1054
495,957,1059
496,932,1055
497,921,1051
498,916,1051
499,922,1056
500,936,1058
501,947,1052
502,952,1050
503,954,1049
504,957,1053
505,960,1052
506,965,1050
507,964,1047
508,964,1051
509,959,1048
510,957,1044
511,957,1042
512,957,1047
513,959,1050
514,962,1047
515,964,1040
516,968,1041
517,972,1046
518,976,1048
519,975,1043
520,972,1040
521,970,1041
522,968,1044
523,968,1046
524,969,1041
525,970,1042
526,969,1041
527,968,1043
528,973,1042
529,974,1040
530,976,1039
531,977,1045
532,977,1042
533,977,1038
534,976,1035
535,977,1039
536,977,1045
537,978,1043
538,976,1038
539,979,1035
540,978,1041
541,979,1045
542,982,1046
543,985,1041
544,981,1041
545,980,1043
546,976,1042
547,978,1040
548,978,1040
549,981,1043
550,982,1044
551,982,1040
552,980,1037
553,983,1039
554,988,1042
555,987,1044
556,986,1041
557,986,1034
558,985,1037
559,992,1042
560,996,1048
561,998,1042
562,999,1038
563,998,1038
564,996,1043
565,998,1043
566,1000,1042
567,999,1040
568,999,1040
569,995,1043
570,999,1044
571,1000,1041
572,999,1041
573,1001,1043
574,1000,1044
575,996,1042
576,994,1036
577,995,1037
578,997,1043
579,1002,1045
580,1003,1041
581,1004,1035
582,1007,1036
583,1005,1041
584,1008,1043
585,1011,1042
586,1010,1036
587,1010,1037
588,1009,1045
589,1010,1043
590,1012,1041
591,1013,1040
592,1014,1042
593,1009,1044
594,1011,1044
595,1011,1040
596,1010,1044
597,1008,1046
598,1008,1046
599,1008,1038
600,1008,1037
601,1008,1044
602,1008,1046
603,1009,1045
604,1006,1041
605,1006,1038
606,1007,1044
607,1006,1048
608,1009,1046
609,1009,1038
610,1010,1040
611,1009,1044
612,1006,1045
613,1009,1041
614,1011,1042
615,1010,1042
616,1010,1044
617,1007,1044
618,1006,1043
619,1006,1037
620,1008,1042
621,1004,1044
622,1003,1045
623,1001,1039
624,1000,1036
625,1001,1041
626,1004,1048
627,1003,1047
628,1000,1039
629,996,1037
630,996,1044
631,1001,1047
632,1010,1045
633,1009,1042
634,1006,1044
635,1003,1044
636,1001,1046
637,1002,1045
638,1002,1046
639,998,1047
640,997,1047
641,994,1042
642,998,1040
643,999,1042
644,999,1048
645,996,1046
646,993,1041
647,993,1039
648,993,1043
649,993,1043
650,995,1044
651,998,1042
652,998,1040
653,998,1042
654,1000,1045
655,1002,1042
656,1006,1041
657,1010,1044
658,1012,1045
659,1008,1041
660,1009,1039
661,1014,1041
662,1021,1048
663,1025,1047
664,1028,1044
665,1028,1040
666,1032,1042
667,1036,1043
668,1040,1044
669,1045,1041
670,1046,1038
671,1043,1037
672,1048,1037
673,1064,1037
674,1077,1033
675,1077,1032
676,1068,1033
677,1064,1027
678,1062,1025
679,1054,1026
680,1031,1032
681,979,1030
682,899,1028
683,806,1023
684,729,1026
685,675,1029
686,645,1029
687,633,1027
688,625,1026
689,622,1028
690,624,1029
691,631,1030
692,643,1032
693,655,1034
694,674,1037
695,703,1034
696,729,1034
697,754,1039
698,769,1048
699,777,1045
700,788,1042
701,803,1041
702,817,1045
703,836,1046
704,858,1043
705,870,1045
706,881,1045
707,891,1046
708,903,1044
709,920,1044
710,931,1046
711,940,1047
712,944,1044
713,946,1042
714,949,1042
715,956,1047
716,963,1050
717,970,1047
718,986,1047
719,999,1048
720,1012,1048
721,1023,1049
722,1034,1049
723,1046,1053
724,1054,1055
725,1061,1053
726,1066,1051
727,1070,1055
728,1076,1058
729,1081,1057
730,1089,1053
731,1090,1052
732,1089,1054
733,1094,1059
734,1102,1059
735,1110,1058
736,1118,1058
737,1117,1058
738,1121,1053
739,1125,1054
740,1128,1057
741,1132,1059
742,1136,1054
743,1141,1052
744,1144,1056
745,1148,1056
746,1153,1056
747,1155,1054
748,1159,1057
749,1160,1058
750,1163,1056
751,1167,1059
752,1175,1062
753,1181,1063
754,1185,1059
755,1183,1055
756,1185,1058
757,1188,1063
758,1192,1063
759,1197,1060
760,1195,1058
761,1194,1058
762,1191,1058
763,1190,1057
764,1191,1062
765,1189,1062
766,1184,1060
767,1182,1056
768,1178,1058
769,1180,1061
770,1178,1061
771,1175,1056
772,1167,1057
773,1160,1057
774,1157,1060
775,1152,1061
776,1147,1062
777,1145,1062
778,1141,1060
779,1136,1055
780,1130,1057
781,1123,1063
782,1116,1064
783,1111,1062
784,1104,1060
785,1096,1057
786,1089,1059
787,1082,1058
788,1079,1058
789,1073,1061
790,1065,1060
791,1061,1056
792,1061,1058
793,1059,1060
794,1057,1061
795,1055,1059
796,1052,1057
797,1050,1056
798,1046,1059
799,1043,1056
800,1039,1059
801,1035,1061
802,1031,1055
803,1027,1049
804,1023,1051
805,1026,1057
806,1027,1059
807,1024,1055
808,1020,1055
809,1016,1055
810,1013,1053
811,1017,1049
812,1023,1052
813,1025,1057
814,1023,1054
815,1019,1050
816,1020,1053
817,1022,1054
818,1021,1054
819,1020,1051
820,1018,1050
821,1015,1053
822,1012,1052
823,1011,1049
824,1012,1052
825,1014,1054
826,1012,1049
827,1007,1044
828,1006,1049
829,1002,1053
830,1003,1053
831,1005,1052
832,1007,1052
833,1009,1050
834,1008,1048
835,1005,1048
836,1005,1054
837,1006,1056
838,1005,1051
839,1001,1048
840,1001,1054
841,1000,1052
842,1002,1050
843,1005,1049
844,1003,1053
845,1002,1051
846,999,1050
847,1001,1050
848,1006,1056
849,1005,1055
850,1002,1051
851,999,1047
852,997,1054
853,998,1054
854,999,1053
855,999,1051
856,997,1055
857,995,1050
858,993,1047
859,995,1048
860,998,1054
861,997,1056
862,996,1051
863,993,1049
864,993,1052
865,997,1052
866,999,1052
867,998,1050
868,997,1053
869,995,1052
870,991,1051
871,986,1052
872,989,1056
873,994,1055
874,997,1051
875,999,1047
876,995,1053
877,1002,1056
878,1006,1056
879,1010,1053
880,1009,1055
881,1006,1053
882,997,1051
883,994,1050
884,993,1054
885,993,1058
886,1000,1059
887,1004,1052
888,1008,1052
889,1011,1057
890,1009,1058
891,1005,1055
892,1004,1053
893,1005,1056
894,1007,1059
895,1008,1060
896,1008,1060
897,1008,1062
898,1005,1060
899,1000,1058
900,999,1053
901,999,1057
902,999,1062
903,998,1061
904,997,1055
905,998,1055
906,998,1057
907,1000,1062
908,1001,1061
909,1003,1055
910,1000,1054
911,995,1053
912,997,1058
913,1002,1059
914,1002,1060
915,1002,1062
916,999,1061
917,1003,1061
918,1004,1056
919,1008,1059
920,1014,1064
921,1018,1065
922,1010,1061
923,1000,1057
924,987,1061
925,981,1061
926,980,1060
927,987,1054
928,992,1055
929,992,1057
930,995,1058
931,994,1056
932,998,1058
933,996,1060
934,994,1058
935,990,1054
936,986,1053
937,987,1057
938,990,1061
939,989,1060
940,991,1055
941,992,1056
942,988,1059
943,989,1060
944,987,1058
945,987,1056
946,986,1057
947,983,1056
948,982,1054
949,981,1054
950,981,1057
951,988,1058
952,999,1056
953,1009,1052
954,1024,1050
955,1041,1054
956,1062,1059
957,1082,1058
958,1096,1053
959,1112,1052
960,1131,1056
961,1160,1057
962,1184,1056
963,1205,1053
964,1223,1057
965,1229,1058
966,1225,1057
967,1208,1055
968,1182,1059
969,1138,1065
970,1069,1063
971,1000,1061
972,957,1060
973,938,1062
974,923,1067
975,920,1065
976,925,1062
977,936,1062
978,944,1062
979,951,1059
980,950,1056
981,947,1055
982,952,1060
983,950,1059
984,948,1051
985,946,1051
986,941,1053
987,943,1055
988,943,1046
989,943,1042
990,941,1045
991,942,1050
992,945,1053
993,947,1046
994,947,1043
995,947,1045
996,951,1048
997,953,1042
998,955,1042
999,957,1047
1000,953,1042
1001,946,1038
1002,944,1039
1003,946,1047
1004,952,1046
1005,958,1039
1006,956,1034
1007,948,1038
1008,945,1046
1009,943,1045
1010,946,1039
1011,945,1040
1012,946,1042
1013,944,1040
1014,944,1038
1015,945,1038
1016,946,1042
1017,947,1042
1018,946,1037
1019,947,1036
1020,947,1039
1021,948,1044
1022,950,1038
1023,956,1033
1024,957,1037
1025,957,1043
1026,958,1043
1027,959,1041
1028,954,1043
1029,951,1044
1030,953,1041
1031,955,1035
1032,956,1041
1033,956,1046
1034,952,1044
1035,954,1042
1036,955,1042
1037,954,1043
1038,953,1040
1039,955,1040
1040,956,1040
1041,957,1042
1042,955,1039
1043,951,1035
1044,954,1039
1045,954,1043
1046,957,1039
1047,958,1035
1048,962,1033
1049,966,1039
1050,967,1042
1051,971,1039
1052,969,1040
1053,968,1040
1054,964,1040
1055,963,1037
1056,963,1038
1057,965,1044
1058,967,1044
1059,963,1041
1060,960,1036
1061,960,1041
1062,963,1044
1063,969,1044
1064,971,1038
1065,969,1040
1066,967,1043
1067,968,1042
1068,970,1043
1069,972,1047
1070,974,1051
1071,973,1043
1072,973,1038
1073,971,1042
1074,971,1049
1075,974,1049
1076,972,1045
1077,975,1046
1078,972,1047
1079,967,1043
1080,966,1040
1081,966,1045
1082,968,1050
1083,967,1045
1084,967,1043
1085,968,1043
1086,962,1048
1087,962,1047
1088,964,1042
1089,967,1043
1090,969,1044
1091,965,1046
1092,963,1044
1093,964,1043
1094,964,1047
1095,960,1047
1096,964,1041
1097,963,1036
1098,961,1043
1099,963,1048
1100,965,1046
1101,965,1039
1102,963,1043
1103,957,1046
1104,957,1045
1105,956,1040
1106,957,1043
1107,957,1044
1108,955,1044
1109,952,1039
1110,951,1041
1111,953,1048
1112,957,1045
1113,958,1039
1114,960,1039
1115,962,1045
1116,965,1043
1117,969,1042
1118,974,1047
1119,978,1045
1120,982,1039
1121,984,1038
1122,989,1043
1123,994,1047
1124,996,1042
1125,995,1040
1126,993,1039
1127,993,1041
1128,998,1036
1129,998,1030
1130,1001,1030
1131,1003,1032
1132,1012,1029
1133,1016,1022
1134,1015,1024
1135,1007,1028
1136,992,1027
1137,972,1016
1138,938,1014
1139,886,1018
1140,812,1023
1141,739,1021
1142,678,1017
1143,638,1020
1144,617,1027
1145,611,1025
1146,612,1020
1147,608,1025
1148,613,1031
1149,625,1032
1150,644,1029
1151,663,1031
1152,683,1041
1153,697,1046
1154,716,1045
1155,736,1042
1156,759,1046
1157,777,1049
1158,795,1052
1159,811,1050
1160,825,1052
1161,836,1053
1162,841,1051
1163,850,1044
1164,858,1043
1165,872,1050
1166,886,1051
1167,893,1047
1168,899,1040
1169,902,1044
1170,907,1048
1171,911,1047
1172,918,1041
1173,926,1042
1174,930,1046
1175,940,1045
1176,954,1042
1177,969,1044
1178,983,1048
1179,993,1051
1180,1000,1046
1181,1006,1044
1182,1018,1047
1183,1028,1054
1184,1036,1053
1185,1040,1049
1186,1043,1048
1187,1050,1054
1188,1054,1052
1189,1058,1051
1190,1060,1051
1191,1061,1055
1192,1066,1054
1193,1069,1049
1194,1073,1050
1195,1078,1055
1196,1084,1055
1197,1087,1050
1198,1086,1047
1199,1087,1049
1200,1094,1057
1201,1098,1056
1202,1097,1051
1203,1098,1053
1204,1101,1054
1205,1104,1056
1206,1109,1055
1207,1118,1053
1208,1122,1057
1209,1125,1059
1210,1125,1059
1211,1130,1053
1212,1130,1057
1213,1131,1063
1214,1132,1061
1215,1133,1055
1216,1133,1052
1217,1138,1053
1218,1140,1059
1219,1138,1059
1220,1139,1054
1221,1136,1056
1222,1134,1059
1223,1133,1060
1224,1135,1057
1225,1134,1055
1226,1136,1055
1227,1134,1060
1228,1130,1055
1229,1124,1052
1230,1120,1057
1231,1117,1062
1232,1117,1057
1233,1112,1053
1234,1105,1051
1235,1103,1055
1236,1099,1057
1237,1096,1057
1238,1095,1052
1239,1093,1054
1240,1082,1056
1241,1074,1053
1242,1068,1050
1243,1063,1052
1244,1059,1056
1245,1054,1055
1246,1048,1049
1247,1043,1049
1248,1037,1051
1249,1035,1057
1250,1031,1055
1251,1028,1049
1252,1023,1047
1253,1019,1051
1254,1016,1054
1255,1011,1054
1256,1010,1050
1257,1008,1052
1258,1004,1054
1259,1001,1053
1260,997,1049
1261,998,1051
1262,996,1054
1263,993,1053
1264,992,1047
1265,990,1047
1266,990,1051
1267,989,1055
1268,988,1053
1269,983,1047
1270,982,1047
1271,979,1052
1272,981,1053
1273,984,1052
1274,987,1051
1275,984,1049
1276,980,1052
1277,978,1053
1278,978,1048
1279,982,1048
1280,985,1053
1281,983,1051
1282,981,1048
1283,979,1046
1284,982,1050
1285,984,1055
1286,985,1055
1287,984,1046
1288,980,1047
1289,978,1050
1290,977,1052
1291,978,1050
1292,978,1046
1293,979,1048
1294,976,1048
1295,973,1052
1296,974,1047
1297,978,1049
1298,979,1049
1299,976,1050
1300,976,1047
1301,972,1048
1302,974,1049
1303,975,1055
1304,978,1054
1305,981,1047
1306,980,1045
1307,979,1049
1308,979,1052
1309,978,1053
1310,981,1049
1311,981,1049
1312,975,1052
1313,974,1051
1314,975,1048
1315,976,1051
1316,976,1052
1317,978,1051
1318,978,1045
1319,975,1047
1320,976,1052
1321,975,1055
1322,976,1051
1323,975,1048
1324,975,1050
1325,974,1051
1326,974,1049
1327,979,1048
1328,976,1047
1329,976,1051
1330,977,1047
1331,976,1044
1332,976,1045
1333,976,1051
1334,976,1051
1335,973,1043
1336,973,1040
1337,972,1045
1338,979,1049
1339,979,1046
1340,980,1042
1341,981,1042
1342,979,1046
1343,977,1043
1344,974,1042
1345,975,1047
1346,975,1050
1347,974,1047
1348,973,1040
1349,976,1042
1350,981,1049
1351,982,1049
1352,981,1045
1353,979,1042
1354,978,1045
1355,978,1046
1356,979,1044
1357,979,1045
1358,978,1048
1359,979,1046
1360,980,1041
1361,980,1042
1362,982,1045
1363,986,1052
1364,989,1049
1365,991,1045
1366,990,1047
1367,989,1048
1368,990,1047
1369,993,1050
1370,995,1050
1371,996,1052
1372,997,1046
1373,997,1044
1374,997,1048
1375,996,1050
1376,995,1046
1377,993,1043
1378,992,1043
1379,988,1046
1380,987,1045
1381,987,1043
1382,988,1046
1383,985,1045
1384,983,1041
1385,981,1041
1386,980,1043
1387,980,1049
1388,979,1043
1389,980,1041
1390,981,1043
1391,982,1043
1392,982,1042
1393,983,1042
1394,985,1047
1395,984,1048
1396,984,1045
1397,984,1044
1398,987,1048
1399,987,1050
1400,986,1045
1401,987,1043
1402,986,1043
1403,984,1044
1404,982,1045
1405,981,1046
1406,979,1047
1407,974,1045
1408,975,1042
1409,978,1046
1410,977,1048
1411,977,1047
1412,980,1046
1413,981,1045
1414,982,1045
1415,983,1039
1416,985,1045
1417,984,1050
1418,981,1048
1419,977,1045
1420,977,1046
1421,979,1044
1422,990,1047
1423,1007,1046
1424,1027,1047
1425,1047,1050
1426,1065,1047
1427,1083,1044
1428,1105,1047
1429,1131,1051
1430,1161,1047
1431,1189,1047
1432,1214,1049
1433,1234,1051
1434,1247,1053
1435,1246,1054
1436,1223,1056
1437,1175,1055
1438,1089,1052
1439,997,1053
1440,940,1057
1441,916,1062
1442,915,1059
1443,920,1057
1444,932,1057
1445,942,1057
1446,950,1053
1447,951,1052
1448,956,1056
1449,954,1057
1450,954,1052
1451,949,1050
1452,948,1053
1453,948,1055
1454,953,1050
1455,958,1045
1456,956,1048
1457,955,1049
1458,959,1048
1459,964,1047
1460,969,1049
1461,968,1051
1462,966,1047
1463,962,1045
1464,962,1048
1465,964,1052
1466,965,1052
1467,964,1047
1468,961,1046
1469,956,1048
1470,957,1047
1471,963,1048
1472,967,1049
1473,968,1050
1474,965,1049
1475,964,1048
1476,965,1048
1477,967,1052
1478,969,1048
1479,967,1046
1480,968,1049
1481,967,1047
1482,970,1046
1483,971,1049
1484,970,1049
1485,970,1049
1486,970,1044
1487,972,1044
1488,976,1047
1489,973,1052
1490,973,1049
1491,973,1044
1492,973,1045
1493,971,1045
1494,972,1046
1495,974,1045
1496,973,1048
1497,973,1050
1498,972,1045
1499,970,1044
1500,973,1046
1501,972,1050
1502,969,1047
1503,972,1042
1504,974,1041
1505,977,1047
1506,979,1048
1507,979,1047
1508,978,1043
1509,980,1047
1510,981,1043
1511,983,1039
1512,985,1041
1513,984,1048
1514,983,1047
1515,980,1045
1516,982,1043
1517,980,1046
1518,982,1045
1519,983,1044
1520,987,1041
1521,985,1046
1522,985,1049
1523,985,1045
1524,989,1044
1525,994,1048
1526,996,1050
1527,995,1042
1528,992,1038
1529,992,1042
1530,995,1044
1531,997,1045
1532,999,1039
1533,999,1042
1534,996,1043
1535,998,1040
1536,1002,1039
1537,1003,1044
1538,1002,1047
1539,998,1044
1540,997,1040
1541,996,1043
1542,996,1046
1543,996,1047
1544,999,1042
1545,999,1041
1546,1002,1045
1547,1003,1046
1548,999,1043
1549,1000,1048
1550,1002,1049
1551,1002,1049
1552,998,1041
1553,995,1043
1554,995,1050
1555,996,1048
1556,996,1046
1557,997,1048
1558,992,1046
1559,991,1045
1560,991,1046
1561,993,1046
1562,995,1048
1563,993,1050
1564,990,1049
1565,989,1046
1566,992,1049
1567,993,1051
1568,994,1048
1569,991,1042
1570,987,1043
1571,986,1049
1572,988,1053
1573,992,1050
1574,992,1050
1575,992,1050
1576,990,1049
1577,986,1046
1578,989,1044
1579,988,1050
1580,988,1052
1581,991,1048
1582,993,1046
1583,995,1048
1584,1002,1054
1585,1010,1054
1586,1014,1049
1587,1019,1048
1588,1023,1053
1589,1024,1052
1590,1030,1053
1591,1036,1052
1592,1039,1053
1593,1041,1052
1594,1039,1045
1595,1042,1042
1596,1051,1043
1597,1055,1046
1598,1053,1036
1599,1042,1033
1600,1019,1030
1601,976,1028
1602,908,1023
1603,831,1021
1604,756,1023
1605,685,1027
1606,628,1025
1607,599,1022
1608,597,1027
1609,599,1030
1610,606,1030
1611,609,1026
1612,621,1024
1613,634,1030
1614,654,1038
1615,677,1042
1616,695,1042
1617,714,1043
1618,739,1049
1619,766,1051
1620,787,1048
1621,803,1047
1622,817,1051
1623,831,1052
1624,844,1049
1625,858,1049
1626,871,1052
1627,883,1055
1628,892,1050
1629,897,1044
1630,909,1048
1631,920,1050
1632,932,1050
1633,943,1051
1634,954,1048
1635,966,1053
1636,981,1052
1637,992,1049
1638,1005,1050
1639,1019,1055
1640,1028,1060
1641,1039,1058
1642,1048,1052
1643,1051,1054
1644,1060,1059
1645,1064,1062
1646,1068,1055
1647,1074,1054
1648,1078,1054
1649,1080,1057
1650,1083,1059
1651,1087,1057
1652,1093,1057
1653,1096,1058
1654,1099,1055
1655,1098,1054
1656,1102,1056
1657,1105,1064
1658,1111,1063
1659,1115,1060
1660,1118,1058
1661,1122,1061
1662,1128,1061
1663,1133,1061
1664,1135,1056
1665,1141,1057
1666,1144,1060
1667,1148,1060
1668,1151,1060
1669,1158,1061
1670,1160,1063
1671,1162,1059
1672,1161,1054
1673,1163,1054
1674,1169,1061
1675,1172,1064
1676,1175,1060
1677,1177,1057
1678,1177,1058
1679,1177,1061
1680,1180,1061
1681,1184,1056
1682,1187,1057
1683,1182,1059
1684,1182,1059
1685,1177,1056
1686,1177,1056
1687,1180,1062
1688,1180,1061
1689,1180,1056
1690,1173,1051
1691,1167,1054
1692,1166,1058
1693,1166,1059
1694,1164,1055
1695,1158,1055
1696,1150,1054
1697,1140,1050
1698,1131,1050
1699,1123,1056
1700,1117,1059
1701,1113,1055
1702,1106,1053
1703,1103,1051
1704,1099,1058
1705,1097,1057
1706,1093,1051
1707,1088,1052
1708,1080,1056
1709,1073,1056
1710,1067,1053
1711,1063,1055
1712,1060,1054
1713,1054,1053
1714,1048,1050
1715,1043,1049
1716,1043,1054
1717,1043,1056
1718,1040,1053
1719,1037,1050
1720,1032,1052
1721,1028,1051
1722,1024,1048
1723,1024,1047
1724,1024,1052
1725,1020,1053
1726,1020,1048
1727,1018,1047
1728,1017,1051
1729,1018,1052
1730,1018,1049
1731,1016,1042
1732,1010,1048
1733,1008,1051
1734,1011,1048
1735,1010,1049
1736,1013,1051
1737,1010,1049
1738,1007,1044
1739,1006,1041
1740,1006,1047
1741,1012,1051
1742,1013,1046
1743,1011,1044
1744,1005,1045
1745,1003,1046
1746,1003,1040
1747,1006,1043
1748,1008,1045
1749,1009,1045
1750,1007,1040
1751,1004,1040
1752,1009,1047
1753,1008,1047
1754,1008,1042
1755,1007,1040
1756,1002,1044
1757,1000,1045
1758,1002,1041
1759,1005,1044
1760,1008,1046
1761,1006,1045
1762,1006,1040
1763,1003,1040
1764,1001,1048
1765,1004,1048
1766,1005,1044
1767,1002,1043
1768,999,1047
1769,995,1043
1770,992,1041
1771,993,1046
1772,994,1050
1773,997,1047
1774,999,1040
1775,998,1046
1776,1002,1049
1777,999,1048
1778,1000,1044
1779,998,1047
1780,995,1047
1781,994,1044
1782,995,1044
1783,996,1050
1784,995,1048
1785,994,1042
1786,992,1039
1787,990,1043
1788,992,1048
1789,993,1047
1790,993,1043
1791,993,1046
1792,994,1049
1793,992,1044
1794,992,1043
1795,992,1049
1796,995,1052
1797,994,1047
1798,993,1039
1799,988,1045
1800,989,1048
1801,991,1045
1802,993,1042
1803,995,1045
1804,991,1049
1805,988,1047
1806,990,1044
1807,992,1048
1808,991,1051
1809,991,1051
1810,992,1043
1811,993,1043
1812,995,1050
1813,997,1054
1814,1001,1049
1815,1003,1049
1816,1005,1051
1817,1006,1053
1818,1007,1046
1819,1006,1048
1820,1005,1051
1821,1000,1049
1822,994,1047
1823,990,1044
1824,991,1049
1825,990,1052
1826,990,1046
1827,990,1043
1828,988,1044
1829,988,1047
1830,990,1044
1831,989,1044
1832,988,1049
1833,987,1049
1834,986,1044
1835,984,1043
1836,989,1047
1837,989,1052
1838,991,1048
1839,996,1042
1840,996,1045
1841,993,1047
1842,993,1046
1843,993,1045
1844,992,1045
1845,989,1049
1846,986,1045
1847,983,1043
1848,983,1043
1849,984,1050
1850,986,1048
1851,984,1042
1852,982,1040
1853,980,1044
1854,982,1048
1855,982,1045
1856,983,1046
1857,983,1049
1858,984,1048
1859,984,1042
1860,987,1042
1861,987,1048
1862,987,1051
1863,986,1048
1864,983,1044
1865,982,1045
1866,981,1049
1867,980,1048
1868,974,1040
1869,972,1040
1870,977,1043
1871,985,1043
1872,997,1043
1873,1018,1044
1874,1043,1046
1875,1063,1047
1876,1081,1044
1877,1096,1042
1878,1116,1049
1879,1140,1053
1880,1163,1051
1881,1186,1047
1882,1203,1050
1883,1213,1053
1884,1212,1051
1885,1193,1050
1886,1169,1048
1887,1133,1053
1888,1081,1056
1889,1019,1052
1890,970,1055
1891,943,1062
1892,930,1061
1893,926,1056
1894,931,1051
1895,939,1057
1896,947,1059
1897,954,1056
1898,956,1053
1899,961,1054
1900,961,1053
1901,958,1049
1902,954,1047
1903,952,1050
1904,949,1050
1905,948,1047
1906,948,1041
1907,948,1038
1908,952,1045
1909,955,1044
1910,960,1040
1911,962,1039
1912,960,1042
1913,957,1044
1914,957,1039
1915,958,1042
1916,958,1045
1917,959,1045
1918,955,1038
1919,957,1035
1920,957,1038
1921,956,1047
1922,960,1041
1923,959,1035
1924,959,1034
1925,959,1040
1926,962,1041
1927,963,1038
1928,962,1038
1929,961,1041
1930,961,1041
1931,963,1038
1932,964,1036
1933,965,1045
1934,967,1046
1935,965,1039
1936,964,1035
1937,962,1039
1938,964,1044
1939,969,1043
1940,969,1040
1941,968,1041
1942,968,1043
1943,966,1043
1944,965,1039
1945,968,1044
1946,966,1046
1947,967,1045
1948,965,1038
1949,964,1037
1950,967,1043
1951,972,1047
1952,975,1043
1953,979,1038
1954,976,1038
1955,971,1044
1956,970,1043
1957,972,1041
1958,971,1040
1959,977,1045
1960,975,1042
1961,974,1038
1962,976,1037
1963,976,1044
1964,979,1048
1965,980,1043
1966,977,1040
1967,977,1040
1968,979,1045
1969,980,1048
1970,977,1041
1971,974,1040
1972,976,1042
1973,978,1046
1974,987,1042
1975,989,1041
1976,992,1044
1977,990,1047
1978,986,1043
1979,983,1038
1980,984,1041
1981,981,1044
1982,982,1048
1983,986,1043
1984,984,1038
1985,983,1042
1986,988,1048
1987,989,1045
1988,989,1041
1989,988,1040
1990,986,1042
1991,983,1042
1992,986,1040
1993,987,1043
1994,992,1047
1995,989,1047
1996,984,1044
1997,980,1041
1998,980,1046
1999,984,1050
2000,986,1049
2001,990,1042
2002,989,1042
2003,987,1047
2004,988,1050
2005,988,1047
2006,990,1043
2007,990,1046
2008,990,1048
2009,979,1046
2010,983,1044
2011,981,1049
2012,979,1050
2013,979,1051
2014,980,1046
2015,981,1043
2016,985,1049
2017,985,1053
2018,985,1048
2019,981,1047
2020,977,1047
2021,980,1052
2022,982,1046
2023,988,1046
2024,986,1049
2025,988,1049
2026,985,1046
2027,981,1044
2028,982,1048
2029,982,1051
2030,982,1050
2031,979,1045
2032,976,1040
2033,972,1047
2034,974,1046
2035,976,1044
2036,978,1042
2037,980,1045
2038,974,1045
2039,970,1040
2040,971,1039
2041,969,1044
2042,972,1043
2043,973,1042
2044,974,1035
2045,974,1038
2046,977,1044
2047,980,1046
2048,982,1039
2049,982,1037
2050,983,1038
2051,982,1039
2052,986,1037
2053,989,1035
2054,993,1034
2055,1008,1033
2056,1027,1030
2057,1041,1024
2058,1048,1026
2059,1047,1032
2060,1044,1029
2061,1042,1024
2062,1028,1023
2063,1002,1026
2064,945,1027
2065,866,1023
2066,789,1023
2067,734,1027
2068,695,1027
2069,670,1024
2070,655,1028
2071,643,1033
2072,641,1033
2073,646,1029
2074,649,1028
2075,652,1035
2076,669,1038
2077,702,1040
2078,735,1042
2079,763,1044
2080,782,1045
2081,794,1043
2082,814,1046
2083,832,1050
2084,842,1049
2085,847,1047
2086,852,1043
2087,859,1049
2088,866,1047
2089,879,1048
2090,890,1045
2091,906,1046
2092,909,1045
2093,916,1042
2094,925,1041
2095,937,1046
2096,952,1050
2097,968,1046
2098,980,1043
2099,992,1046
2100,1004,1051
2101,1015,1048
2102,1024,1047
2103,1031,1051
2104,1035,1051
2105,1036,1044
2106,1040,1047
2107,1043,1052
2108,1045,1051
2109,1045,1045
2110,1047,1043
2111,1057,1050
2112,1063,1052
2113,1067,1047
2114,1070,1048
2115,1070,1051
2116,1069,1048
2117,1069,1043
2118,1074,1046
2119,1080,1054
2120,1086,1053
2121,1090,1045
2122,1094,1046
2123,1093,1048
2124,1098,1049
2125,1104,1048
2126,1107,1049
2127,1111,1052
2128,1109,1046
2129,1109,1045
2130,1111,1048
2131,1114,1051
2132,1117,1047
2133,1123,1044
2134,1128,1048
2135,1129,1045
2136,1129,1046
2137,1133,1049
2138,1136,1047
2139,1137,1045
2140,1135,1042
2141,1129,1045
2142,1130,1049
2143,1130,1048
2144,1128,1044
2145,1126,1043
2146,1120,1045
2147,1115,1042
2148,1116,1041
2149,1115,1050
2150,1112,1049
2151,1111,1044
2152,1103,1042
2153,1095,1045
2154,1093,1046
2155,1092,1042
2156,1091,1044
2157,1085,1048
2158,1076,1046
2159,1065,1040
2160,1055,1045
2161,1050,1045
2162,1043,1045
2163,1043,1040
2164,1036,1041
2165,1032,1043
2166,1026,1043
2167,1026,1044
2168,1021,1046
2169,1016,1045
2170,1012,1042
2171,1009,1041
2172,1011,1044
2173,1012,1048
2174,1012,1046
2175,1009,1042
2176,1004,1042
2177,1005,1043
2178,1004,1043
2179,1002,1044
2180,1000,1046
2181,995,1047
2182,993,1043
2183,989,1042
2184,990,1044
2185,994,1048
2186,993,1044
2187,992,1042
2188,987,1043
2189,981,1043
2190,980,1044
2191,987,1045
2192,988,1046
2193,991,1042
2194,988,1041
2195,988,1042
2196,989,1049
2197,992,1050
2198,997,1046
2199,995,1046
2200,995,1045
2201,994,1044
2202,998,1043
2203,1000,1048
2204,997,1049
2205,996,1046
2206,995,1041
2207,995,1043
2208,995,1049
2209,996,1047
2210,992,1044
2211,994,1045
2212,993,1048
2213,992,1041
2214,993,1044
2215,988,1048
2216,988,1049
2217,991,1044
2218,990,1040
2219,988,1044
2220,984,1047
2221,985,1049
2222,987,1046
2223,987,1044
2224,985,1045
2225,979,1041
2226,981,1041
2227,985,1045
2228,992,1051
2229,994,1045
2230,989,1042
2231,986,1043
2232,983,1043
2233,985,1047
2234,988,1043
2235,989,1042
2236,990,1046
2237,986,1046
2238,992,1045
2239,995,1047
2240,997,1049
2241,996,1048
2242,995,1041
2243,990,1043
2244,992,1051
2245,997,1054
2246,999,1049
2247,991,1046
2248,984,1045
2249,979,1044
2250,981,1046
2251,986,1046
2252,990,1048
2253,989,1048
2254,987,1044
2255,987,1046
2256,993,1046
2257,994,1050
2258,997,1047
2259,998,1042
2260,999,1047
2261,997,1047
2262,1000,1051
2263,1004,1048
2264,1006,1050
2265,1008,1049
2266,1008,1046
2267,1005,1043
2268,1006,1047
2269,1007,1050
2270,1002,1049
2271,1000,1045
2272,998,1043
2273,993,1044
2274,997,1044
2275,997,1041
2276,999,1045
2277,996,1045
2278,993,1043
2279,989,1039
2280,994,1039
2281,991,1046
2282,991,1045
2283,992,1038
2284,987,1035
2285,981,1038
2286,982,1043
2287,989,1043
2288,995,1040
2289,994,1042
2290,990,1042
2291,988,1041
2292,994,1037
2293,994,1042
2294,997,1046
2295,993,1043
2296,990,1038
2297,985,1038
2298,987,1043
2299,987,1042
2300,990,1036
2301,990,1038
2302,988,1039
2303,987,1042
2304,987,1041
2305,985,1040
2306,982,1044
2307,982,1044
2308,984,1039
2309,989,1036
2310,991,1040
2311,991,1046
2312,987,1043
2313,982,1039
2314,976,1039
2315,975,1040
2316,975,1041
2317,976,1039
2318,981,1039
2319,987,1040
2320,999,1042
2321,1014,1038
2322,1031,1038
2323,1053,1045
2324,1071,1044
2325,1089,1039
2326,1112,1037
2327,1135,1042
2328,1163,1050
2329,1190,1051
2330,1217,1047
2331,1243,1048
2332,1255,1049
2333,1253,1046
2334,1237,1042
2335,1208,1046
2336,1156,1052
2337,1067,1052
2338,987,1048
2339,943,1051
2340,928,1055
2341,926,1054
2342,932,1050
2343,940,1048
2344,950,1050
2345,954,1050
2346,956,1050
2347,956,1048
2348,956,1048
2349,953,1050
2350,947,1044
2351,946,1041
2352,949,1043
2353,951,1048
2354,950,1048
2355,952,1042
2356,953,1041
2357,950,1040
2358,957,1043
2359,961,1042
2360,963,1038
2361,965,1040
2362,962,1044
2363,960,1041
2364,963,1042
2365,966,1045
2366,969,1044
2367,969,1041
2368,971,1036
2369,969,1037
2370,967,1042
2371,968,1046
2372,969,1042
2373,971,1041
2374,970,1041
2375,971,1043
2376,974,1040
2377,973,1041
2378,971,1044
2379,969,1045
2380,964,1043
2381,962,1038
2382,964,1043
2383,970,1047
2384,973,1044
2385,972,1040
2386,971,1037
2387,969,1043
2388,975,1046
2389,977,1045
2390,972,1044
2391,966,1046
2392,963,1046
2393,961,1042
2394,963,1040
2395,967,1046
2396,971,1049
2397,975,1049
2398,976,1045
2399,977,1044
2400,977,1047
2401,980,1051
2402,984,1045
2403,982,1042
2404,979,1045
2405,973,1048
2406,977,1046
2407,980,1045
2408,983,1049
2409,984,1048
2410,984,1044
2411,982,1043
2412,977,1046
2413,974,1050
2414,974,1049
2415,977,1047
2416,981,1046
2417,982,1046
2418,984,1045
2419,985,1047
2420,988,1047
2421,987,1049
2422,988,1048
2423,987,1043
2424,993,1049
2425,996,1052
2426,1000,1049
2427,995,1043
2428,987,1043
2429,977,1047
2430,979,1052
2431,985,1049
2432,993,1049
2433,995,1051
2434,999,1050
2435,999,1046
2436,1000,1045
2437,1000,1053
2438,999,1052
2439,997,1047
2440,997,1048
2441,994,1048
2442,997,1047
2443,999,1045
2444,1000,1048
2445,1003,1050
2446,1004,1046
2447,1003,1043
2448,1000,1046
2449,996,1048
2450,997,1044
2451,994,1039
2452,994,1041
2453,991,1045
2454,992,1045
2455,994,1040
2456,991,1044
2457,987,1046
2458,987,1038
2459,985,1038
2460,986,1043
2461,986,1046
2462,984,1043
2463,982,1039
2464,978,1039
2465,978,1042
2466,983,1040
2467,988,1036
2468,987,1038
2469,989,1042
2470,989,1041
2471,986,1036
2472,986,1039
2473,978,1045
2474,969,1041
2475,965,1037
2476,966,1036
2477,969,1039
2478,974,1043
2479,981,1039
2480,988,1040
2481,987,1041
2482,990,1037
2483,990,1036
2484,998,1039
2485,1004,1043
2486,1011,1042
2487,1015,1037
2488,1013,1038
2489,1015,1038
2490,1018,1036
2491,1019,1032
2492,1024,1032
2493,1028,1033
2494,1026,1028
2495,1018,1024
2496,1007,1024
2497,985,1025
2498,935,1018
2499,857,1012
2500,772,1013
2501,697,1017
2502,635,1016
2503,598,1015
2504,589,1018
2505,589,1021
2506,593,1015
2507,598,1013
2508,610,1022
2509,627,1029
2510,648,1028
2511,670,1027
2512,692,1033
2513,715,1037
2514,745,1037
2515,782,1038
2516,807,1040
2517,823,1045
2518,834,1041
2519,844,1038
2520,855,1044
2521,869,1047
2522,882,1043
2523,890,1040
2524,897,1040
2525,906,1045
2526,920,1043
2527,933,1041
2528,944,1044
2529,955,1047
2530,974,1042
2531,991,1038
2532,1006,1046
2533,1018,1053
2534,1032,1050
2535,1043,1047
2536,1052,1049
2537,1056,1051
2538,1059,1050
2539,1067,1050
2540,1072,1052
2541,1079,1055
2542,1079,1051
2543,1081,1051
2544,1087,1057
2545,1088,1060
2546,1092,1052
2547,1095,1052
2548,1100,1054
2549,1101,1053
2550,1104,1053
2551,1109,1054
2552,1117,1058
2553,1123,1057
2554,1125,1050
2555,1127,1052
2556,1135,1058
2557,1144,1061
2558,1149,1055
2559,1150,1057
2560,1150,1057
2561,1153,1054
2562,1155,1052
2563,1162,1057
2564,1166,1058
2565,1168,1057
2566,1168,1052
2567,1167,1053
2568,1168,1060
2569,1171,1060
2570,1171,1057
2571,1175,1055
2572,1172,1058
2573,1170,1056
2574,1172,1056
2575,1176,1059
2576,1178,1063
2577,1174,1059
2578,1170,1053
2579,1166,1055
2580,1164,1059
2581,1162,1062
2582,1160,1057
2583,1156,1058
2584,1151,1058
2585,1144,1055
2586,1139,1054
2587,1133,1057
2588,1123,1058
2589,1115,1057
2590,1112,1052
2591,1108,1055
2592,1103,1059
2593,1100,1056
2594,1097,1052
2595,1095,1052
2596,1087,1056
2597,1080,1053
2598,1074,1051
2599,1072,1055
2600,1070,1058
2601,1067,1053
2602,1063,1047
2603,1060,1049
2604,1056,1054
2605,1054,1057
2606,1049,1052
2607,1047,1052
2608,1042,1054
2609,1035,1051
2610,1032,1049
2611,1026,1049
2612,1021,1053
2613,1017,1053
2614,1016,1046
2615,1015,1049
2616,1015,1054
2617,1018,1053
2618,1016,1047
2619,1018,1048
2620,1016,1050
2621,1014,1051
2622,1014,1047
2623,1013,1051
2624,1011,1054
2625,1011,1053
2626,1011,1046
2627,1010,1044
2628,1008,1049
2629,1003,1054
2630,1003,1050
2631,1003,1044
2632,1001,1047
2633,1003,1047
2634,1007,1045
2635,1007,1044
2636,1005,1048
2637,1006,1049
2638,1002,1044
2639,1000,1041
2640,1000,1046
2641,1000,1049
2642,1003,1046
2643,1002,1042
2644,1001,1044
2645,997,1045
2646,996,1046
2647,999,1047
2648,1000,1046
2649,1002,1045
2650,998,1041
2651,996,1037
2652,993,1043
2653,993,1048
2654,993,1047
2655,992,1040
2656,989,1037
2657,985,1043
2658,988,1045
2659,990,1041
2660,993,1039
2661,996,1043
2662,998,1043
2663,996,1040
2664,992,1038
2665,989,1042
2666,986,1045
2667,982,1043
2668,984,1035
2669,988,1038
2670,990,1048
2671,988,1046
2672,990,1043
2673,987,1041
2674,988,1044
2675,985,1044
2676,987,1039
2677,988,1041
2678,989,1044
2679,987,1045
2680,984,1039
2681,979,1039
2682,979,1042
2683,983,1050
2684,987,1044
2685,986,1039
2686,985,1039
2687,987,1044
2688,990,1045
2689,990,1041
2690,986,1039
2691,982,1047
2692,980,1046
2693,979,1041
2694,984,1039
2695,987,1044
2696,988,1047
2697,982,1045
2698,981,1039
2699,982,1040
2700,985,1044
2701,983,1047
2702,981,1040
2703,983,1041
2704,985,1043
2705,984,1047
2706,982,1044
2707,981,1043
2708,981,1046
2709,983,1049
2710,985,1045
2711,983,1040
2712,988,1043
2713,991,1051
2714,992,1050
2715,998,1047
2716,998,1044
2717,997,1049
2718,999,1050
2719,995,1045
2720,993,1047
2721,987,1047
2722,984,1046
2723,982,1046
2724,983,1044
2725,985,1046
2726,986,1049
2727,986,1045
2728,987,1039
2729,987,1040
2730,990,1046
2731,988,1047
2732,988,1042
2733,987,1039
2734,988,1042
2735,986,1045
2736,980,1043
2737,973,1043
2738,972,1043
2739,970,1048
2740,971,1047
2741,976,1042
2742,978,1043
2743,983,1046
2744,982,1048
2745,976,1044
2746,972,1041
2747,971,1041
2748,970,1046
2749,973,1047
2750,972,1042
2751,971,1044
2752,969,1045
2753,971,1047
2754,973,1041
2755,977,1042
2756,975,1046
2757,972,1046
2758,972,1042
2759,970,1040
2760,973,1043
2761,978,1050
2762,978,1047
2763,975,1039
2764,976,1041
2765,972,1040
2766,970,1045
2767,968,1042
2768,967,1038
2769,966,1041
2770,965,1043
2771,966,1040
2772,973,1037
2773,984,1039
2774,1000,1042
2775,1014,1044
2776,1027,1038
2777,1042,1038
2778,1060,1039
2779,1077,1047
2780,1098,1046
2781,1120,1041
2782,1143,1040
2783,1165,1046
2784,1182,1048
2785,1194,1045
2786,1195,1043
2787,1183,1047
2788,1161,1049
2789,1127,1048
2790,1080,1048
2791,1027,1052
2792,981,1057
2793,946,1055
2794,925,1049
2795,913,1052
2796,916,1059
2797,927,1057
2798,934,1051
2799,936,1047
2800,938,1048
2801,935,1049
2802,938,1048
2803,941,1045
2804,944,1046
2805,944,1047
2806,943,1044
2807,940,1039
2808,943,1039
2809,945,1045
2810,947,1045
2811,949,1038
2812,945,1034
2813,942,1034
2814,943,1042
2815,951,1045
2816,957,1039
2817,960,1036
2818,957,1039
2819,956,1042
2820,956,1041
2821,957,1039
2822,956,1039
2823,957,1042
2824,955,1043
2825,954,1038
2826,955,1036
2827,957,1039
2828,958,1042
2829,960,1040
2830,958,1034
2831,957,1034
2832,958,1041
2833,958,1044
2834,960,1042
2835,962,1035
2836,963,1033
2837,963,1038
2838,962,1040
2839,962,1039
2840,965,1035
2841,964,1040
2842,961,1040
2843,960,1037
2844,958,1037
2845,961,1038
2846,960,1039
2847,960,1036
2848,959,1031
2849,962,1030
2850,965,1037
2851,967,1040
2852,968,1038
2853,964,1034
2854,964,1031
2855,967,1035
2856,970,1038
2857,975,1039
2858,976,1035
2859,972,1038
2860,971,1040
2861,968,1040
2862,970,1038
2863,968,1039
2864,966,1042
2865,966,1040
2866,965,1038
2867,970,1035
2868,974,1040
2869,977,1045
2870,979,1044
2871,975,1041
2872,968,1040
2873,967,1041
2874,968,1041
2875,972,1040
2876,975,1040
2877,976,1043
2878,974,1042
2879,973,1043
2880,976,1039
2881,979,1043
2882,979,1045
2883,978,1045
2884,976,1039
2885,977,1036
2886,978,1040
2887,983,1044
2888,985,1046
2889,985,1041
2890,986,1038
2891,985,1040
2892,984,1043
2893,983,1042
2894,986,1040
2895,982,1040
2896,981,1042
2897,980,1045
2898,979,1046
2899,983,1042
2900,986,1045
2901,985,1045
2902,985,1044
2903,983,1039
2904,981,1042
2905,988,1045
2906,988,1047
2907,986,1048
2908,986,1043
2909,986,1043
2910,987,1044
2911,991,1048
2912,991,1050
2913,986,1044
2914,980,1041
2915,978,1042
2916,984,1048
2917,983,1050
2918,987,1046
2919,984,1046
2920,981,1047
2921,976,1047
2922,980,1049
2923,982,1046
2924,985,1046
2925,980,1047
2926,970,1048
2927,970,1045
2928,971,1046
2929,975,1050
2930,975,1049
2931,976,1047
2932,973,1043
2933,971,1041
2934,971,1047
2935,972,1052
2936,973,1050
2937,978,1045
2938,974,1046
2939,972,1047
2940,971,1048
2941,972,1047
2942,973,1044
2943,971,1046
2944,971,1046
2945,969,1048
2946,969,1047
2947,970,1048
2948,967,1048
2949,965,1046
2950,965,1044
2951,965,1040
2952,966,1043
2953,974,1049
2954,981,1049
2955,982,1046
2956,982,1042
2957,979,1043
2958,983,1048
2959,987,1049
2960,992,1044
2961,998,1041
2962,998,1041
2963,997,1046
2964,998,1045
2965,1002,1044
2966,1010,1043
2967,1012,1040
2968,1013,1039
2969,1017,1038
2970,1030,1033
2971,1047,1033
2972,1056,1037
2973,1056,1035
2974,1048,1031
2975,1046,1031
2976,1044,1030
2977,1039,1034
2978,1023,1033
2979,992,1026
2980,938,1020
2981,860,1023
2982,784,1030
2983,719,1035
2984,675,1031
2985,651,1028
2986,642,1026
2987,633,1032
2988,631,1032
2989,636,1031
2990,642,1031
2991,644,1030
2992,646,1036
2993,650,1039
2994,667,1038
2995,690,1043
2996,719,1044
2997,733,1045
2998,740,1042
2999,750,1039
3000,764,1042
3001,786,1048
3002,809,1051
3003,826,1049
3004,835,1045
3005,846,1043
3006,859,1046
3007,868,1051
3008,877,1043
3009,884,1040
3010,894,1039
3011,903,1042
3012,914,1045
3013,919,1043
3014,922,1039
3015,922,1043
3016,924,1042
3017,926,1041
3018,934,1040
3019,941,1038
3020,946,1039
3021,957,1041
3022,966,1042
3023,978,1041
3024,992,1040
3025,1005,1044
3026,1018,1047
3027,1026,1045
3028,1030,1039
3029,1035,1037
3030,1042,1043
3031,1048,1046
3032,1053,1047
3033,1056,1046
3034,1059,1047
3035,1057,1046
3036,1059,1043
3037,1063,1042
3038,1071,1044
3039,1074,1046
3040,1075,1047
3041,1072,1045
3042,1078,1046
3043,1080,1047
3044,1084,1050
3045,1090,1047
3046,1095,1041
3047,1098,1039
3048,1102,1046
3049,1103,1052
3050,1106,1051
3051,1109,1045
3052,1110,1043
3053,1118,1044
3054,1121,1050
3055,1128,1050
3056,1132,1044
3057,1131,1043
3058,1131,1048
3059,1133,1052
3060,1138,1050
3061,1142,1047
3062,1147,1047
3063,1146,1050
3064,1148,1049
3065,1146,1048
3066,1147,1045
3067,1150,1044
3068,1151,1046
3069,1151,1049
3070,1155,1050
3071,1156,1044
3072,1156,1044
3073,1156,1048
3074,1155,1052
3075,1153,1049
3076,1146,1042
3077,1142,1041
3078,1145,1047
3079,1147,1051
3080,1149,1052
3081,1148,1046
3082,1142,1045
3083,1136,1051
3084,1137,1054
3085,1136,1052
3086,1136,1045
3087,1130,1041
3088,1123,1046
3089,1119,1049
3090,1117,1047
3091,1119,1047
3092,1118,1046
3093,1112,1048
3094,1108,1049
3095,1102,1046
3096,1101,1045
3097,1096,1046
3098,1094,1048
3099,1087,1049
3100,1080,1044
3101,1073,1045
3102,1069,1046
3103,1067,1052
3104,1062,1051
3105,1057,1048
3106,1054,1041
3107,1048,1042
3108,1046,1050
3109,1041,1054
3110,1040,1049
3111,1034,1043
3112,1030,1042
3113,1026,1046
3114,1025,1051
3115,1025,1049
3116,1024,1045
3117,1025,1041
3118,1021,1041
3119,1014,1046
3120,1009,1047
3121,1004,1046
3122,1003,1043
3123,1007,1045
3124,1012,1047
3125,1012,1048
3126,1015,1046
3127,1014,1044
3128,1014,1044
3129,1014,1048
3130,1010,1049
3131,1009,1044
3132,1008,1044
3133,1005,1048
3134,1003,1052
3135,1007,1051
3136,1006,1046
3137,1003,1042
3138,1004,1045
3139,1004,1052
3140,1007,1051
3141,1006,1047
3142,1002,1042
3143,1000,1044
3144,1002,1050
3145,1007,1053
3146,1009,1048
3147,1007,1042
3148,1004,1043
3149,998,1048
3150,998,1049
3151,996,1048
3152,995,1047
3153,995,1049
3154,995,1048
3155,994,1047
3156,994,1044
3157,994,1044
3158,997,1044
3159,998,1046
3160,997,1041
3161,996,1043
3162,998,1049
3163,1000,1052
3164,1000,1048
3165,1000,1044
3166,1000,1044
3167,997,1047
3168,996,1046
3169,994,1047
3170,998,1046
3171,1000,1047
3172,1000,1047
3173,999,1048
3174,996,1043
3175,992,1045
3176,988,1045
3177,983,1047
3178,978,1044
3179,983,1042
3180,984,1042
3181,986,1048
3182,985,1049
3183,986,1046
3184,982,1042
3185,976,1042
3186,976,1048
3187,977,1051
3188,982,1045
3189,986,1043
3190,987,1044
3191,984,1047
3192,984,1048
3193,984,1045
3194,989,1044
3195,990,1047
3196,987,1046
3197,982,1042
3198,980,1042
3199,981,1047
3200,980,1049
3201,978,1047
3202,976,1039
3203,977,1040
3204,979,1045
3205,984,1047
3206,989,1042
3207,989,1040
3208,989,1042
3209,987,1044
3210,987,1045
3211,989,1042
3212,989,1042
3213,985,1044
3214,979,1044
3215,975,1039
3216,978,1039
3217,982,1044
3218,984,1047
3219,986,1044
3220,984,1039
3221,983,1037
3222,982,1044
3223,981,1044
3224,981,1041
3225,980,1038
3226,982,1042
3227,989,1044
3228,995,1044
3229,999,1042
3230,997,1043
3231,996,1044
3232,995,1041
3233,993,1037
3234,994,1043
3235,994,1048
3236,995,1048
3237,996,1041
3238,991,1040
3239,988,1041
3240,991,1042
3241,992,1041
3242,993,1039
3243,989,1044
3244,983,1043
3245,979,1039
3246,982,1039
3247,987,1045
3248,989,1044
3249,989,1042
3250,984,1036
3251,979,1037
3252,978,1043
3253,981,1045
3254,982,1039
3255,982,1039
3256,983,1041
3257,984,1040
3258,990,1038
3259,994,1037
3260,994,1042
3261,990,1046
3262,986,1038
3263,980,1038
3264,983,1040
3265,982,1043
3266,983,1041
3267,984,1039
3268,982,1040
3269,980,1044
3270,977,1041
3271,974,1040
3272,975,1042
3273,972,1043
3274,967,1039
3275,967,1039
3276,970,1040
3277,973,1044
3278,978,1043
3279,985,1041
3280,988,1040
3281,987,1042
3282,988,1041
3283,984,1042
3284,985,1042
3285,986,1043
3286,982,1041
3287,978,1037
3288,983,1040
3289,993,1043
3290,1009,1042
3291,1026,1038
3292,1043,1035
3293,1060,1040
3294,1078,1044
3295,1095,1043
3296,1115,1040
3297,1136,1043
3298,1159,1044
3299,1181,1042
3300,1205,1042
3301,1225,1048
3302,1230,1051
3303,1223,1049
3304,1199,1044
3305,1149,1048
3306,1068,1055
3307,990,1055
3308,946,1054
3309,935,1055
3310,929,1060
3311,929,1057
3312,940,1055
3313,950,1057
3314,955,1055
3315,957,1055
3316,956,1049
3317,951,1050
3318,948,1054
3319,946,1054
3320,944,1050
3321,945,1046
3322,948,1047
3323,947,1043
3324,947,1040
3325,945,1042
3326,949,1045
3327,958,1045
3328,964,1041
3329,965,1040
3330,959,1043
3331,955,1044
3332,954,1042
3333,956,1040
3334,960,1039
3335,967,1042
3336,970,1046
3337,971,1044
3338,970,1045
3339,972,1043
3340,965,1041
3341,961,1040
3342,960,1042
3343,961,1047
3344,965,1047
3345,967,1042
3346,969,1042
3347,967,1041
3348,969,1043
3349,970,1042
3350,971,1041
3351,971,1043
3352,970,1043
3353,969,1040
3354,968,1041
3355,972,1043
3356,972,1044
3357,973,1042
3358,972,1038
3359,969,1038
3360,972,1043
3361,973,1045
3362,974,1043
3363,972,1040
3364,971,1040
3365,971,1039
3366,968,1037
3367,969,1039
3368,971,1044
3369,974,1043
3370,976,1035
3371,980,1037
3372,986,1040
3373,988,1042
3374,982,1035
3375,968,1035
3376,953,1036
3377,953,1040
3378,964,1041
3379,971,1040
3380,974,1040
3381,966,1039
3382,958,1033
3383,959,1032
3384,968,1038
3385,971,1043
3386,974,1041
3387,974,1037
3388,975,1036
3389,974,1038
3390,974,1036
3391,974,1035
3392,976,1036
3393,977,1039
3394,977,1038
3395,978,1036
3396,985,1035
3397,987,1042
3398,991,1041
3399,992,1036
3400,989,1032
3401,987,1036
3402,991,1040
3403,997,1039
3404,997,1035
3405,1000,1035
3406,996,1039
3407,994,1035
3408,996,1033
3409,997,1032
3410,994,1038
3411,990,1040
3412,991,1035
3413,988,1034
3414,989,1038
3415,992,1041
3416,994,1040
3417,991,1034
3418,993,1033
3419,993,1037
3420,994,1042
3421,995,1045
3422,995,1039
3423,995,1039
3424,995,1039
3425,994,1038
3426,991,1036
3427,989,1039
3428,992,1040
3429,991,1045
3430,986,1039
3431,987,1038
3432,986,1044
3433,986,1043
3434,987,1041
3435,988,1039
3436,983,1036
3437,983,1040
3438,982,1041
3439,982,1039
3440,983,1039
3441,980,1043
3442,981,1038
3443,980,1035
3444,984,1034
3445,984,1038
3446,985,1042
3447,983,1040
3448,978,1036
3449,977,1037
3450,978,1042
3451,982,1041
3452,980,1039
3453,979,1035
3454,977,1038
3455,976,1041
3456,982,1040
3457,986,1042
3458,998,1041
3459,1003,1040
3460,1008,1039
3461,1010,1038
3462,1013,1038
3463,1019,1042
3464,1023,1045
3465,1026,1039
3466,1024,1035
3467,1020,1036
3468,1022,1038
3469,1030,1036
3470,1036,1028
3471,1035,1023
3472,1021,1025
3473,999,1023
3474,971,1020
3475,918,1018
3476,843,1017
3477,762,1017
3478,687,1012
3479,626,1006
3480,587,1012
3481,572,1018
3482,572,1017
3483,574,1016
3484,575,1016
3485,583,1018
3486,596,1022
3487,608,1019
3488,623,1019
3489,643,1023
3490,661,1027
3491,680,1034
3492,696,1034
3493,724,1036
3494,758,1038
3495,784,1044
3496,809,1038
3497,821,1034
3498,835,1036
3499,843,1041
3500,856,1043
3501,870,1038
3502,879,1034
3503,886,1038
3504,894,1041
3505,902,1040
3506,916,1037
3507,928,1035
3508,935,1037
3509,945,1037
3510,956,1038
3511,973,1042
3512,992,1041
3513,1005,1037
3514,1015,1034
3515,1023,1036
3516,1034,1042
3517,1044,1047
3518,1053,1044
3519,1057,1042
3520,1058,1043
3521,1063,1044
3522,1068,1042
3523,1071,1041
3524,1076,1045
3525,1081,1046
3526,1086,1042
3527,1087,1043
3528,1091,1048
3529,1093,1051
3530,1096,1046
3531,1098,1043
3532,1101,1042
3533,1103,1047
3534,1105,1049
3535,1112,1048
3536,1118,1049
3537,1122,1050
3538,1124,1046
3539,1128,1043
3540,1129,1046
3541,1132,1049
3542,1140,1050
3543,1145,1048
3544,1146,1044
3545,1147,1045
3546,1152,1050
3547,1156,1049
3548,1159,1046
3549,1161,1045
3550,1161,1049
3551,1158,1047
3552,1161,1044
3553,1164,1049
3554,1165,1052
3555,1165,1049
3556,1164,1043
3557,1164,1044
3558,1165,1050
3559,1163,1050
3560,1164,1048
3561,1164,1046
3562,1161,1048
3563,1155,1046
3564,1155,1042
3565,1151,1042
3566,1150,1047
3567,1148,1046
3568,1140,1043
3569,1133,1042
3570,1129,1046
3571,1122,1047
3572,1118,1043
3573,1110,1041
3574,1101,1043
3575,1093,1043
3576,1085,1043
3577,1082,1043
3578,1078,1047
3579,1074,1044
3580,1065,1039
3581,1057,1036
3582,1052,1042
3583,1049,1046
3584,1050,1042
3585,1047,1041
3586,1044,1041
3587,1036,1041
3588,1032,1037
3589,1032,1039
3590,1031,1042
3591,1029,1043
3592,1023,1038
3593,1012,1037
3594,1008,1043
3595,1007,1045
3596,1009,1040
3597,1006,1038
3598,1002,1040
3599,998,1043
3600,1000,1040
3601,994,1041
3602,995,1042
3603,995,1044
3604,992,1041
3605,992,1041
3606,994,1042
3607,994,1041
3608,994,1036
3609,992,1039
3610,986,1038
3611,987,1035
3612,987,1032
3613,988,1037
3614,989,1038
3615,988,1034
3616,986,1029
3617,980,1033
3618,980,1038
3619,979,1036
3620,981,1030
3621,985,1032
3622,985,1037
3623,982,1034
3624,981,1032
3625,978,1036
3626,980,1039
3627,980,1035
3628,981,1030
3629,976,1033
3630,976,1037
3631,976,1036
3632,975,1032
3633,975,1034
3634,975,1032
3635,973,1030
3636,974,1031
3637,974,1036
3638,975,1037
3639,976,1034
3640,973,1032
3641,970,1035
3642,969,1034
3643,969,1033
3644,969,1031
3645,967,1036
3646,968,1031
3647,968,1026
3648,969,1030
3649,968,1036
3650,964,1032
3651,963,1025
3652,967,1027
3653,968,1031
3654,968,1031
3655,966,1029
3656,968,1032
3657,965,1034
3658,966,1030
3659,965,1025
3660,968,1028
3661,966,1035
3662,967,1033
3663,966,1029
3664,966,1028
3665,963,1032
3666,966,1031
3667,965,1029
3668,969,1031
3669,968,1034
3670,964,1028
3671,962,1028
3672,963,1035
3673,964,1037
3674,964,1032
3675,965,1030
3676,962,1033
3677,961,1033
3678,964,1030
3679,969,1034
3680,970,1035
3681,974,1035
3682,973,1031
3683,971,1032
3684,974,1039
3685,978,1040
3686,980,1036
3687,979,1036
3688,975,1040
3689,973,1035
3690,974,1036
3691,974,1039
3692,977,1040
3693,972,1039
3694,971,1035
3695,968,1037
3696,966,1038
3697,968,1036
3698,967,1039
3699,963,1037
3700,960,1035
3701,960,1032
3702,959,1036
3703,960,1042
3704,962,1036
3705,967,1033
3706,966,1037
3707,961,1038
3708,956,1036
3709,955,1036
3710,962,1042
3711,962,1038
3712,959,1035
3713,956,1033
3714,958,1040
3715,958,1041
3716,962,1038
3717,963,1035
3718,960,1037
3719,958,1037
3720,957,1033
3721,957,1038
3722,957,1039
3723,958,1037
3724,950,1033
3725,946,1035
3726,945,1039
3727,949,1036
3728,959,1034
3729,974,1034
3730,988,1035
3731,1006,1032
3732,1024,1034
3733,1051,1039
3734,1070,1039
3735,1091,1034
3736,1109,1033
3737,1127,1036
3738,1145,1037
3739,1149,1037
3740,1137,1039
3741,1116,1044
3742,1090,1039
3743,1046,1038
3744,989,1045
3745,942,1051
3746,915,1049
3747,898,1047
3748,894,1048
3749,898,1050
3750,910,1046
3751,920,1045
3752,928,1046
3753,927,1047
3754,928,1044
3755,932,1042
3756,936,1046
3757,936,1048
3758,934,1041
3759,931,1038
3760,928,1039
3761,926,1035
3762,930,1032
3763,935,1036
3764,940,1040
3765,943,1038
3766,941,1030
3767,941,1032
3768,941,1037
3769,942,1036
3770,944,1032
3771,949,1030
3772,944,1034
3773,944,1034
3774,943,1031
3775,948,1036
3776,949,1039
3777,954,1038
3778,952,1030
3779,949,1033
3780,950,1037
3781,950,1039
3782,951,1034
3783,951,1035
3784,947,1036
3785,944,1033
3786,944,1029
3787,948,1036
3788,948,1038
3789,948,1037
3790,950,1031
3791,951,1030
3792,952,1038
3793,950,1038
3794,953,1034
3795,955,1031
3796,952,1035
3797,952,1038
3798,953,1035
3799,955,1032
3800,958,1033
3801,958,1035
3802,958,1031
3803,957,1029
3804,956,1033
3805,958,1037
3806,957,1035
3807,954,1034
3808,954,1031
3809,952,1035
3810,955,1036
3811,961,1033
3812,966,1032
3813,965,1034
3814,963,1035
3815,962,1031
3816,960,1032
3817,963,1035
3818,964,1035
3819,965,1032
3820,965,1029
3821,965,1033
3822,965,1039
3823,965,1038
3824,966,1035
3825,965,1033
3826,965,1033
3827,965,1034
3828,970,1033
3829,970,1038
3830,972,1040
3831,972,1038
3832,968,1032
3833,968,1032
3834,971,1036
3835,975,1040
3836,978,1038
3837,978,1034
3838,977,1036
3839,976,1040
3840,976,1040
3841,975,1040
3842,976,1037
3843,977,1042
3844,976,1038
3845,974,1035
3846,974,1036
3847,977,1045
3848,976,1045
3849,975,1042
3850,973,1038
3851,971,1039
3852,968,1042
3853,970,1042
3854,970,1039
3855,975,1042
3856,972,1041
3857,969,1041
3858,966,1041
3859,967,1046
3860,967,1045
3861,966,1042
3862,964,1039
3863,965,1040
3864,969,1044
3865,972,1045
3866,972,1042
3867,972,1044
3868,969,1043
3869,966,1041
3870,967,1040
3871,968,1040
3872,966,1044
3873,966,1044
3874,962,1040
3875,957,1038
3876,959,1041
3877,960,1041
3878,960,1036
3879,958,1036
3880,957,1039
3881,954,1039
3882,956,1037
3883,957,1037
3884,958,1039
3885,959,1037
3886,959,1032
3887,958,1030
3888,957,1035
3889,958,1038
3890,956,1037
3891,954,1032
3892,955,1033
3893,953,1033
3894,955,1035
3895,957,1034
3896,957,1038
3897,958,1038
3898,955,1032
3899,954,1032
3900,954,1035
3901,956,1037
3902,959,1033
3903,959,1032
3904,958,1034
3905,958,1037
3906,962,1039
3907,963,1036
3908,962,1038
3909,964,1038
3910,965,1033
3911,966,1033
3912,968,1038
3913,971,1041
3914,973,1038
3915,974,1036
3916,975,1034
3917,976,1037
3918,977,1038
3919,977,1037
3920,976,1038
3921,972,1041
3922,969,1032
3923,965,1033
3924,966,1037
3925,965,1036
3926,966,1032
3927,968,1032
3928,967,1035
3929,966,1035
3930,963,1032
3931,962,1033
3932,963,1032
3933,964,1031
3934,962,1024
3935,961,1027
3936,963,1029
3937,965,1029
3938,969,1029
3939,967,1030
3940,965,1027
3941,962,1023
3942,961,1024
3943,956,1028
3944,955,1028
3945,955,1024
3946,957,1022
3947,956,1024
3948,959,1022
3949,961,1020
3950,963,1023
3951,960,1028
3952,958,1024
3953,955,1020
3954,957,1023
3955,964,1030
3956,965,1025
3957,967,1024
3958,966,1023
3959,963,1027
3960,965,1025
3961,962,1027
3962,958,1028
3963,954,1025
3964,954,1021
3965,961,1020
3966,974,1026
3967,994,1026
3968,1016,1024
3969,1040,1023
3970,1063,1024
3971,1081,1019
3972,1101,1021
3973,1123,1027
3974,1149,1032
3975,1169,1031
3976,1182,1025
3977,1172,1028
3978,1150,1031
3979,1129,1029
3980,1091,1028
3981,1029,1034
3982,966,1039
3983,922,1034
3984,905,1039
3985,903,1046
3986,910,1044
3987,923,1036
3988,932,1032
3989,931,1036
3990,936,1038
3991,941,1040
3992,944,1039
3993,945,1037
3994,942,1035
3995,937,1030
3996,935,1028
3997,935,1037
3998,936,1032
3999,934,1030
4000,935,1028
4001,935,1033
4002,942,1030
4003,949,1029
4004,951,1029
4005,947,1033
4006,944,1030
4007,938,1028
4008,941,1030
4009,944,1032
4010,946,1028
4011,945,1026
4012,944,1026
4013,943,1030
4014,946,1028
4015,948,1028
4016,948,1029
4017,949,1031
4018,948,1027
4019,945,1022
4020,947,1027
4021,950,1032
4022,949,1031
4023,949,1031
4024,946,1028
4025,947,1030
4026,951,1031
4027,954,1027
4028,957,1028
4029,956,1032
4030,954,1034
4031,957,1029
4032,961,1030
4033,964,1036
4034,970,1033
4035,971,1028
4036,966,1028
4037,963,1030
4038,966,1034
4039,968,1032
4040,972,1032
4041,971,1034
4042,968,1030
4043,971,1025
4044,974,1028
4045,978,1034
4046,979,1036
4047,976,1033
4048,973,1032
4049,975,1032
4050,978,1033
4051,982,1032
4052,982,1030
4053,980,1034
4054,980,1034
4055,979,1032
4056,982,1031
4057,989,1038
4058,996,1036
4059,997,1031
4060,996,1027
4061,997,1027
4062,998,1035
4063,997,1037
4064,996,1032
4065,997,1035
4066,997,1034
4067,993,1033
4068,991,1031
4069,991,1032
4070,991,1038
4071,989,1039
4072,988,1035
4073,985,1034
4074,984,1039
4075,984,1039
4076,983,1032
4077,984,1032
4078,979,1036
4079,980,1035
4080,979,1034
4081,977,1033
4082,976,1040
4083,976,1039
4084,974,1031
4085,973,1028
4086,976,1033
4087,976,1039
4088,975,1036
4089,973,1031
4090,970,1030
4091,967,1034
4092,965,1033
4093,965,1031
4094,966,1029
4095,966,1035
4096,966,1030
4097,963,1029
4098,964,1027
4099,964,1034
4100,967,1036
4101,964,1031
4102,965,1026
4103,963,1029
4104,961,1037
4105,963,1037
4106,962,1030
4107,960,1031
4108,958,1033
4109,956,1032
4110,957,1030
4111,958,1031
4112,957,1035
4113,955,1036
4114,954,1029
4115,952,1031
4116,951,1036
4117,951,1038
4118,953,1032
4119,950,1032
4120,951,1035
4121,946,1034
4122,947,1034
4123,949,1032
4124,951,1038
4125,951,1036
4126,953,1031
4127,953,1028
4128,953,1032
4129,953,1039
4130,954,1036
4131,955,1034
4132,956,1033
4133,955,1038
4134,957,1039
4135,958,1037
4136,956,1033
4137,954,1037
4138,951,1036
4139,949,1035
4140,947,1032
4141,946,1036
4142,948,1040
4143,948,1039
4144,949,1028
4145,949,1029
4146,949,1034
4147,950,1039
4148,950,1036
4149,951,1034
4150,949,1036
4151,947,1037
4152,951,1035
4153,953,1031
4154,956,1032
4155,956,1038
4156,959,1035
4157,962,1032
4158,965,1037
4159,964,1041
4160,964,1039
4161,958,1035
4162,954,1030
4163,947,1034
4164,945,1040
4165,946,1040
4166,946,1037
4167,946,1037
4168,940,1040
4169,940,1037
4170,944,1033
4171,948,1035
4172,949,1038
4173,949,1041
4174,947,1035
4175,948,1036
4176,949,1039
4177,951,1041
4178,954,1035
4179,954,1032
4180,954,1034
4181,951,1036
4182,952,1036
4183,952,1035
4184,949,1039
4185,947,1040
4186,943,1035
4187,941,1028
4188,940,1032
4189,948,1037
4190,959,1037
4191,973,1032
4192,983,1032
4193,999,1035
4194,1021,1037
4195,1042,1033
4196,1063,1033
4197,1082,1036
4198,1102,1038
4199,1124,1033
4200,1147,1035
4201,1157,1041
4202,1153,1039
4203,1132,1036
4204,1109,1034
4205,1088,1036
4206,1059,1045
4207,1013,1049
4208,965,1044
4209,931,1047
4210,907,1049
4211,896,1047
4212,900,1045
4213,908,1047
4214,920,1050
4215,926,1048
4216,927,1044
4217,929,1042
4218,935,1047
4219,939,1049
4220,941,1044
4221,937,1041
4222,933,1041
4223,932,1043
4224,930,1039
4225,926,1039
4226,930,1040
4227,933,1039
4228,935,1033
4229,938,1030
4230,938,1037
4231,936,1040
4232,939,1035
4233,939,1033
4234,939,1037
4235,939,1034
4236,941,1032
4237,941,1034
4238,942,1038
4239,944,1037
4240,942,1032
4241,942,1032
4242,943,1035
4243,946,1032
4244,947,1027
4245,951,1029
4246,951,1032
4247,949,1028
4248,948,1029
4249,946,1033
4250,950,1031
4251,951,1029
4252,950,1026
4253,947,1030
4254,948,1031
4255,949,1026
4256,951,1027
4257,951,1035
4258,951,1030
4259,952,1026
4260,958,1029
4261,957,1036
4262,961,1031
4263,963,1028
4264,964,1030
4265,964,1032
4266,967,1028
4267,972,1030
4268,974,1033
4269,975,1030
4270,975,1025
4271,975,1027
4272,978,1032
4273,982,1031
4274,984,1028
4275,985,1032
4276,983,1031
4277,980,1026
4278,984,1027
4279,988,1034
4280,997,1031
4281,997,1027
4282,999,1027
4283,996,1030
4284,991,1029
4285,990,1028
4286,987,1032
4287,993,1034
4288,997,1025
4289,992,1025
4290,986,1030
4291,981,1031
4292,977,1030
4293,978,1033
4294,978,1033
4295,975,1029
4296,976,1031
4297,975,1037
4298,975,1035
4299,975,1030
4300,976,1029
4301,972,1034
4302,973,1032
4303,974,1030
4304,973,1032
4305,971,1032
4306,967,1030
4307,965,1026
4308,968,1033
4309,969,1037
4310,973,1033
4311,974,1030
4312,971,1032
4313,967,1031
4314,966,1029
4315,967,1029
4316,968,1033
4317,966,1036
4318,964,1028
4319,963,1029
4320,963,1035
4321,965,1037
4322,967,1033
4323,968,1032
4324,967,1035
4325,962,1035
4326,959,1031
4327,961,1035
4328,965,1037
4329,965,1035
4330,962,1029
4331,958,1032
4332,956,1033
4333,956,1035
4334,955,1033
4335,953,1037
4336,953,1035
4337,952,1031
4338,953,1032
4339,957,1039
4340,959,1039
4341,960,1032
4342,961,1033
4343,961,1034
4344,962,1037
4345,964,1038
4346,966,1036
4347,964,1041
4348,962,1040
4349,961,1033
4350,965,1034
4351,966,1039
4352,971,1039
4353,968,1033
4354,968,1034
4355,966,1037
4356,965,1038
4357,963,1034
4358,964,1037
4359,960,1037
4360,961,1036
4361,960,1032
4362,963,1034
4363,966,1041
4364,968,1037
4365,968,1032
4366,968,1030
4367,965,1032
4368,966,1035
4369,966,1033
4370,968,1033
4371,968,1035
4372,967,1034
4373,969,1029
4374,974,1030
4375,977,1035
4376,978,1037
4377,977,1033
4378,973,1030
4379,969,1034
4380,966,1036
4381,965,1031
4382,966,1032
4383,969,1030
4384,969,1029
4385,965,1027
4386,964,1027
4387,964,1034
4388,965,1035
4389,969,1031
4390,971,1027
4391,969,1027
4392,972,1030
4393,973,1029
4394,970,1029
4395,974,1030
4396,973,1029
4397,971,1026
4398,971,1026
4399,972,1028
4400,971,1031
4401,972,1027
4402,969,1023
4403,966,1024
4404,967,1026
4405,977,1027
4406,993,1025
4407,1011,1026
4408,1027,1025
4409,1043,1023
4410,1063,1022
4411,1083,1028
4412,1105,1031
4413,1127,1029
4414,1150,1026
4415,1173,1028
4416,1189,1033
4417,1198,1030
4418,1193,1026
4419,1173,1030
4420,1147,1033
4421,1106,1034
4422,1040,1032
4423,978,1037
4424,939,1042
4425,917,1039
4426,907,1037
4427,901,1036
4428,912,1040
4429,926,1044
4430,939,1039
4431,943,1034
4432,943,1035
4433,943,1035
4434,948,1037
4435,952,1035
4436,956,1033
4437,953,1035
4438,946,1034
4439,943,1029
4440,943,1028
4441,944,1033
4442,946,1031
4443,947,1026
4444,949,1025
4445,951,1024
4446,956,1029
4447,958,1030
4448,956,1027
4449,955,1028
4450,956,1027
4451,955,1024
4452,957,1026
4453,960,1030
4454,962,1028
4455,962,1029
4456,963,1025
4457,958,1024
4458,961,1028
4459,964,1029
4460,968,1024
4461,967,1023
4462,965,1026
4463,966,1027
4464,966,1029
4465,969,1029
4466,970,1028
4467,971,1031
4468,969,1024
4469,968,1024
4470,969,1025
4471,969,1030
4472,971,1031
4473,970,1027
4474,971,1026
4475,971,1027
4476,974,1028
4477,977,1026
4478,983,1025
4479,986,1028
4480,986,1030
4481,984,1029
4482,982,1027
4483,986,1027
4484,994,1030
4485,995,1030
4486,995,1025
4487,992,1025
4488,994,1028
4489,997,1031
4490,1002,1032
4491,1000,1028
4492,999,1027
4493,1000,1030
4494,1000,1029
4495,1001,1031
4496,1004,1029
4497,1004,1031
4498,1005,1030
4499,1004,1029
4500,1004,1028
4501,1006,1031
4502,1011,1032
4503,1012,1032
4504,1014,1028
4505,1013,1026
4506,1016,1032
4507,1022,1035
4508,1026,1034
4509,1024,1028
4510,1022,1029
4511,1023,1032
4512,1021,1030
4513,1022,1032
4514,1020,1031
4515,1020,1033
4516,1019,1032
4517,1015,1030
4518,1011,1031
4519,1011,1035
4520,1009,1033
4521,1005,1033
4522,1004,1029
4523,1007,1031
4524,1012,1033
4525,1017,1035
4526,1015,1034
4527,1014,1030
4528,1013,1030
4529,1012,1032
4530,1012,1033
4531,1014,1031
4532,1014,1033
4533,1014,1034
4534,1012,1034
4535,1008,1034
4536,1008,1032
4537,1009,1038
4538,1012,1038
4539,1009,1037
4540,1007,1035
4541,1005,1036
4542,1006,1043
4543,1006,1041
4544,1005,1035
4545,1006,1036
4546,1004,1038
4547,1001,1035
4548,1002,1034
4549,1005,1038
4550,1005,1040
4551,1006,1040
4552,1000,1033
4553,995,1035
4554,995,1036
4555,996,1039
4556,998,1034
4557,999,1033
4558,998,1031
4559,995,1035
4560,994,1034
4561,994,1034
4562,993,1036
4563,993,1037
4564,992,1034
4565,992,1030
4566,991,1031
4567,993,1035
4568,994,1037
4569,993,1033
4570,992,1030
4571,987,1034
4572,988,1037
4573,988,1037
4574,990,1033
4575,997,1035
4576,998,1036
4577,1002,1036
4578,1004,1034
4579,1005,1036
4580,1007,1040
4581,1003,1037
4582,1001,1033
4583,999,1030
4584,998,1034
4585,995,1037
4586,996,1036
4587,992,1035
4588,989,1033
4589,986,1034
4590,985,1034
4591,989,1031
4592,991,1031
4593,994,1036
4594,991,1033
4595,990,1030
4596,990,1033
4597,995,1036
4598,998,1034
4599,997,1027
4600,995,1027
4601,992,1031
4602,994,1036
4603,996,1036
4604,1001,1034
4605,1000,1036
4606,997,1033
4607,995,1028
4608,994,1028
4609,995,1035
4610,996,1038
4611,996,1033
4612,994,1031
4613,990,1034
4614,991,1035
4615,993,1034
4616,996,1034
4617,996,1036
4618,993,1037
4619,993,1034
4620,993,1033
4621,994,1037
4622,999,1038
4623,998,1034
4624,997,1030
4625,995,1030
4626,993,1035
4627,994,1037
4628,996,1036
4629,995,1036
4630,990,1035
4631,986,1031
4632,984,1029
4633,989,1031
4634,998,1034
4635,1015,1034
4636,1030,1030
4637,1041,1027
4638,1063,1030
4639,1086,1034
4640,1106,1030
4641,1125,1028
4642,1143,1030
4643,1167,1034
4644,1192,1035
4645,1217,1039
4646,1239,1036
4647,1249,1038
4648,1241,1038
4649,1220,1034
4650,1191,1033
4651,1145,1037
4652,1072,1042
4653,1008,1043
4654,965,1041
4655,947,1043
4656,944,1048
4657,946,1048
4658,953,1041
4659,960,1043
4660,968,1041
4661,973,1044
4662,981,1043
4663,982,1043
4664,983,1045
4665,982,1045
4666,977,1037
4667,973,1035
4668,972,1039
4669,969,1040
4670,969,1041
4671,971,1037
4672,975,1035
4673,977,1035
4674,978,1039
4675,986,1036
4676,987,1032
4677,987,1034
4678,984,1036
4679,982,1036
4680,985,1036
4681,982,1039
4682,985,1039
4683,985,1038
4684,985,1032
4685,982,1031
4686,982,1034
4687,982,1038
4688,982,1038
4689,986,1035
4690,984,1033
4691,983,1035
4692,984,1037
4693,984,1033
4694,985,1032
4695,985,1036
4696,986,1035
4697,983,1034
4698,988,1034
4699,989,1035
4700,989,1037
4701,989,1037
4702,991,1029
4703,990,1026
4704,991,1032
4705,990,1036
4706,993,1036
4707,994,1032
4708,991,1031
4709,990,1032
4710,993,1034
4711,996,1034
4712,996,1032
4713,999,1032
4714,996,1032
4715,994,1031
4716,997,1032
4717,1001,1036
4718,1006,1037
4719,1007,1034
4720,1007,1029
4721,1005,1029
4722,1005,1034
4723,1010,1038
4724,1015,1035
4725,1017,1032
4726,1016,1033
4727,1016,1035
4728,1019,1035
4729,1023,1033
4730,1028,1032
4731,1029,1037
4732,1030,1036
4733,1026,1035
4734,1025,1034
4735,1028,1037
4736,1027,1040
4737,1027,1039
4738,1030,1034
4739,1031,1032
4740,1033,1036
4741,1032,1042
4742,1035,1040
4743,1034,1036
4744,1033,1036
4745,1029,1037
4746,1030,1039
4747,1031,1039
4748,1033,1033
4749,1033,1034
4750,1029,1034
4751,1024,1037
4752,1025,1035
4753,1025,1033
4754,1025,1038
4755,1025,1038
4756,1021,1034
4757,1019,1029
4758,1019,1027
4759,1019,1036
4760,1020,1039
4761,1018,1035
4762,1013,1030
4763,1012,1035
4764,1012,1039
4765,1012,1038
4766,1015,1035
4767,1015,1032
4768,1017,1030
4769,1015,1036
4770,1013,1035
4771,1014,1031
4772,1013,1033
4773,1012,1037
4774,1012,1037
4775,1010,1029
4776,1010,1029
4777,1008,1035
4778,1007,1039
4779,1008,1038
4780,1004,1031
4781,1002,1029
4782,1001,1036
4783,997,1040
4784,994,1035
4785,990,1029
4786,995,1030
4787,994,1034
4788,998,1035
4789,1000,1033
4790,1003,1034
4791,1004,1036
4792,1000,1035
4793,998,1031
4794,997,1030
4795,998,1032
4796,999,1038
4797,997,1039
4798,999,1033
4799,999,1029
4800,1000,1036
4801,1001,1040
4802,1000,1036
4803,1000,1033
4804,998,1031
4805,995,1033
4806,997,1039
4807,1000,1038
4808,999,1035
4809,1001,1036
4810,1002,1039
4811,1001,1036
4812,999,1034
4813,999,1035
4814,996,1040
4815,996,1042
4816,993,1039
4817,988,1034
4818,989,1037
4819,991,1042
4820,993,1042
4821,995,1038
4822,999,1032
4823,996,1035
4824,997,1040
4825,998,1041
4826,998,1038
4827,993,1035
4828,993,1035
4829,988,1039
4830,988,1038
4831,987,1035
4832,988,1033
4833,984,1038
4834,982,1041
4835,982,1038
4836,981,1038
4837,985,1039
4838,982,1043
4839,983,1042
4840,982,1037
4841,981,1032
4842,984,1037
4843,987,1043
4844,985,1044
4845,987,1041
4846,984,1035
4847,985,1038
4848,987,1043
4849,991,1044
4850,993,1036
4851,993,1036
4852,993,1037
4853,991,1041
4854,994,1040
4855,995,1039
4856,997,1040
4857,995,1045
4858,995,1041
4859,994,1038
4860,994,1035
4861,998,1041
4862,997,1045
4863,991,1040
4864,984,1039
4865,978,1033
4866,980,1038
4867,989,1042
4868,1005,1039
4869,1020,1033
4870,1032,1030
4871,1043,1033
4872,1061,1039
4873,1079,1042
4874,1098,1038
4875,1115,1035
4876,1133,1038
4877,1155,1043
4878,1178,1040
4879,1199,1039
4880,1216,1040
4881,1215,1042
4882,1204,1042
4883,1186,1039
4884,1169,1038
4885,1148,1041
4886,1117,1048
4887,1068,1050
4888,1020,1047
4889,985,1046
4890,960,1049
4891,948,1058
4892,944,1055
4893,943,1051
4894,946,1046
4895,953,1050
4896,961,1053
4897,969,1055
4898,973,1047
4899,974,1044
4900,974,1046
4901,974,1045
4902,975,1047
4903,972,1043
4904,971,1041
4905,964,1043
4906,963,1044
4907,960,1038
4908,963,1034
4909,966,1036
4910,970,1040
4911,972,1040
4912,970,1034
4913,966,1032
4914,969,1034
4915,972,1039
4916,973,1039
4917,974,1036
4918,975,1030
4919,969,1032
4920,973,1039
4921,973,1040
4922,972,1035
4923,972,1032
4924,975,1037
4925,973,1036
4926,973,1035
4927,976,1032
4928,978,1033
4929,981,1034
4930,981,1037
4931,979,1032
4932,980,1027
4933,980,1030
4934,981,1037
4935,985,1036
4936,989,1027
4937,989,1023
4938,987,1029
4939,981,1033
4940,981,1034
4941,979,1029
4942,978,1026
4943,979,1029
4944,986,1035
4945,989,1034
4946,990,1029
4947,990,1027
4948,987,1030
4949,988,1032
4950,993,1029
4951,995,1027
4952,996,1030
4953,1000,1032
4954,999,1030
4955,1001,1023
4956,1003,1024
4957,1005,1029
4958,1010,1033
4959,1008,1027
4960,1009,1026
4961,1009,1027
4962,1014,1031
4963,1018,1028
4964,1019,1025
4965,1018,1028
4966,1018,1031
4967,1014,1028
4968,1019,1024
4969,1019,1028
4970,1021,1033
4971,1027,1033
4972,1027,1025
4973,1027,1023
4974,1025,1029
4975,1029,1034
4976,1036,1033
4977,1039,1029
4978,1037,1026
4979,1030,1031
4980,1030,1032
4981,1035,1031
4982,1034,1028
4983,1035,1031
4984,1033,1034
4985,1027,1030
4986,1023,1029
4987,1022,1034
4988,1021,1035
4989,1021,1035
4990,1018,1030
4991,1014,1027
4992,1014,1034
4993,1017,1037
4994,1018,1034
4995,1016,1031
4996,1013,1034
4997,1009,1035
4998,1005,1033
4999,1006,1032
5000,1010,1034
5001,1010,1037
5002,1006,1033
5003,1003,1031
5004,1003,1034
5005,1005,1039
5006,1005,1038
5007,1003,1034
5008,1001,1031
5009,999,1036
5010,999,1034
5011,1000,1035
5012,1001,1033
5013,1001,1036
5014,998,1037
5015,990,1032
5016,990,1031
5017,992,1038
5018,996,1038
5019,997,1037
5020,993,1031
5021,991,1034
5022,990,1038
5023,991,1035
5024,993,1035
5025,997,1036
5026,994,1034
5027,986,1034
5028,984,1032
5029,982,1034
5030,988,1039
5031,991,1038
5032,987,1032
5033,983,1031
5034,980,1039
5035,977,1040
5036,978,1035
5037,981,1034
5038,982,1036
5039,984,1039
5040,986,1037
5041,987,1037
5042,987,1039
5043,984,1042
5044,984,1039
5045,981,1037
5046,982,1039
5047,981,1043
5048,983,1043
5049,983,1039
5050,981,1038
5051,978,1039
5052,981,1042
5053,984,1042
5054,987,1042
5055,985,1043
5056,984,1043
5057,986,1042
5058,988,1043
5059,989,1044
5060,995,1039
5061,996,1042
5062,997,1044
5063,996,1042
5064,998,1041
5065,1000,1045
5066,1001,1048
5067,1003,1045
5068,1002,1040
5069,1002,1040
5070,1006,1044
5071,1007,1047
5072,1005,1045
5073,1000,1043
5074,996,1043
5075,994,1042
5076,993,1040
5077,996,1039
5078,993,1043
5079,989,1046
5080,986,1042
5081,987,1041
5082,993,1044
5083,995,1047
5084,994,1046
5085,993,1040
5086,997,1038
5087,999,1044
5088,1001,1044
5089,1001,1043
5090,1000,1039
5091,1003,1042
5092,1005,1042
5093,1004,1034
5094,1002,1033
5095,1000,1035
5096,996,1041
5097,994,1039
5098,989,1033
5099,983,1033
5100,986,1037
5101,991,1036
5102,995,1030
5103,994,1029
5104,988,1031
5105,991,1036
5106,995,1033
5107,1000,1032
5108,1004,1032
5109,1001,1035
5110,997,1030
5111,995,1025
5112,997,1030
5113,1001,1037
5114,1003,1035
5115,1004,1031
5116,1003,1032
5117,997,1033
5118,993,1035
5119,990,1030
5120,991,1029
5121,993,1032
5122,1000,1033
5123,1007,1031
5124,1019,1029
5125,1035,1034
5126,1056,1036
5127,1077,1035
5128,1095,1028
5129,1105,1030
5130,1119,1038
5131,1143,1041
5132,1168,1038
5133,1193,1037
5134,1213,1039
5135,1225,1041
5136,1220,1040
5137,1209,1037
5138,1188,1039
5139,1161,1044
5140,1116,1046
5141,1052,1047
5142,995,1046
5143,960,1051
5144,941,1051
5145,938,1049
5146,939,1044
5147,946,1044
5148,954,1049
5149,965,1051
5150,970,1047
5151,973,1047
5152,975,1048
5153,979,1047
5154,982,1041
5155,981,1041
5156,980,1042
5157,978,1045
5158,976,1040
5159,971,1037
5160,968,1039
5161,969,1041
5162,970,1039
5163,980,1037
5164,983,1032
5165,981,1039
5166,981,1043
5167,983,1040
5168,985,1038
5169,984,1041
5170,984,1041
5171,983,1038
5172,983,1032
5173,983,1038
5174,983,1039
5175,982,1043
5176,980,1038
5177,981,1035
5178,986,1039
5179,988,1045
5180,990,1041
5181,990,1037
5182,991,1032
5183,991,1037
5184,990,1042
5185,992,1043
5186,988,1041
5187,989,1038
5188,990,1040
5189,993,1039
5190,995,1037
5191,997,1034
5192,994,1037
5193,991,1040
5194,989,1036
5195,987,1036
5196,992,1038
5197,994,1042
5198,997,1044
5199,996,1040
5200,997,1034
5201,994,1036
5202,995,1043
5203,997,1045
5204,1002,1041
5205,1003,1042
5206,1001,1042
5207,1006,1044
5208,1008,1042
5209,1016,1041
5210,1021,1042
5211,1019,1044
5212,1016,1042
5213,1012,1038
5214,1014,1038
5215,1017,1045
5216,1021,1044
5217,1024,1042
5218,1024,1034
5219,1021,1036
5220,1024,1041
5221,1028,1042
5222,1031,1039
5223,1031,1038
5224,1027,1038
5225,1024,1040
5226,1021,1039
5227,1025,1038
5228,1028,1034
5229,1028,1035
5230,1025,1040
5231,1027,1039
5232,1031,1037
5233,1034,1040
5234,1037,1042
5235,1042,1044
5236,1043,1039
5237,1041,1036
5238,1041,1037
5239,1042,1043
5240,1041,1047
5241,1039,1044
5242,1036,1041
5243,1037,1041
5244,1038,1046
5245,1037,1046
5246,1032,1042
5247,1027,1041
5248,1026,1040
5249,1025,1043
5250,1029,1043
5251,1035,1042
5252,1037,1045
5253,1031,1045
5254,1018,1041
5255,1010,1037
5256,1011,1038
5257,1014,1044
5258,1021,1047
5259,1022,1042
5260,1023,1039
5261,1018,1041
5262,1019,1046
5263,1022,1047
5264,1023,1043
5265,1024,1038
5266,1020,1040
5267,1015,1042
5268,1015,1043
5269,1012,1039
5270,1015,1040
5271,1014,1041
5272,1011,1037
5273,1009,1034
5274,1009,1032
5275,1014,1034
5276,1019,1040
5277,1020,1040
5278,1016,1034
5279,1008,1032
5280,1011,1040
5281,1013,1041
5282,1014,1035
5283,1016,1030
5284,1012,1030
5285,1008,1031
5286,1005,1033
5287,1007,1029
5288,1009,1027
5289,1010,1029
5290,1009,1028
5291,1006,1023
5292,1006,1023
5293,1006,1024
5294,1008,1030
5295,1008,1033
5296,1009,1023
5297,1005,1022
5298,1003,1028
5299,1000,1032
5300,999,1029
5301,999,1026
5302,998,1025
5303,997,1030
5304,999,1033
5305,998,1031
5306,1001,1028
5307,1006,1030
5308,1011,1033
5309,1008,1031
5310,1009,1027
5311,1015,1026
5312,1016,1032
5313,1013,1035
5314,1011,1032
5315,1011,1028
5316,1015,1031
5317,1015,1035
5318,1012,1035
5319,1011,1029
5320,1009,1024
5321,1007,1028
5322,1005,1031
5323,1006,1031
5324,1006,1027
5325,1005,1030
5326,1004,1031
5327,1005,1033
5328,1004,1027
5329,1005,1031
5330,1005,1035
5331,1005,1037
5332,1006,1031
5333,1006,1028
5334,1009,1032
5335,1012,1039
5336,1013,1035
5337,1014,1032
5338,1013,1028
5339,1012,1032
5340,1011,1038
5341,1010,1036
5342,1012,1035
5343,1009,1037
5344,1007,1037
5345,1004,1034
5346,1005,1031
5347,1005,1035
5348,1002,1038
5349,1002,1040
5350,1000,1034
5351,997,1033
5352,999,1041
5353,1002,1044
5354,1008,1039
5355,1012,1036
5356,1015,1036
5357,1012,1043
5358,1011,1043
5359,1010,1041
5360,1016,1043
5361,1020,1047
5362,1018,1043
5363,1013,1038
5364,1010,1037
5365,1017,1043
5366,1017,1045
5367,1015,1038
5368,1009,1034
5369,1007,1039
5370,1013,1040
5371,1027,1037
5372,1043,1034
5373,1059,1038
5374,1078,1040
5375,1098,1037
5376,1119,1036
5377,1144,1043
5378,1178,1049
5379,1209,1045
5380,1237,1039
5381,1262,1039
5382,1282,1048
5383,1284,1047
5384,1272,1044
5385,1244,1044
5386,1188,1048
5387,1099,1048
5388,1020,1045
5389,978,1049
5390,963,1048
5391,960,1053
5392,958,1046
5393,959,1048
5394,972,1051
5395,988,1051
5396,999,1044
5397,998,1044
5398,999,1049
5399,997,1045
5400,993,1044
5401,991,1044
5402,989,1046
5403,987,1044
5404,984,1038
5405,979,1034
5406,980,1038
5407,987,1042
5408,996,1038
5409,996,1036
5410,1001,1035
5411,999,1037
5412,994,1034
5413,990,1031
5414,985,1035
5415,986,1039
5416,989,1037
5417,990,1032
5418,993,1037
5419,996,1041
5420,999,1040
5421,999,1035
5422,995,1034
5423,993,1040
5424,994,1039
5425,997,1037
5426,1000,1038
5427,1000,1041
5428,1002,1032
5429,999,1030
5430,1002,1031
5431,1002,1036
5432,1011,1038
5433,1013,1034
5434,1012,1031
5435,1007,1032
5436,1008,1031
5437,1008,1030
5438,1005,1030
5439,1004,1034
5440,1003,1030
5441,1003,1028
5442,1009,1029
5443,1015,1035
5444,1017,1033
5445,1020,1031
5446,1022,1028
5447,1024,1034
5448,1026,1032
5449,1025,1030
5450,1025,1030
5451,1029,1033
5452,1032,1029
5453,1037,1026
5454,1041,1026
5455,1042,1034
5456,1043,1032
5457,1043,1026
5458,1043,1025
5459,1044,1028
5460,1046,1029
5461,1041,1024
5462,1038,1028
5463,1040,1030
5464,1046,1028
5465,1053,1023
5466,1057,1025
5467,1062,1033
5468,1062,1035
5469,1059,1030
5470,1054,1026
5471,1050,1028
5472,1047,1033
5473,1047,1031
5474,1048,1027
5475,1045,1035
5476,1048,1033
5477,1050,1028
5478,1050,1028
5479,1050,1033
5480,1044,1038
5481,1041,1035
5482,1041,1027
5483,1040,1030
5484,1036,1036
5485,1035,1032
5486,1034,1029
5487,1034,1033
5488,1034,1033
5489,1032,1030
5490,1033,1031
5491,1036,1038
5492,1035,1040
5493,1031,1034
5494,1022,1029
5495,1021,1033
5496,1024,1037
5497,1030,1034
5498,1032,1032
5499,1031,1036
5500,1026,1034
5501,1018,1028
5502,1020,1032
5503,1023,1038
5504,1027,1040
5505,1026,1035
5506,1024,1031
5507,1016,1037
5508,1016,1039
5509,1016,1034
5510,1018,1035
5511,1020,1040
5512,1022,1039
5513,1024,1035
5514,1023,1036
5515,1025,1040
5516,1028,1046
5517,1026,1039
5518,1023,1033
5519,1020,1038
5520,1018,1040
5521,1019,1041
5522,1020,1038
5523,1026,1039
5524,1025,1042
5525,1024,1038
5526,1023,1036
5527,1022,1041
5528,1021,1043
5529,1018,1043
5530,1023,1036
5531,1028,1039
5532,1026,1044
5533,1026,1045
5534,1029,1041
5535,1028,1041
5536,1035,1044
5537,1038,1043
5538,1039,1041
5539,1041,1043
5540,1042,1047
5541,1042,1048
5542,1038,1040
5543,1031,1037
5544,1024,1042
5545,1022,1045
5546,1026,1044
5547,1030,1040
5548,1031,1039
5549,1028,1042
5550,1025,1041
5551,1020,1037
5552,1019,1040
5553,1017,1041
5554,1019,1040
5555,1018,1034
5556,1013,1035
5557,1017,1041
5558,1022,1044
5559,1026,1037
5560,1027,1034
5561,1023,1035
5562,1024,1038
5563,1025,1041
5564,1025,1037
5565,1026,1035
5566,1025,1041
5567,1021,1039
5568,1020,1036
5569,1017,1035
5570,1018,1041
5571,1022,1039
5572,1020,1035
5573,1017,1033
5574,1016,1042
5575,1012,1041
5576,1020,1037
5577,1022,1035
5578,1021,1037
5579,1010,1036
5580,1007,1035
5581,1007,1036
5582,1013,1040
5583,1017,1041
5584,1014,1036
5585,1010,1031
5586,1012,1036
5587,1016,1041
5588,1019,1041
5589,1022,1035
5590,1018,1033
5591,1010,1036
5592,1006,1037
5593,1010,1035
5594,1024,1031
5595,1039,1035
5596,1057,1033
5597,1071,1032
5598,1089,1031
5599,1107,1035
5600,1131,1039
5601,1154,1036
5602,1178,1033
5603,1208,1033
5604,1231,1039
5605,1256,1039
5606,1273,1037
5607,1277,1035
5608,1268,1038
5609,1240,1039
5610,1198,1038
5611,1128,1038
5612,1058,1044
5613,1013,1045
5614,991,1042
5615,979,1036
5616,972,1040
5617,973,1045
5618,984,1044
5619,995,1038
5620,1008,1036
5621,1014,1039
5622,1010,1038
5623,1008,1035
5624,1004,1034
5625,1000,1037
5626,995,1036
5627,994,1032
5628,994,1028
5629,992,1033
5630,991,1036
5631,992,1034
5632,996,1026
5633,999,1025
5634,1003,1032
5635,1005,1038
5636,1007,1033
5637,1007,1030
5638,1006,1031
5639,1007,1032
5640,1008,1029
5641,1006,1030
5642,1007,1028
5643,1004,1033
5644,1000,1032
5645,995,1026
5646,999,1028
5647,1006,1033
5648,1007,1030
5649,1000,1027
5650,992,1025
5651,990,1029
5652,994,1033
5653,999,1032
5654,1005,1028
5655,1011,1030
5656,1014,1030
5657,1012,1025
5658,1007,1025
5659,1007,1029
5660,1008,1031
5661,1009,1027
5662,1011,1025
5663,1012,1025
5664,1009,1028
5665,1007,1029
5666,1001,1026
5667,1001,1025
5668,1007,1029
5669,1014,1027
5670,1016,1025
5671,1014,1024
5672,1010,1029
5673,1010,1030
5674,1015,1026
5675,1017,1020
5676,1015,1028
5677,1017,1032
5678,1021,1032
5679,1022,1026
5680,1025,1025
5681,1022,1028
5682,1023,1026
5683,1025,1025
5684,1027,1027
5685,1028,1030
5686,1031,1027
5687,1038,1024
5688,1046,1029
5689,1048,1029
5690,1048,1028
5691,1043,1025
5692,1034,1023
5693,1027,1026
5694,1023,1027
5695,1029,1027
5696,1039,1026
5697,1041,1026
5698,1039,1025
5699,1038,1020
5700,1039,1021
5701,1041,1026
5702,1039,1030
5703,1031,1027
5704,1027,1023
5705,1024,1023
5706,1022,1027
5707,1025,1026
5708,1026,1023
5709,1026,1023
5710,1023,1024
5711,1020,1024
5712,1017,1024
5713,1012,1024
5714,1011,1028
5715,1013,1028
5716,1013,1023
5717,1012,1021
5718,1011,1026
5719,1008,1028
5720,1007,1029
5721,1009,1029
5722,1011,1024
5723,1012,1028
5724,1005,1030
5725,1000,1026
5726,1001,1030
5727,1006,1036
5728,1009,1030
5729,1005,1030
5730,1007,1032
5731,1007,1035
5732,1005,1038
5733,1004,1035
5734,1000,1033
5735,994,1037
5736,995,1039
5737,998,1037
5738,1007,1039
5739,1010,1041
5740,1006,1038
5741,995,1032
5742,989,1034
5743,990,1041
5744,997,1043
5745,1003,1038
5746,1007,1035
5747,1006,1036
5748,1007,1037
5749,1009,1037
5750,1009,1040
5751,1010,1043
5752,1011,1041
5753,1009,1037
5754,1015,1041
5755,1015,1043
5756,1019,1040
5757,1020,1036
5758,1018,1033
5759,1016,1037
5760,1009,1038
5761,1010,1035
5762,1008,1036
5763,1008,1038
5764,1009,1036
5765,1008,1030
5766,1007,1029
5767,1011,1034
5768,1015,1039
5769,1017,1038
5770,1017,1031
5771,1013,1031
5772,1007,1034
5773,1004,1036
5774,1008,1032
5775,1010,1029
5776,1008,1033
5777,1007,1032
5778,1003,1031
5779,1000,1031
5780,999,1036
5781,998,1035
5782,1000,1031
5783,1001,1025
5784,1001,1030
5785,1001,1036
5786,1004,1036
5787,1005,1031
5788,1004,1028
5789,1001,1032
5790,999,1033
5791,1003,1028
5792,1004,1028
5793,1006,1034
5794,1003,1035
5795,1000,1028
5796,1000,1027
5797,1000,1031
5798,1003,1033
5799,1003,1029
5800,1004,1025
5801,1002,1027
5802,1002,1034
5803,1004,1034
5804,1001,1030
5805,998,1028
5806,995,1030
5807,996,1028
5808,1003,1023
5809,1008,1024
5810,1014,1029
5811,1021,1031
5812,1028,1024
5813,1040,1022
5814,1065,1028
5815,1093,1036
5816,1117,1031
5817,1139,1027
5818,1159,1026
5819,1186,1029
5820,1210,1031
5821,1230,1031
5822,1239,1032
5823,1231,1033
5824,1211,1036
5825,1187,1031
5826,1153,1028
5827,1104,1034
5828,1045,1042
5829,1002,1044
5830,975,1038
5831,958,1040
5832,954,1045
5833,957,1047
5834,966,1040
5835,973,1038
5836,974,1039
5837,975,1041
5838,980,1041
5839,986,1040
5840,983,1042
5841,976,1043
5842,963,1038
5843,960,1030
5844,962,1031
5845,968,1038
5846,969,1038
5847,967,1035
5848,967,1031
5849,965,1035
5850,972,1038
5851,975,1033
5852,976,1033
5853,976,1036
5854,974,1038
5855,974,1035
5856,975,1034
5857,980,1035
5858,983,1042
5859,983,1040
5860,983,1034
5861,980,1029
5862,979,1035
5863,982,1039
5864,986,1036
5865,984,1032
5866,981,1034
5867,984,1035
5868,988,1036
5869,988,1032
5870,987,1033
5871,985,1037
5872,985,1036
5873,986,1030
5874,988,1029
5875,990,1036
5876,987,1038
5877,987,1033
5878,985,1027
5879,989,1031
5880,993,1037
5881,997,1038
5882,1001,1034
5883,1005,1037
5884,1007,1037
5885,1000,1035
5886,993,1032
5887,991,1031
5888,989,1036
5889,995,1039
5890,1002,1036
5891,1003,1029
5892,1005,1034
5893,1004,1039
5894,1010,1038
5895,1014,1032
5896,1011,1030
5897,1012,1034
5898,1015,1037
5899,1018,1037
5900,1020,1035
5901,1020,1037
5902,1016,1038
5903,1013,1037
5904,1016,1031
5905,1024,1033
5906,1027,1039
5907,1026,1039
5908,1029,1033
5909,1030,1032
5910,1033,1039
5911,1036,1039
5912,1036,1039
5913,1034,1032
5914,1031,1029
5915,1027,1035
5916,1026,1039
5917,1025,1036
5918,1025,1034
5919,1027,1038
5920,1027,1037
5921,1027,1033
5922,1023,1029
5923,1021,1035
5924,1020,1038
5925,1019,1036
5926,1015,1030
5927,1011,1030
5928,1011,1038
5929,1011,1041
5930,1014,1036
5931,1015,1030
5932,1011,1032
5933,1011,1036
5934,1010,1036
5935,1012,1030
5936,1016,1031
5937,1017,1036
5938,1018,1036
5939,1015,1031
5940,1014,1028
5941,1006,1034
5942,1003,1039
5943,1001,1037
5944,1002,1028
5945,1001,1028
5946,998,1036
5947,993,1037
5948,989,1032
5949,982,1030
5950,981,1033
5951,984,1035
5952,989,1033
5953,994,1031
5954,996,1035
5955,996,1037
5956,994,1037
5957,990,1031
5958,991,1029
5959,992,1033
5960,991,1038
5961,991,1036
5962,987,1031
5963,984,1029
5964,983,1035
5965,984,1040
5966,985,1036
5967,984,1033
5968,984,1033
5969,982,1036
5970,982,1037
5971,980,1034
5972,979,1035
5973,975,1039
5974,973,1039
5975,973,1033
5976,974,1031
5977,978,1038
5978,980,1040
5979,978,1039
5980,977,1033
5981,975,1036
5982,974,1041
5983,976,1042
5984,976,1036
5985,979,1032
5986,977,1035
5987,980,1040
5988,978,1037
5989,979,1035
5990,981,1037
5991,984,1041
5992,982,1038
5993,977,1033
5994,969,1032
5995,967,1038
5996,969,1040
5997,974,1038
5998,974,1033
5999,971,1034
6000,972,1040
6001,976,1044
6002,976,1039
6003,978,1036
6004,978,1036
6005,977,1040
6006,980,1039
6007,984,1039
6008,988,1037
6009,990,1041
6010,993,1044
6011,991,1039
6012,989,1036
6013,988,1039
6014,990,1045
6015,991,1044
6016,994,1039
6017,993,1038
6018,994,1043
6019,996,1048
6020,995,1048
6021,995,1041
6022,994,1039
6023,992,1043
6024,994,1047
6025,991,1051
6026,990,1051
6027,987,1052
6028,988,1046
6029,986,1042
6030,985,1045
6031,988,1046
6032,992,1046
6033,990,1043
6034,989,1040
6035,983,1040
6036,985,1045
6037,987,1046
6038,990,1045
6039,990,1046
6040,988,1044
6041,987,1042
6042,989,1040
6043,993,1043
6044,993,1046
6045,994,1048
6046,990,1043
6047,986,1038
6048,984,1044
6049,986,1046
6050,986,1048
6051,986,1042
6052,983,1042
6053,982,1045
6054,984,1047
6055,990,1046
6056,994,1044
6057,995,1044
6058,994,1044
6059,986,1041
6060,981,1039
6061,978,1040
6062,977,1045
6063,982,1047
6064,983,1042
6065,977,1039
6066,975,1043
6067,979,1044
6068,984,1040
6069,985,1035
6070,981,1037
6071,978,1041
6072,976,1041
6073,974,1037
6074,976,1037
6075,977,1039
6076,986,1036
6077,998,1032
6078,1014,1030
6079,1032,1035
6080,1050,1039
6081,1065,1038
6082,1084,1032
6083,1102,1033
6084,1126,1037
6085,1151,1040
6086,1175,1038
6087,1193,1035
6088,1207,1039
6089,1208,1040
6090,1192,1039
6091,1165,1041
6092,1128,1045
6093,1074,1048
6094,1011,1045
6095,964,1041
6096,938,1047
6097,925,1053
6098,920,1050
6099,925,1047
6100,934,1045
6101,942,1047
6102,947,1043
6103,952,1040
6104,958,1041
6105,964,1045
6106,968,1043
6107,964,1037
6108,958,1037
6109,957,1042
6110,956,1037
6111,954,1032
6112,956,1032
6113,955,1035
6114,955,1036
6115,957,1036
6116,959,1035
6117,961,1037
6118,962,1034
6119,959,1031
6120,959,1031
6121,963,1036
6122,966,1040
6123,964,1039
6124,962,1034
6125,962,1037
6126,966,1039
6127,965,1036
6128,965,1032
6129,963,1034
6130,962,1037
6131,963,1033
6132,962,1034
6133,970,1038
6134,975,1038
6135,976,1036
6136,971,1030
6137,965,1034
6138,963,1037
6139,964,1039
6140,967,1039
6141,968,1041
6142,967,1039
6143,969,1035
6144,973,1032
6145,982,1038
6146,986,1041
6147,985,1040
6148,980,1036
6149,974,1038
6150,974,1041
6151,980,1041
6152,986,1038
6153,989,1038
6154,989,1040
6155,988,1039
6156,988,1038
6157,986,1040
6158,989,1043
6159,988,1040
6160,988,1035
6161,989,1037
6162,991,1040
6163,993,1042
6164,996,1041
6165,994,1042
6166,994,1040
6167,991,1035
6168,992,1036
6169,995,1041
6170,999,1045
6171,998,1044
6172,999,1039
6173,998,1042
6174,1002,1044
6175,1009,1043
6176,1011,1041
6177,1005,1044
6178,1005,1045
6179,1006,1044
6180,1008,1044
6181,1007,1049
6182,1005,1048
6183,1001,1044
6184,998,1039
6185,997,1042
6186,1000,1046
6187,1003,1046
6188,1001,1044
6189,999,1046
6190,998,1046
6191,1000,1041
6192,1002,1039
6193,1004,1045
6194,1003,1049
6195,996,1047
6196,986,1043
6197,981,1044
6198,981,1045
6199,984,1044
6200,987,1040
6201,987,1041
6202,985,1045
6203,982,1043
6204,981,1041
6205,979,1044
6206,983,1047
6207,983,1041
6208,985,1038
6209,983,1041
6210,980,1046
6211,978,1046
6212,978,1043
6213,981,1044
6214,983,1043
6215,979,1036
6216,983,1036
6217,984,1040
6218,986,1044
6219,985,1041
6220,980,1038
6221,972,1041
6222,970,1042
6223,973,1041
6224,979,1036
6225,977,1041
6226,977,1041
6227,972,1037
6228,970,1036
6229,970,1039
6230,974,1041
6231,978,1037
6232,977,1032
6233,975,1033
6234,975,1038
6235,977,1040
6236,978,1034
6237,977,1035
6238,975,1038
6239,974,1032
6240,974,1029
6241,978,1032
6242,981,1036
6243,982,1035
6244,982,1029
6245,979,1031
6246,982,1037
6247,986,1035
6248,989,1030
6249,987,1031
6250,988,1035
6251,988,1035
6252,989,1031
6253,995,1033
6254,1000,1038
6255,1004,1036
6256,1003,1027
6257,999,1026
6258,1004,1033
6259,1006,1036
6260,1014,1030
6261,1014,1029
6262,1017,1029
6263,1016,1029
6264,1021,1024
6265,1026,1024
6266,1038,1026
6267,1048,1025
6268,1055,1021
6269,1056,1016
6270,1065,1020
6271,1077,1023
6272,1082,1014
6273,1080,1011
6274,1076,1011
6275,1067,1015
6276,1038,1011
6277,984,1010
6278,904,1014
6279,810,1016
6280,734,1010
6281,680,1007
6282,651,1013
6283,633,1020
6284,624,1019
6285,619,1017
6286,621,1018
6287,628,1025
6288,646,1024
6289,674,1024
6290,701,1028
6291,715,1033
6292,728,1035
6293,743,1034
6294,759,1036
6295,774,1040
6296,790,1040
6297,813,1036
6298,830,1033
6299,845,1036
6300,857,1042
6301,866,1041
6302,879,1035
6303,887,1037
6304,896,1041
6305,901,1035
6306,907,1032
6307,916,1033
6308,926,1041
6309,931,1041
6310,934,1036
6311,939,1032
6312,950,1037
6313,965,1044
6314,981,1041
6315,994,1036
6316,1004,1037
6317,1010,1043
6318,1019,1045
6319,1027,1041
6320,1037,1044
6321,1045,1047
6322,1049,1046
6323,1052,1042
6324,1054,1042
6325,1061,1045
6326,1066,1051
6327,1071,1049
6328,1072,1044
6329,1075,1045
6330,1078,1051
6331,1082,1049
6332,1089,1045
6333,1092,1043
6334,1094,1045
6335,1095,1048
6336,1099,1047
6337,1107,1045
6338,1115,1048
6339,1120,1052
6340,1122,1047
6341,1124,1043
6342,1126,1048
6343,1131,1053
6344,1133,1052
6345,1135,1048
6346,1139,1048
6347,1144,1052
6348,1148,1054
6349,1153,1051
6350,1156,1047
6351,1161,1049
6352,1165,1050
6353,1166,1053
6354,1169,1049
6355,1168,1049
6356,1170,1054
6357,1171,1055
6358,1169,1051
6359,1170,1046
6360,1174,1050
6361,1174,1056
6362,1178,1058
6363,1170,1054
6364,1170,1050
6365,1165,1054
6366,1163,1056
6367,1158,1052
6368,1158,1048
6369,1156,1052
6370,1156,1054
6371,1149,1050
6372,1146,1048
6373,1145,1053
6374,1139,1058
6375,1135,1054
6376,1129,1047
6377,1122,1046
6378,1116,1053
6379,1113,1056
6380,1110,1053
6381,1103,1051
6382,1096,1054
6383,1091,1054
6384,1082,1053
6385,1077,1052
6386,1073,1053
6387,1069,1056
6388,1065,1055
6389,1057,1050
6390,1053,1049
6391,1049,1057
6392,1044,1058
6393,1038,1052
6394,1036,1047
6395,1035,1048
6396,1035,1055
6397,1031,1057
6398,1029,1053
6399,1029,1054
6400,1025,1055
6401,1020,1054
6402,1018,1047
6403,1014,1048
6404,1017,1051
6405,1016,1054
6406,1014,1049
6407,1011,1049
6408,1011,1052
6409,1009,1057
6410,1009,1051
6411,1002,1047
6412,1003,1046
6413,1001,1051
6414,1002,1052
6415,1007,1048
6416,1009,1051
6417,1006,1055
6418,1003,1052
6419,1005,1045
6420,1007,1044
6421,1011,1053
6422,1013,1053
6423,1008,1050
6424,1004,1043
6425,1004,1044
6426,1005,1052
6427,1006,1051
6428,1008,1043
6429,1008,1043
6430,1005,1048
6431,1003,1047
6432,1003,1046
6433,1003,1045
6434,1003,1049
6435,1003,1051
6436,1001,1043
6437,997,1038
6438,998,1043
6439,998,1048
6440,1000,1045
6441,999,1044
6442,996,1041
6443,995,1046
6444,997,1044
6445,997,1041
6446,998,1041
6447,998,1045
6448,995,1044
6449,992,1038
6450,994,1039
6451,997,1045
6452,1001,1044
6453,1001,1041
6454,998,1038
6455,993,1040
6456,992,1043
6457,990,1041
6458,993,1039
6459,993,1042
6460,989,1043
6461,983,1040
6462,983,1036
6463,984,1043
6464,988,1047
6465,993,1044
6466,993,1038
6467,990,1039
6468,990,1046
6469,991,1042
6470,993,1040
6471,993,1039
6472,993,1042
6473,994,1042
6474,996,1038
6475,996,1040
6476,999,1046
6477,997,1047
6478,998,1040
6479,998,1038
6480,999,1043
6481,1001,1047
6482,1003,1045
6483,1002,1045
6484,999,1045
6485,998,1043
6486,1002,1041
6487,1003,1043
6488,1000,1046
6489,994,1045
6490,989,1039
6491,989,1036
6492,992,1042
6493,990,1045
6494,989,1041
6495,988,1038
6496,987,1041
6497,986,1041
6498,985,1038
6499,987,1037
6500,989,1044
6501,988,1044
6502,987,1037
6503,985,1034
6504,988,1039
6505,989,1041
6506,987,1038
6507,987,1040
6508,985,1043
6509,989,1042
6510,990,1039
6511,991,1038
6512,992,1043
6513,985,1043
6514,979,1039
6515,979,1036
6516,977,1042
6517,979,1045
6518,982,1043
6519,983,1040
6520,985,1039
6521,982,1040
6522,983,1039
6523,983,1042
6524,985,1045
6525,982,1044
6526,983,1039
6527,980,1037
6528,980,1044
6529,980,1045
6530,983,1042
6531,983,1044
6532,978,1044
6533,974,1041
6534,970,1037
6535,973,1041
6536,979,1043
6537,992,1040
6538,1006,1037
6539,1021,1038
6540,1042,1042
6541,1064,1043
6542,1089,1040
6543,1110,1044
6544,1134,1044
6545,1159,1044
6546,1189,1043
6547,1219,1049
6548,1238,1050
6549,1241,1048
6550,1227,1046
6551,1197,1048
6552,1145,1050
6553,1065,1052
6554,989,1055
6555,948,1061
6556,936,1059
6557,935,1051
6558,946,1053
6559,960,1058
6560,969,1056
6561,972,1054
6562,968,1057
6563,964,1059
6564,963,1053
6565,963,1052
6566,962,1054
6567,955,1053
6568,955,1045
6569,954,1045
6570,950,1050
6571,952,1049
6572,957,1045
6573,963,1049
6574,963,1048
6575,963,1042
6576,963,1042
6577,962,1048
6578,964,1051
6579,962,1045
6580,961,1040
6581,960,1043
6582,962,1046
6583,964,1042
6584,964,1044
6585,963,1046
6586,962,1043
6587,961,1038
6588,962,1037
6589,964,1044
6590,966,1043
6591,965,1038
6592,964,1041
6593,964,1040
6594,964,1038
6595,968,1040
6596,972,1042
6597,971,1044
6598,969,1036
6599,966,1033
6600,968,1040
6601,972,1043
6602,976,1038
6603,976,1036
6604,974,1039
6605,976,1035
6606,976,1034
6607,975,1040
6608,978,1044
6609,975,1038
6610,974,1035
6611,971,1037
6612,973,1038
6613,978,1038
6614,983,1037
6615,983,1041
6616,986,1040
6617,984,1032
6618,985,1036
6619,987,1040
6620,986,1040
6621,986,1035
6622,989,1035
6623,989,1039
6624,990,1037
6625,992,1038
6626,993,1039
6627,993,1044
6628,995,1037
6629,995,1036
6630,994,1039
6631,997,1044
6632,999,1041
6633,997,1040
6634,996,1041
6635,998,1041
6636,1000,1039
6637,1001,1041
6638,1005,1047
6639,1004,1047
6640,1002,1041
6641,1000,1037
6642,1000,1041
6643,1001,1043
6644,1003,1041
6645,1002,1040
6646,999,1044
6647,997,1041
6648,994,1043
6649,993,1044
6650,993,1046
6651,992,1045
6652,994,1039
6653,995,1037
6654,996,1045
6655,998,1049
6656,998,1045
6657,998,1046
6658,999,1046
6659,999,1047
6660,1000,1045
6661,999,1044
6662,1000,1048
6663,1002,1048
6664,1005,1046
6665,1005,1045
6666,1007,1049
6667,1005,1053
6668,1011,1048
6669,1011,1048
6670,1007,1049
6671,1003,1050
6672,998,1050
6673,995,1051
6674,996,1051
6675,993,1053
6676,991,1047
6677,988,1045
6678,985,1050
6679,985,1054
6680,992,1052
6681,993,1050
6682,992,1049
6683,987,1050
6684,988,1045
6685,985,1044
6686,987,1044
6687,986,1050
6688,986,1046
6689,987,1044
6690,987,1044
6691,993,1048
6692,997,1048
6693,1000,1043
6694,1002,1039
6695,1002,1043
6696,1005,1047
6697,1008,1046
6698,1014,1044
6699,1015,1045
6700,1012,1042
6701,1011,1039
6702,1004,1036
6703,999,1039
6704,1000,1039
6705,1009,1036
6706,1008,1030
6707,995,1026
6708,980,1026
6709,957,1026
6710,916,1019
6711,851,1019
6712,777,1019
6713,707,1021
6714,646,1023
6715,607,1021
6716,593,1028
6717,587,1029
6718,584,1025
6719,584,1022
6720,596,1028
6721,617,1035
6722,640,1037
6723,667,1036
6724,687,1042
6725,704,1046
6726,721,1050
6727,746,1053
6728,772,1051
6729,797,1054
6730,816,1057
6731,829,1055
6732,839,1055
6733,846,1058
6734,859,1059
6735,869,1056
6736,875,1051
6737,884,1050
6738,891,1055
6739,901,1062
6740,914,1058
6741,923,1054
6742,932,1054
6743,947,1054
6744,960,1055
6745,974,1054
6746,985,1054
6747,1003,1057
6748,1014,1057
6749,1024,1054
6750,1035,1056
6751,1045,1060
6752,1049,1060
6753,1052,1056
6754,1059,1054
6755,1061,1053
6756,1062,1059
6757,1064,1060
6758,1071,1057
6759,1075,1057
6760,1080,1057
6761,1083,1055
6762,1083,1053
6763,1085,1055
6764,1093,1060
6765,1098,1060
6766,1100,1055
6767,1102,1053
6768,1104,1056
6769,1105,1059
6770,1110,1054
6771,1111,1051
6772,1113,1054
6773,1114,1053
6774,1115,1055
6775,1122,1055
6776,1129,1057
6777,1134,1057
6778,1138,1056
6779,1139,1051
6780,1140,1052
6781,1142,1059
6782,1148,1061
6783,1151,1058
6784,1152,1054
6785,1152,1054
6786,1149,1053
6787,1152,1050
6788,1153,1053
6789,1153,1057
6790,1152,1055
6791,1150,1050
6792,1147,1051
6793,1147,1056
6794,1146,1053
6795,1145,1049
6796,1141,1045
6797,1137,1046
6798,1132,1052
6799,1128,1051
6800,1130,1048
6801,1128,1050
6802,1127,1049
6803,1120,1045
6804,1112,1043
6805,1110,1048
6806,1105,1052
6807,1099,1053
6808,1093,1045
6809,1087,1044
6810,1081,1049
6811,1076,1051
6812,1074,1046
6813,1067,1043
6814,1063,1047
6815,1055,1047
6816,1047,1044
6817,1041,1044
6818,1038,1049
6819,1039,1048
6820,1037,1041
6821,1033,1040
6822,1027,1047
6823,1024,1048
6824,1018,1049
6825,1016,1048
6826,1013,1046
6827,1008,1047
6828,1006,1044
6829,1005,1045
6830,1005,1049
6831,1003,1049
6832,1000,1045
6833,997,1043
6834,991,1048
6835,990,1050
6836,989,1047
6837,989,1044
6838,987,1045
6839,982,1049
6840,979,1047
6841,981,1048
6842,986,1049
6843,988,1052
6844,988,1046
6845,985,1042
6846,983,1044
6847,980,1052
6848,985,1053
6849,983,1048
6850,981,1046
6851,982,1047
6852,983,1049
6853,986,1046
6854,985,1044
6855,986,1047
6856,983,1048
6857,977,1045
6858,974,1043
6859,974,1049
6860,976,1050
6861,976,1046
6862,977,1042
6863,975,1043
6864,976,1050
6865,978,1051
6866,978,1049
6867,977,1048
6868,978,1049
6869,976,1046
6870,976,1043
6871,975,1048
6872,974,1050
6873,972,1050
6874,971,1045
6875,969,1047
6876,969,1050
6877,972,1048
6878,972,1046
6879,967,1047
6880,967,1051
6881,961,1048
6882,959,1047
6883,960,1050
6884,962,1054
6885,963,1050
6886,965,1046
6887,965,1044
6888,969,1053
6889,971,1055
6890,975,1051
6891,972,1050
6892,968,1051
6893,966,1049
6894,966,1046
6895,966,1050
6896,971,1054
6897,969,1052
6898,965,1048
6899,960,1047
6900,962,1052
6901,964,1052
6902,966,1049
6903,964,1049
6904,963,1050
6905,965,1050
6906,964,1049
6907,965,1049
6908,968,1051
6909,966,1053
6910,966,1049
6911,965,1044
6912,964,1046
6913,967,1052
6914,970,1055
6915,971,1050
6916,970,1047
6917,965,1048
6918,966,1051
6919,967,1050
6920,970,1047
6921,969,1050
6922,966,1050
6923,955,1049
6924,960,1049
6925,966,1052
6926,968,1054
6927,967,1050
6928,963,1047
6929,961,1044
6930,962,1052
6931,963,1054
6932,966,1053
6933,966,1054
6934,967,1055
6935,964,1053
6936,962,1050
6937,964,1049
6938,969,1052
6939,970,1057
6940,971,1053
6941,971,1051
6942,967,1054
6943,964,1057
6944,968,1057
6945,970,1050
6946,971,1050
6947,968,1054
6948,966,1055
6949,963,1055
6950,967,1055
6951,967,1054
6952,966,1055
6953,960,1052
6954,956,1048
6955,963,1050
6956,967,1053
6957,969,1057
6958,969,1053
6959,966,1050
6960,962,1055
6961,966,1058
6962,965,1052
6963,965,1048
6964,966,1046
6965,966,1051
6966,965,1053
6967,968,1053
6968,970,1051
6969,971,1052
6970,971,1052
6971,969,1048
6972,965,1046
6973,967,1050
6974,966,1054
6975,966,1051
6976,966,1047
6977,962,1047
6978,963,1052
6979,964,1050
6980,964,1047
6981,966,1044
6982,970,1048
6983,971,1051
6984,968,1048
6985,969,1048
6986,970,1049
6987,969,1053
6988,968,1049
6989,966,1042
6990,967,1041
6991,969,1051
6992,972,1052
6993,974,1048
6994,973,1042
6995,975,1045
6996,978,1049
6997,976,1052
6998,976,1044
6999,973,1044
7000,977,1045
7001,975,1049
7002,974,1046
7003,974,1045
7004,976,1047
7005,976,1051
7006,976,1045
7007,975,1040
7008,973,1039
7009,974,1044
7010,974,1050
7011,973,1048
7012,972,1044
7013,968,1040
7014,967,1047
7015,970,1049
7016,971,1045
7017,965,1040
7018,962,1039
7019,959,1043
7020,960,1044
7021,966,1044
7022,967,1040
7023,966,1046
7024,960,1046
7025,959,1040
7026,958,1037
7027,961,1041
7028,963,1044
7029,962,1046
7030,960,1040
7031,963,1038
7032,971,1040
7033,974,1047
7034,975,1044
7035,972,1039
7036,971,1036
7037,967,1042
7038,964,1045
7039,964,1044
7040,964,1040
7041,963,1041
7042,966,1044
7043,963,1041
7044,962,1039
7045,965,1040
7046,964,1043
7047,963,1043
7048,964,1043
7049,966,1040
7050,963,1038
7051,961,1043
7052,967,1047
7053,966,1041
7054,964,1036
7055,968,1039
7056,966,1045
7057,967,1048
7058,967,1044
7059,964,1042
7060,962,1041
7061,962,1046
7062,961,1044
7063,966,1042
7064,978,1040
7065,989,1043
7066,998,1047
7067,1014,1046
7068,1029,1043
7069,1049,1046
7070,1072,1050
7071,1089,1053
7072,1106,1046
7073,1123,1044
7074,1142,1050
7075,1166,1054
7076,1189,1058
7077,1199,1055
7078,1192,1050
7079,1175,1053
7080,1149,1057
7081,1115,1054
7082,1069,1053
7083,1010,1058
7084,957,1063
7085,921,1062
7086,902,1061
7087,893,1057
7088,893,1065
7089,901,1067
7090,909,1062
7091,917,1055
7092,922,1052
7093,927,1060
7094,932,1064
7095,936,1060
7096,941,1055
7097,942,1054
7098,937,1059
7099,935,1060
7100,937,1053
7101,936,1049
7102,938,1047
7103,936,1052
7104,934,1051
7105,937,1048
7106,940,1048
7107,945,1051
7108,950,1051
7109,952,1045
7110,949,1044
7111,945,1050
7112,946,1055
7113,950,1053
7114,954,1046
7115,954,1043
7116,951,1050
7117,951,1056
7118,955,1050
7119,956,1046
7120,955,1049
7121,954,1050
7122,956,1052
7123,956,1049
7124,957,1050
7125,953,1055
7126,951,1054
7127,953,1045
7128,955,1047
7129,954,1052
7130,958,1056
7131,958,1052
7132,959,1046
7133,960,1050
7134,958,1054
7135,958,1053
7136,958,1049
7137,960,1047
7138,961,1050
7139,961,1053
7140,963,1050
7141,965,1051
7142,966,1053
7143,969,1055
7144,966,1053
7145,966,1044
7146,964,1046
7147,963,1051
7148,962,1053
7149,963,1051
7150,964,1046
7151,964,1049
7152,964,1053
7153,965,1049
7154,971,1046
7155,972,1048
7156,971,1050
7157,966,1048
7158,970,1046
7159,973,1048
7160,977,1052
7161,978,1050
7162,977,1045
7163,976,1042
7164,976,1047
7165,979,1051
7166,979,1047
7167,979,1046
7168,975,1050
7169,974,1052
7170,975,1047
7171,977,1046
7172,981,1049
7173,981,1049
7174,981,1047
7175,981,1042
7176,979,1046
7177,980,1051
7178,986,1048
7179,989,1043
7180,991,1044
7181,990,1047
7182,989,1043
7183,994,1043
7184,995,1045
7185,994,1050
7186,995,1042
7187,993,1037
7188,991,1042
7189,992,1046
7190,992,1047
7191,989,1043
7192,991,1044
7193,991,1046
7194,994,1041
7195,991,1042
7196,993,1045
7197,993,1048
7198,991,1042
7199,992,1037
7200,992,1043
7201,993,1049
7202,994,1045
7203,993,1039
7204,990,1041
7205,989,1043
7206,987,1040
7207,986,1038
7208,989,1043
7209,986,1045
7210,986,1041
7211,983,1035
7212,979,1040
7213,979,1046
7214,979,1043
7215,975,1038
7216,973,1038
7217,972,1044
7218,975,1040
7219,981,1041
7220,982,1042
7221,982,1047
7222,980,1041
7223,978,1035
7224,978,1039
7225,980,1045
7226,983,1046
7227,982,1041
7228,981,1040
7229,979,1043
7230,983,1044
7231,983,1040
7232,985,1042
7233,993,1046
7234,997,1044
7235,999,1039
7236,1002,1040
7237,1006,1046
7238,1011,1046
7239,1016,1044
7240,1022,1037
7241,1022,1038
7242,1022,1043
7243,1022,1038
7244,1027,1034
7245,1032,1034
7246,1041,1034
7247,1045,1030
7248,1037,1023
7249,1031,1022
7250,1009,1027
7251,961,1024
7252,885,1017
7253,805,1013
7254,732,1019
7255,672,1023
7256,630,1020
7257,608,1019
7258,602,1019
7259,601,1025
7260,601,1029
7261,607,1027
7262,622,1029
7263,639,1036
7264,658,1039
7265,680,1034
7266,701,1039
7267,722,1048
7268,747,1053
7269,775,1052
7270,797,1047
7271,812,1049
7272,825,1053
7273,843,1056
7274,861,1053
7275,873,1051
7276,886,1055
7277,893,1052
7278,901,1049
7279,912,1046
7280,921,1049
7281,932,1054
7282,942,1050
7283,951,1044
7284,960,1047
7285,974,1055
7286,992,1054
7287,1005,1049
7288,1019,1046
7289,1025,1048
7290,1035,1052
7291,1041,1051
7292,1050,1048
7293,1055,1053
7294,1061,1055
7295,1067,1052
7296,1069,1049
7297,1077,1050
7298,1080,1054
7299,1087,1060
7300,1090,1056
7301,1094,1051
7302,1098,1055
7303,1103,1059
7304,1109,1060
7305,1108,1057
7306,1109,1055
7307,1109,1056
7308,1108,1062
7309,1112,1059
7310,1116,1058
7311,1117,1060
7312,1120,1064
7313,1124,1060
7314,1127,1057
7315,1131,1059
7316,1136,1062
7317,1138,1064
7318,1140,1058
7319,1144,1055
7320,1146,1059
7321,1148,1065
7322,1154,1062
7323,1159,1057
7324,1164,1056
7325,1163,1058
7326,1166,1063
7327,1167,1060
7328,1172,1061
7329,1173,1061
7330,1172,1063
7331,1171,1060
7332,1174,1056
7333,1178,1058
7334,1178,1064
7335,1179,1063
7336,1179,1058
7337,1175,1053
7338,1175,1057
7339,1179,1064
7340,1180,1065
7341,1178,1060
7342,1176,1057
7343,1172,1055
7344,1170,1061
7345,1169,1061
7346,1169,1058
7347,1167,1055
7348,1162,1059
7349,1158,1062
7350,1154,1058
7351,1148,1057
7352,1147,1060
7353,1143,1063
7354,1139,1060
7355,1134,1056
7356,1128,1055
7357,1120,1062
7358,1119,1065
7359,1110,1062
7360,1105,1055
7361,1098,1056
7362,1098,1060
7363,1093,1062
7364,1092,1059
7365,1086,1058
7366,1082,1056
7367,1078,1062
7368,1074,1061
7369,1072,1060
7370,1068,1056
7371,1066,1060
7372,1064,1060
7373,1057,1059
7374,1055,1053
7375,1053,1054
7376,1051,1058
7377,1049,1059
7378,1044,1058
7379,1041,1049
7380,1037,1050
7381,1036,1054
7382,1038,1059
7383,1038,1058
7384,1033,1053
7385,1028,1049
7386,1025,1054
7387,1025,1057
7388,1023,1059
7389,1021,1052
7390,1021,1051
7391,1018,1051
7392,1013,1055
7393,1013,1057
7394,1018,1054
7395,1016,1050
7396,1015,1051
7397,1017,1052
7398,1020,1055
7399,1022,1051
7400,1023,1050
7401,1020,1054
7402,1017,1052
7403,1018,1050
7404,1017,1047
7405,1018,1051
7406,1019,1055
7407,1018,1054
7408,1018,1048
7409,1016,1044
7410,1017,1047
7411,1015,1052
7412,1014,1051
7413,1013,1045
7414,1012,1039
7415,1011,1045
7416,1011,1049
7417,1015,1048
7418,1018,1043
7419,1029,1044
7420,1041,1046
7421,1050,1045
7422,1059,1040
7423,1066,1039
7424,1076,1039
7425,1081,1045
7426,1081,1044
7427,1084,1038
7428,1093,1034
7429,1101,1039
7430,1116,1043
7431,1129,1043
7432,1143,1038
7433,1154,1034
7434,1164,1038
7435,1180,1044
7436,1198,1049
7437,1210,1046
7438,1219,1038
7439,1230,1039
7440,1236,1044
7441,1244,1043
7442,1256,1044
7443,1273,1037
7444,1300,1038
7445,1324,1042
7446,1342,1047
7447,1359,1048
7448,1365,1045
7449,1370,1047
7450,1376,1051
7451,1380,1050
7452,1392,1050
7453,1405,1047
7454,1419,1050
7455,1431,1053
7456,1442,1051
7457,1441,1045
7458,1433,1043
7459,1411,1045
7460,1374,1052
7461,1329,1048
7462,1290,1042
7463,1248,1038
7464,1200,1043
7465,1145,1050
7466,1091,1047
7467,1042,1044
7468,999,1040
7469,964,1042
7470,938,1046
7471,927,1046
7472,923,1042
7473,919,1042
7474,911,1047
7475,909,1048
7476,907,1044
7477,904,1041
7478,904,1044
7479,899,1048
7480,896,1046
7481,893,1043
7482,888,1039
7483,885,1042
7484,884,1047
7485,883,1046
7486,878,1042
7487,874,1039
7488,869,1043
7489,869,1049
7490,869,1045
7491,867,1040
7492,865,1042
7493,862,1044
7494,858,1047
7495,854,1043
7496,854,1045
7497,853,1047
7498,854,1048
7499,853,1044
7500,851,1043
7501,851,1044
7502,852,1051
7503,854,1056
7504,852,1050
7505,849,1045
7506,849,1047
7507,849,1051
7508,848,1051
7509,845,1047
7510,839,1042
7511,837,1044
7512,834,1049
7513,833,1050
7514,834,1045
7515,828,1045
7516,822,1045
7517,819,1044
7518,816,1039
7519,819,1039
7520,824,1043
7521,826,1047
7522,820,1045
7523,817,1040
7524,823,1041
7525,827,1048
7526,828,1051
7527,829,1050
7528,829,1047
7529,831,1049
7530,831,1057
7531,832,1054
7532,832,1051
7533,837,1051
7534,837,1049
7535,839,1047
7536,838,1046
7537,843,1046
7538,851,1051
7539,856,1052
7540,857,1049
7541,859,1046
7542,862,1049
7543,867,1051
7544,870,1051
7545,872,1045
7546,878,1047
7547,888,1049
7548,895,1052
7549,902,1053
7550,907,1048
7551,912,1052
7552,917,1052
7553,920,1049
7554,925,1048
7555,930,1052
7556,935,1057
7557,935,1057
7558,938,1052
7559,942,1050
7560,946,1052
7561,950,1055
7562,956,1051
7563,961,1049
7564,964,1050
7565,962,1052
7566,963,1050
7567,965,1049
7568,969,1052
7569,972,1053
7570,976,1051
7571,975,1044
7572,977,1044
7573,981,1051
7574,983,1055
7575,986,1055
7576,987,1051
7577,987,1050
7578,984,1053
7579,987,1057
7580,989,1052
7581,989,1054
7582,989,1056
7583,987,1056
7584,983,1055
7585,983,1055
7586,983,1059
7587,984,1059
7588,985,1056
7589,982,1052
7590,978,1052
7591,979,1059
7592,981,1057
7593,979,1057
7594,982,1053
7595,981,1053
7596,983,1053
7597,985,1051
7598,983,1051
7599,988,1054
7600,986,1057
7601,985,1053
7602,987,1051
7603,987,1052
7604,989,1054
7605,990,1051
7606,992,1049
7607,992,1045
7608,991,1050
7609,992,1054
7610,993,1052
7611,991,1052
7612,991,1051
7613,991,1052
7614,993,1050
7615,993,1050
7616,995,1051
7617,995,1055
7618,998,1056
7619,1002,1052
7620,1000,1050
7621,1005,1056
7622,1005,1058
7623,1006,1052
7624,1003,1047
7625,1004,1047
7626,1004,1053
7627,1006,1052
7628,1007,1050
7629,1006,1049
7630,1006,1045
7631,1005,1045
7632,1005,1045
7633,1001,1043
7634,1003,1047
7635,1004,1050
7636,1004,1046
7637,1004,1043
7638,1005,1044
7639,1007,1048
7640,1009,1050
7641,1010,1049
7642,1010,1043
7643,1008,1047
7644,1007,1051
7645,1007,1050
7646,1012,1048
7647,1013,1049
7648,1013,1052
7649,1014,1051
7650,1014,1045
7651,1015,1049
7652,1015,1053
7653,1013,1059
7654,1011,1055
7655,1011,1055
7656,1010,1056
7657,1011,1060
7658,1013,1058
7659,1012,1055
7660,1010,1055
7661,1006,1060
7662,1004,1061
7663,1006,1061
7664,1006,1061
7665,1003,1062
7666,998,1059
7667,998,1051
7668,998,1049
7669,1000,1054
7670,1000,1056
7671,1002,1054
7672,1003,1044
7673,1003,1041
7674,1004,1043
7675,1007,1042
7676,1010,1037
7677,1007,1036
7678,1009,1037
7679,1006,1041
7680,1006,1043
7681,1008,1042
7682,1011,1044
7683,1004,1049
7684,1009,1048
7685,1005,1044
7686,1004,1044
7687,1006,1046
7688,1007,1051
7689,1005,1050
7690,1006,1047
7691,1004,1047
7692,1003,1051
7693,1006,1050
7694,1007,1048
7695,1004,1047
7696,1004,1048
7697,1000,1048
7698,1003,1047
7699,1006,1048
7700,1010,1051
7701,1011,1055
7702,1011,1048
7703,1009,1043
7704,1009,1045
7705,1008,1052
7706,1009,1055
7707,1010,1052
7708,1009,1048
7709,1009,1053
7710,1007,1054
7711,1008,1051
7712,1010,1047
7713,1008,1050
7714,1010,1054
7715,1009,1054
7716,1009,1050
7717,1012,1049
7718,1015,1055
7719,1018,1054
7720,1016,1050
7721,1014,1043
7722,1012,1047
7723,1013,1052
7724,1016,1056
7725,1014,1050
7726,1013,1049
7727,1009,1047
7728,1010,1052
7729,1012,1051
7730,1013,1050
7731,1014,1050
7732,1012,1051
7733,1009,1053
7734,1008,1051
7735,1011,1052
7736,1012,1055
7737,1012,1056
7738,1012,1050
7739,1014,1045
7740,1013,1046
7741,1012,1051
7742,1012,1055
7743,1010,1052
7744,1009,1048
7745,1010,1048
7746,1011,1052
7747,1012,1049
7748,1009,1047
7749,1008,1047
7750,1008,1049
7751,1008,1048
7752,1009,1050
7753,1011,1050
7754,1011,1053
7755,1010,1053
7756,1012,1049
7757,1008,1045
7758,1009,1044
7759,1007,1050
7760,1007,1051
7761,1005,1050
7762,1001,1045
7763,999,1045
7764,998,1047
7765,1001,1046
7766,1003,1043
7767,1004,1042
7768,1003,1045
7769,1000,1048
7770,999,1050
7771,1002,1046
7772,1007,1047
7773,1008,1051
7774,1009,1049
7775,1012,1045
7776,1013,1045
7777,1012,1046
7778,1008,1051
7779,1004,1050
7780,1004,1047
7781,999,1046
7782,1002,1050
7783,1005,1053
7784,1004,1051
7785,1004,1047
7786,1000,1046
7787,995,1048
7788,994,1049
7789,997,1048
7790,1001,1049
7791,1004,1052
7792,1005,1052
7793,1002,1046
7794,1002,1043
7795,999,1048
7796,1000,1054
7797,1001,1054
7798,1002,1050
7799,1003,1048
7800,1003,1052
7801,1005,1050
7802,1006,1050
7803,1006,1047
7804,1007,1044
7805,1002,1048
7806,1002,1049
7807,1004,1049
7808,1003,1049
7809,1001,1049
7810,1002,1047
7811,1002,1043
7812,1002,1042
7813,1000,1045
7814,1000,1050
7815,998,1051
7816,1002,1049
7817,1001,1043
7818,1004,1048
7819,1009,1050
7820,1013,1050
7821,1014,1047
7822,1016,1044
7823,1017,1048
7824,1017,1054
7825,1020,1054
7826,1018,1053
7827,1016,1056
7828,1015,1055
7829,1017,1053
7830,1016,1050
7831,1017,1049
7832,1018,1055
7833,1018,1057
7834,1016,1050
7835,1015,1050
7836,1015,1054
7837,1019,1057
7838,1016,1056
7839,1014,1052
7840,1012,1052
7841,1009,1057
7842,1011,1058
7843,1013,1056
7844,1013,1054
7845,1013,1058
7846,1010,1056
7847,1010,1052
7848,1011,1052
7849,1013,1053
7850,1013,1058
7851,1008,1056
7852,1007,1054
7853,1008,1052
7854,1008,1056
7855,1011,1057
7856,1010,1053
7857,1004,1050
7858,1005,1052
7859,1009,1056
7860,1016,1054
7861,1018,1050
7862,1021,1055
7863,1020,1056
7864,1019,1057
7865,1017,1050
7866,1015,1050
7867,1016,1053
7868,1019,1058
7869,1020,1056
7870,1019,1051
7871,1013,1050
7872,1011,1056
7873,1011,1052
7874,1015,1048
7875,1018,1049
7876,1016,1051
7877,1013,1053
7878,1008,1050
7879,1004,1054
7880,1007,1056
7881,1009,1053
7882,1009,1040
7883,1009,1037
7884,1004,1044
7885,1006,1047
7886,1005,1043
7887,1014,1041
7888,1029,1043
7889,1043,1043
7890,1056,1038
7891,1070,1035
7892,1092,1040
7893,1110,1042
7894,1130,1039
7895,1149,1035
7896,1174,1039
7897,1199,1045
7898,1221,1043
7899,1237,1039
7900,1240,1041
7901,1230,1047
7902,1206,1049
7903,1173,1048
7904,1127,1054
7905,1060,1059
7906,995,1058
7907,950,1056
7908,933,1057
7909,932,1065
7910,941,1065
7911,951,1060
7912,959,1055
7913,961,1057
7914,963,1057
7915,966,1053
7916,974,1049
7917,979,1049
7918,980,1050
7919,976,1043
7920,972,1037
7921,970,1039
7922,969,1043
7923,971,1038
7924,969,1031
7925,970,1028
7926,972,1035
7927,977,1036
7928,985,1039
7929,987,1044
7930,986,1044
7931,984,1039
7932,983,1040
7933,986,1046
7934,992,1050
7935,996,1049
7936,995,1044
7937,992,1046
7938,990,1051
7939,992,1052
7940,991,1049
7941,991,1052
7942,992,1056
7943,994,1051
7944,1000,1052
7945,1008,1058
7946,1010,1061
7947,1006,1054
7948,989,1048
7949,980,1048
7950,976,1053
7951,980,1052
7952,989,1048
7953,995,1051
7954,992,1054
7955,992,1048
7956,991,1045
7957,995,1048
7958,998,1055
7959,1000,1051
7960,1001,1046
7961,999,1048
7962,1001,1052
7963,1004,1051
7964,1008,1046
7965,1008,1049
7966,1006,1051
7967,1008,1046
7968,1010,1045
7969,1012,1049
7970,1017,1054
7971,1019,1052
7972,1022,1048
7973,1022,1044
7974,1024,1050
7975,1026,1050
7976,1031,1048
7977,1025,1048
7978,1020,1050
7979,1019,1052
7980,1018,1047
7981,1021,1047
7982,1022,1052
7983,1015,1053
7984,1011,1049
7985,1008,1046
7986,1013,1051
7987,1019,1054
7988,1026,1054
7989,1030,1049
7990,1031,1048
7991,1029,1044
7992,1029,1045
7993,1034,1051
7994,1037,1054
7995,1036,1049
7996,1036,1047
7997,1035,1045
7998,1039,1048
7999,1043,1044
8000,1040,1044
8001,1032,1047
8002,1025,1049
8003,1019,1047
8004,1024,1046
8005,1028,1048
8006,1030,1050
8007,1029,1047
8008,1027,1044
8009,1022,1045
8010,1022,1049
8011,1023,1045
8012,1021,1045
8013,1023,1048
8014,1029,1049
8015,1029,1044
8016,1028,1042
8017,1027,1044
8018,1030,1049
8019,1032,1051
8020,1033,1044
8021,1026,1043
8022,1018,1046
8023,1006,1044
8024,997,1044
8025,992,1044
8026,994,1047
8027,995,1045
8028,997,1041
8029,1001,1045
8030,1001,1047
8031,997,1046
8032,996,1042
8033,994,1037
8034,996,1043
8035,997,1045
8036,998,1045
8037,997,1044
8038,1001,1043
8039,1004,1040
8040,1009,1040
8041,1010,1040
8042,1006,1046
8043,999,1046
8044,998,1043
8045,997,1039
8046,1006,1041
8047,1015,1045
8048,1011,1044
8049,1020,1041
8050,1020,1042
8051,1020,1042
8052,1021,1041
8053,1031,1040
8054,1042,1042
8055,1047,1040
8056,1048,1035
8057,1042,1030
8058,1037,1032
8059,1034,1035
8060,1033,1029
8061,1032,1024
8062,1038,1024
8063,1032,1021
8064,1017,1018
8065,984,1016
8066,930,1018
8067,852,1019
8068,767,1016
8069,687,1014
8070,631,1018
8071,607,1019
8072,607,1018
8073,604,1016
8074,605,1020
8075,612,1023
8076,630,1020
8077,658,1020
8078,686,1029
8079,708,1031
8080,727,1029
8081,745,1028
8082,765,1034
8083,795,1041
8084,824,1047
8085,849,1044
8086,870,1042
8087,882,1046
8088,889,1043
8089,900,1039
8090,904,1040
8091,904,1042
8092,901,1042
8093,902,1035
8094,913,1033
8095,929,1037
8096,950,1039
8097,963,1034
8098,980,1030
8099,994,1032
8100,1007,1037
8101,1018,1037
8102,1025,1036
8103,1036,1039
8104,1047,1039
8105,1054,1033
8106,1060,1033
8107,1067,1036
8108,1076,1044
8109,1085,1047
8110,1092,1042
8111,1097,1037
8112,1096,1043
8113,1100,1048
8114,1103,1043
8115,1103,1040
8116,1098,1041
8117,1093,1043
8118,1093,1042
8119,1103,1040
8120,1110,1045
8121,1116,1048
8122,1114,1044
8123,1110,1039
8124,1110,1042
8125,1118,1050
8126,1130,1051
8127,1137,1047
8128,1142,1047
8129,1144,1049
8130,1144,1050
8131,1141,1047
8132,1142,1049
8133,1148,1052
8134,1152,1052
8135,1155,1048
8136,1151,1048
8137,1151,1051
8138,1154,1054
8139,1156,1050
8140,1159,1047
8141,1159,1045
8142,1157,1053
8143,1158,1055
8144,1158,1051
8145,1160,1054
8146,1161,1053
8147,1165,1047
8148,1167,1045
8149,1173,1047
8150,1172,1053
8151,1171,1054
8152,1168,1048
8153,1161,1044
8154,1159,1048
8155,1151,1052
8156,1145,1050
8157,1145,1045
8158,1147,1046
8159,1145,1049
8160,1138,1048
8161,1129,1051
8162,1124,1051
8163,1121,1053
8164,1121,1051
8165,1117,1047
8166,1109,1044
8167,1105,1051
8168,1104,1054
8169,1104,1056
8170,1106,1048
8171,1102,1047
8172,1092,1052
8173,1080,1051
8174,1072,1049
8175,1068,1047
8176,1063,1048
8177,1061,1049
8178,1053,1046
8179,1047,1045
8180,1044,1049
8181,1045,1047
8182,1048,1042
8183,1044,1038
8184,1036,1042
8185,1028,1048
8186,1028,1047
8187,1029,1045
8188,1031,1042
8189,1031,1043
8190,1031,1046
8191,1029,1040
8192,1026,1039
8193,1023,1044
8194,1021,1043
8195,1018,1039
8196,1014,1036
8197,1012,1039
8198,1017,1044
8199,1017,1038
8200,1018,1033
8201,1015,1033
8202,1014,1039
8203,1017,1042
8204,1020,1040
8205,1024,1040
8206,1025,1040
8207,1028,1037
8208,1033,1034
8209,1035,1039
8210,1031,1042
8211,1023,1044
8212,1015,1039
8213,1006,1035
8214,1005,1037
8215,1001,1040
8216,995,1035
8217,995,1032
8218,994,1033
8219,999,1035
8220,1003,1036
8221,1008,1038
8222,1010,1036
8223,1012,1039
8224,1010,1039
8225,1007,1033
8226,1008,1031
8227,1013,1036
8228,1021,1040
8229,1023,1036
8230,1018,1034
8231,1009,1032
8232,1001,1035
8233,1004,1033
8234,1009,1030
8235,1013,1032
8236,1012,1035
8237,1011,1033
8238,998,1031
8239,984,1034
8240,979,1038
8241,983,1036
8242,993,1030
8243,999,1028
8244,1000,1032
8245,999,1036
8246,1001,1035
8247,1000,1036
8248,1000,1035
8249,998,1035
8250,996,1034
8251,997,1033
8252,1001,1040
8253,1002,1043
8254,1001,1037
8255,1003,1032
8256,1004,1037
8257,1010,1040
8258,1013,1036
8259,1012,1034
8260,1011,1039
8261,1008,1039
8262,1007,1038
8263,1005,1037
8264,1008,1042
8265,1008,1037
8266,1006,1029
8267,1004,1026
8268,1002,1033
8269,1002,1036
8270,1003,1031
8271,1001,1030
8272,1003,1034
8273,1006,1029
8274,1009,1025
8275,1008,1027
8276,1008,1034
8277,1006,1031
8278,1008,1023
8279,1010,1023
8280,1010,1028
8281,1016,1029
8282,1020,1024
8283,1016,1027
8284,1011,1029
8285,1001,1027
8286,999,1024
8287,1001,1027
8288,1003,1030
8289,1003,1026
8290,1000,1021
8291,999,1024
8292,997,1027
8293,994,1025
8294,996,1023
8295,995,1029
8296,998,1027
8297,1000,1020
8298,1000,1019
8299,1002,1027
8300,1000,1030
8301,998,1027
8302,997,1026
8303,998,1031
8304,1001,1029
8305,1007,1028
8306,1007,1028
8307,1005,1033
8308,999,1031
8309,999,1026
8310,1005,1028
8311,1008,1031
8312,1009,1029
8313,1010,1023
8314,1007,1027
8315,1009,1029
8316,1011,1030
8317,1011,1027
8318,1007,1029
8319,999,1031
8320,996,1025
8321,996,1022
8322,999,1029
8323,1008,1033
8324,1018,1027
8325,1018,1027
8326,1016,1030
8327,1011,1031
8328,1008,1023
8329,1015,1027
8330,1016,1035
8331,1016,1035
8332,1015,1027
8333,1013,1028
8334,1013,1032
8335,1014,1032
8336,1015,1028
8337,1016,1028
8338,1012,1031
8339,1008,1029
8340,1005,1023
8341,1006,1028
8342,1007,1030
8343,1005,1027
8344,1003,1022
8345,1004,1025
8346,1002,1030
8347,1004,1028
8348,1003,1024
8349,1008,1027
8350,1008,1028
8351,1006,1023
8352,1006,1022
8353,1008,1031
8354,1010,1031
8355,1009,1027
8356,1007,1027
8357,1005,1025
8358,1005,1024
8359,1007,1027
8360,1013,1030
8361,1018,1030
8362,1010,1025
8363,1001,1025
8364,995,1029
8365,997,1029
8366,1003,1029
8367,1007,1029
8368,1006,1033
8369,1002,1029
8370,998,1031
8371,1001,1038
8372,1005,1036
8373,1003,1033
8374,1005,1031
8375,1004,1033
8376,1005,1032
8377,1008,1032
8378,1007,1035
8379,1005,1038
8380,998,1031
8381,994,1028
8382,996,1028
8383,1004,1033
8384,1019,1030
8385,1035,1028
8386,1059,1034
8387,1079,1031
8388,1100,1029
8389,1122,1029
8390,1147,1034
8391,1175,1035
8392,1204,1033
8393,1233,1033
8394,1254,1039
8395,1262,1039
8396,1252,1036
8397,1227,1039
8398,1181,1040
8399,1106,1036
8400,1030,1041
8401,981,1045
8402,960,1051
8403,955,1047
