'sample #','MLII','V1'
0,1024,1049
1,1024,1049
2,1024,1049
3,1024,1049
4,1024,1049
5,1024,1049
6,1024,1049
7,1024,1049
8,1024,1049
9,1025,1050
10,1027,1053
11,1029,1058
12,1031,1056
13,1031,1052
14,1027,1051
15,1027,1050
16,1029,1052
17,1034,1053
18,1036,1052
19,1035,1048
20,1032,1047
21,1033,1049
22,1037,1050
23,1041,1049
24,1043,1046
25,1041,1045
26,1041,1040
27,1041,1042
28,1045,1045
29,1049,1044
30,1051,1041
31,1051,1038
32,1051,1036
33,1053,1036
34,1054,1036
35,1059,1038
36,1063,1033
37,1064,1028
38,1060,1027
39,1062,1027
40,1067,1030
41,1075,1031
42,1078,1029
43,1079,1025
44,1077,1025
45,1078,1023
46,1080,1024
47,1085,1027
48,1089,1024
49,1088,1024
50,1089,1021
51,1088,1025
52,1091,1025
53,1094,1030
54,1095,1027
55,1091,1026
56,1089,1027
57,1087,1030
58,1087,1032
59,1086,1040
60,1082,1039
61,1077,1038
62,1071,1039
63,1067,1042
64,1063,1048
65,1060,1050
66,1058,1046
67,1052,1042
68,1045,1043
69,1041,1045
70,1042,1046
71,1041,1048
72,1039,1049
73,1033,1045
74,1026,1046
75,1022,1048
76,1022,1051
77,1025,1053
78,1025,1050
79,1021,1047
80,1018,1047
81,1015,1049
82,1015,1049
83,1019,1052
84,1018,1051
85,1018,1046
86,1014,1045
87,1010,1047
88,1014,1049
89,1016,1053
90,1017,1051
91,1014,1048
92,1010,1048
93,1010,1048
94,1012,1052
95,1015,1053
96,1015,1050
97,1012,1047
98,1012,1047
99,1009,1047
100,1014,1050
101,1016,1052
102,1018,1053
103,1017,1050
104,1012,1050
105,1007,1053
106,1011,1054
107,1015,1058
108,1015,1057
109,1014,1055
110,1011,1052
111,1009,1052
112,1012,1054
113,1013,1055
114,1014,1054
115,1012,1053
116,1008,1052
117,1007,1055
118,1009,1059
119,1015,1059
120,1016,1057
121,1013,1055
122,1012,1052
123,1009,1052
124,1011,1057
125,1012,1061
126,1013,1057
127,1013,1055
128,1009,1051
129,1010,1053
130,1014,1055
131,1015,1057
132,1015,1055
133,1013,1052
134,1010,1051
135,1008,1051
136,1009,1056
137,1013,1061
138,1015,1056
139,1012,1056
140,1010,1055
141,1007,1054
142,1011,1056
143,1014,1059
144,1014,1057
145,1014,1055
146,1011,1051
147,1009,1056
148,1012,1058
149,1014,1060
150,1016,1061
151,1014,1057
152,1010,1055
153,1011,1054
154,1012,1057
155,1011,1058
156,1013,1057
157,1013,1054
158,1008,1054
159,1008,1055
160,1011,1059
161,1013,1059
162,1016,1061
163,1015,1055
164,1011,1053
165,1008,1054
166,1010,1056
167,1012,1057
168,1012,1059
169,1010,1057
170,1011,1054
171,1007,1055
172,1014,1059
173,1015,1059
174,1014,1057
175,1013,1053
176,1010,1053
177,1010,1052
178,1014,1055
179,1014,1058
180,1017,1060
181,1015,1056
182,1011,1054
183,1011,1056
184,1012,1058
185,1013,1059
186,1013,1059
187,1013,1055
188,1011,1055
189,1013,1055
190,1014,1061
191,1016,1062
192,1017,1061
193,1016,1057
194,1012,1055
195,1011,1056
196,1011,1058
197,1015,1060
198,1013,1059
199,1013,1055
200,1012,1052
201,1011,1056
202,1010,1060
203,1014,1063
204,1016,1059
205,1014,1057
206,1012,1053
207,1011,1055
208,1014,1054
209,1019,1059
210,1018,1058
211,1015,1054
212,1013,1056
213,1011,1056
214,1014,1058
215,1015,1058
216,1016,1055
217,1015,1052
218,1014,1054
219,1011,1053
220,1013,1058
221,1018,1062
222,1016,1060
223,1017,1057
224,1016,1051
225,1013,1056
226,1014,1057
227,1020,1058
228,1018,1057
229,1015,1053
230,1014,1054
231,1014,1053
232,1016,1056
233,1019,1060
234,1018,1057
235,1017,1053
236,1013,1052
237,1017,1052
238,1018,1058
239,1020,1059
240,1019,1060
241,1019,1055
242,1017,1055
243,1016,1056
244,1019,1060
245,1021,1058
246,1020,1058
247,1018,1057
248,1017,1056
249,1014,1057
250,1019,1060
251,1021,1061
252,1020,1062
253,1020,1054
254,1016,1051
255,1014,1051
256,1019,1054
257,1020,1053
258,1023,1053
259,1020,1051
260,1019,1048
261,1019,1051
262,1020,1054
263,1023,1058
264,1022,1055
265,1022,1053
266,1016,1052
267,1019,1052
268,1021,1055
269,1023,1057
270,1025,1055
271,1022,1051
272,1018,1050
273,1018,1050
274,1020,1052
275,1023,1055
276,1022,1051
277,1019,1049
278,1017,1045
279,1017,1048
280,1022,1049
281,1023,1054
282,1024,1052
283,1023,1051
284,1019,1050
285,1020,1054
286,1020,1058
287,1022,1063
288,1024,1061
289,1020,1058
290,1017,1057
291,1015,1061
292,1016,1064
293,1021,1067
294,1024,1060
295,1027,1058
296,1029,1051
297,1027,1053
298,1033,1056
299,1033,1059
300,1036,1057
301,1034,1055
302,1029,1052
303,1032,1055
304,1033,1056
305,1034,1056
306,1032,1053
307,1028,1051
308,1025,1052
309,1024,1053
310,1022,1054
311,1026,1056
312,1023,1053
313,1021,1051
314,1017,1046
315,1017,1046
316,1016,1050
317,1019,1053
318,1023,1053
319,1023,1049
320,1023,1048
321,1019,1049
322,1020,1050
323,1023,1053
324,1022,1051
325,1023,1049
326,1019,1047
327,1021,1048
328,1020,1052
329,1027,1053
330,1027,1057
331,1029,1059
332,1029,1061
333,1030,1065
334,1038,1064
335,1044,1055
336,1052,1033
337,1054,1006
338,1059,979
339,1071,953
340,1089,928
341,1117,898
342,1142,862
343,1172,836
344,1199,820
345,1225,830
346,1252,847
347,1282,868
348,1307,890
349,1317,924
350,1312,958
351,1284,990
352,1245,1018
353,1200,1039
354,1158,1046
355,1118,1043
356,1081,1035
357,1051,1029
358,1037,1032
359,1034,1041
360,1035,1045
361,1037,1044
362,1036,1044
363,1033,1050
364,1030,1051
365,1030,1052
366,1028,1052
367,1024,1050
368,1018,1047
369,1015,1051
370,1015,1054
371,1017,1057
372,1017,1056
373,1013,1054
374,1011,1054
375,1010,1054
376,1011,1055
377,1013,1056
378,1011,1057
379,1013,1054
380,1008,1053
381,1009,1056
382,1007,1060
383,1012,1060
384,1013,1057
385,1011,1053
386,1007,1048
387,1002,1048
388,1008,1051
389,1010,1053
390,1013,1049
391,1008,1047
392,1006,1047
393,1005,1046
394,1008,1049
395,1011,1055
396,1014,1051
397,1011,1047
398,1011,1044
399,1010,1046
400,1011,1048
401,1015,1049
402,1016,1047
403,1014,1045
404,1013,1044
405,1010,1042
406,1013,1044
407,1019,1048
408,1021,1049
409,1021,1044
410,1018,1041
411,1019,1047
412,1018,1044
413,1026,1048
414,1028,1045
415,1029,1042
416,1024,1042
417,1025,1040
418,1030,1039
419,1035,1040
420,1035,1037
421,1037,1031
422,1036,1028
423,1038,1029
424,1042,1030
425,1048,1030
426,1050,1028
427,1050,1023
428,1050,1023
429,1054,1024
430,1056,1024
431,1059,1026
432,1064,1021
433,1065,1022
434,1064,1018
435,1067,1017
436,1070,1016
437,1076,1019
438,1082,1018
439,1079,1013
440,1081,1013
441,1081,1014
442,1086,1017
443,1091,1021
444,1088,1022
445,1091,1022
446,1086,1020
447,1086,1024
448,1087,1028
449,1085,1033
450,1083,1031
451,1077,1031
452,1071,1031
453,1064,1034
454,1066,1038
455,1065,1039
456,1061,1040
457,1055,1039
458,1048,1037
459,1042,1040
460,1044,1043
461,1040,1046
462,1039,1046
463,1035,1042
464,1028,1042
465,1027,1045
466,1026,1047
467,1027,1051
468,1026,1048
469,1022,1049
470,1018,1050
471,1016,1052
472,1014,1055
473,1017,1055
474,1017,1050
475,1015,1044
476,1009,1039
477,1012,1038
478,1013,1038
479,1015,1040
480,1016,1041
481,1015,1041
482,1013,1039
483,1012,1040
484,1010,1044
485,1016,1047
486,1015,1043
487,1014,1043
488,1011,1040
489,1009,1041
490,1011,1046
491,1016,1049
492,1017,1048
493,1014,1046
494,1013,1046
495,1012,1047
496,1015,1049
497,1014,1050
498,1019,1049
499,1016,1045
500,1013,1046
501,1012,1048
502,1014,1052
503,1019,1053
504,1019,1053
505,1019,1052
506,1016,1050
507,1014,1051
508,1016,1054
509,1018,1055
510,1020,1050
511,1017,1048
512,1015,1047
513,1015,1047
514,1015,1049
515,1019,1052
516,1020,1054
517,1019,1050
518,1016,1050
519,1016,1048
520,1017,1050
521,1019,1051
522,1020,1050
523,1018,1048
524,1016,1045
525,1017,1047
526,1017,1050
527,1018,1052
528,1019,1050
529,1016,1047
530,1012,1047
531,1010,1048
532,1015,1050
533,1016,1052
534,1018,1051
535,1016,1049
536,1013,1046
537,1013,1046
538,1014,1049
539,1018,1051
540,1017,1049
541,1016,1046
542,1013,1048
543,1013,1048
544,1013,1053
545,1018,1055
546,1016,1054
547,1014,1051
548,1013,1049
549,1013,1048
550,1014,1049
551,1016,1052
552,1013,1050
553,1014,1048
554,1012,1047
555,1012,1046
556,1011,1048
557,1014,1052
558,1014,1049
559,1014,1046
560,1010,1043
561,1009,1047
562,1012,1048
563,1015,1048
564,1014,1045
565,1010,1044
566,1009,1042
567,1011,1046
568,1014,1048
569,1015,1053
570,1018,1051
571,1014,1048
572,1012,1048
573,1012,1046
574,1012,1049
575,1017,1051
576,1017,1052
577,1015,1048
578,1010,1045
579,1011,1047
580,1014,1050
581,1016,1055
582,1016,1052
583,1016,1048
584,1012,1047
585,1013,1049
586,1012,1052
587,1016,1053
588,1016,1054
589,1016,1050
590,1013,1048
591,1011,1050
592,1013,1051
593,1017,1053
594,1017,1051
595,1015,1049
596,1013,1051
597,1014,1050
598,1015,1051
599,1017,1052
600,1018,1049
601,1016,1043
602,1014,1045
603,1014,1045
604,1015,1047
605,1019,1050
606,1018,1049
607,1018,1048
608,1015,1047
609,1013,1047
610,1013,1049
611,1020,1052
612,1019,1048
613,1018,1048
614,1014,1044
615,1011,1045
616,1017,1049
617,1020,1050
618,1018,1050
619,1018,1045
620,1017,1044
621,1016,1047
622,1017,1050
623,1018,1052
624,1018,1052
625,1013,1049
626,1013,1047
627,1011,1048
628,1016,1051
629,1021,1055
630,1018,1055
631,1018,1050
632,1017,1050
633,1015,1047
634,1017,1051
635,1019,1053
636,1022,1049
637,1019,1043
638,1016,1043
639,1017,1044
640,1019,1046
641,1021,1049
642,1019,1050
643,1020,1045
644,1018,1044
645,1017,1043
646,1019,1046
647,1021,1047
648,1025,1049
649,1021,1048
650,1018,1046
651,1018,1048
652,1020,1050
653,1022,1052
654,1024,1051
655,1022,1047
656,1020,1047
657,1019,1046
658,1022,1050
659,1024,1050
660,1025,1050
661,1023,1048
662,1019,1044
663,1018,1046
664,1022,1049
665,1025,1054
666,1021,1051
667,1022,1047
668,1019,1044
669,1020,1045
670,1021,1046
671,1021,1046
672,1025,1046
673,1025,1043
674,1023,1044
675,1023,1044
676,1027,1047
677,1025,1050
678,1030,1051
679,1024,1051
680,1024,1051
681,1023,1053
682,1023,1056
683,1026,1058
684,1027,1058
685,1024,1054
686,1026,1053
687,1029,1055
688,1032,1055
689,1039,1054
690,1038,1051
691,1038,1048
692,1038,1045
693,1038,1049
694,1037,1051
695,1041,1053
696,1040,1050
697,1039,1048
698,1033,1045
699,1028,1043
700,1030,1046
701,1031,1050
702,1031,1048
703,1031,1047
704,1024,1045
705,1023,1048
706,1024,1046
707,1028,1048
708,1030,1047
709,1028,1044
710,1026,1043
711,1025,1042
712,1027,1049
713,1030,1050
714,1032,1049
715,1031,1047
716,1023,1046
717,1027,1045
718,1032,1047
719,1034,1051
720,1035,1049
721,1034,1047
722,1033,1044
723,1032,1049
724,1034,1054
725,1042,1062
726,1045,1063
727,1046,1057
728,1051,1046
729,1055,1031
730,1066,1011
731,1073,992
732,1085,967
733,1105,936
734,1124,902
735,1150,871
736,1178,847
737,1209,840
738,1234,841
739,1256,851
740,1278,864
741,1299,891
742,1317,928
743,1317,966
744,1298,994
745,1264,1015
746,1221,1028
747,1180,1034
748,1147,1033
749,1119,1032
750,1093,1031
751,1072,1032
752,1057,1036
753,1055,1042
754,1054,1047
755,1056,1049
756,1054,1049
757,1046,1049
758,1038,1052
759,1035,1051
760,1032,1056
761,1033,1058
762,1032,1056
763,1028,1053
764,1024,1052
765,1026,1052
766,1022,1056
767,1024,1058
768,1025,1056
769,1022,1052
770,1023,1051
771,1020,1055
772,1022,1055
773,1025,1058
774,1022,1058
775,1022,1056
776,1021,1054
777,1020,1056
778,1018,1058
779,1026,1059
780,1027,1057
781,1024,1054
782,1023,1053
783,1020,1055
784,1024,1057
785,1026,1060
786,1028,1060
787,1025,1057
788,1021,1055
789,1022,1053
790,1026,1056
791,1030,1059
792,1029,1058
793,1030,1057
794,1026,1051
795,1027,1053
796,1027,1056
797,1030,1057
798,1034,1055
799,1033,1054
800,1031,1051
801,1033,1053
802,1035,1054
803,1040,1056
804,1038,1056
805,1036,1051
806,1036,1049
807,1035,1051
808,1043,1052
809,1046,1053
810,1049,1050
811,1044,1046
812,1045,1042
813,1047,1043
814,1050,1046
815,1053,1047
816,1058,1046
817,1056,1042
818,1059,1040
819,1059,1040
820,1063,1040
821,1068,1041
822,1070,1039
823,1070,1033
824,1070,1032
825,1070,1033
826,1075,1034
827,1079,1035
828,1082,1031
829,1083,1030
830,1081,1025
831,1080,1027
832,1086,1029
833,1090,1029
834,1092,1029
835,1091,1025
836,1094,1024
837,1095,1023
838,1095,1027
839,1099,1033
840,1099,1032
841,1096,1030
842,1092,1028
843,1090,1034
844,1091,1036
845,1091,1041
846,1089,1042
847,1086,1041
848,1078,1040
849,1072,1043
850,1071,1047
851,1070,1048
852,1063,1047
853,1060,1046
854,1053,1046
855,1046,1046
856,1047,1050
857,1046,1053
858,1046,1050
859,1039,1046
860,1034,1043
861,1028,1048
862,1028,1052
863,1029,1055
864,1026,1056
865,1024,1052
866,1020,1047
867,1019,1049
868,1023,1052
869,1023,1053
870,1023,1052
871,1022,1051
872,1017,1046
873,1019,1050
874,1021,1052
875,1021,1053
876,1023,1052
877,1022,1048
878,1017,1046
879,1017,1050
880,1020,1053
881,1021,1052
882,1022,1050
883,1020,1052
884,1016,1047
885,1015,1050
886,1015,1054
887,1019,1055
888,1021,1057
889,1018,1055
890,1015,1051
891,1013,1050
892,1017,1052
893,1019,1056
894,1018,1055
895,1018,1053
896,1015,1052
897,1012,1054
898,1015,1059
899,1020,1060
900,1016,1058
901,1018,1054
902,1016,1053
903,1014,1055
904,1017,1056
905,1021,1060
906,1021,1057
907,1018,1055
908,1016,1054
909,1015,1053
910,1016,1056
911,1018,1056
912,1021,1055
913,1016,1053
914,1017,1051
915,1016,1053
916,1017,1055
917,1018,1057
918,1018,1054
919,1016,1052
920,1014,1051
921,1013,1052
922,1015,1053
923,1019,1054
924,1018,1053
925,1017,1050
926,1014,1050
927,1013,1050
928,1011,1055
929,1016,1056
930,1017,1054
931,1014,1048
932,1012,1049
933,1012,1051
934,1013,1053
935,1016,1053
936,1017,1053
937,1012,1050
938,1014,1049
939,1013,1051
940,1011,1055
941,1018,1056
942,1016,1055
943,1014,1052
944,1011,1052
945,1013,1050
946,1016,1053
947,1020,1054
948,1018,1053
949,1016,1051
950,1014,1050
951,1012,1052
952,1009,1053
953,1014,1055
954,1016,1053
955,1017,1051
956,1014,1052
957,1011,1052
958,1016,1054
959,1015,1054
960,1020,1054
961,1018,1050
962,1014,1049
963,1014,1049
964,1014,1051
965,1019,1051
966,1019,1053
967,1019,1049
968,1015,1048
969,1015,1049
970,1016,1051
971,1019,1055
972,1019,1050
973,1017,1050
974,1014,1048
975,1013,1047
976,1016,1051
977,1019,1052
978,1021,1052
979,1021,1051
980,1016,1049
981,1015,1049
982,1016,1053
983,1019,1055
984,1021,1053
985,1018,1050
986,1012,1048
987,1011,1051
988,1016,1052
989,1020,1055
990,1021,1055
991,1020,1052
992,1017,1049
993,1016,1049
994,1018,1052
995,1019,1052
996,1021,1052
997,1020,1050
998,1017,1048
999,1017,1052
1000,1023,1052
1001,1023,1051
1002,1019,1048
1003,1016,1045
1004,1016,1051
1005,1019,1051
1006,1021,1052
1007,1021,1050
1008,1021,1048
1009,1017,1045
1010,1018,1046
1011,1018,1047
1012,1021,1050
1013,1022,1050
1014,1023,1047
1015,1019,1044
1016,1018,1047
1017,1018,1051
1018,1020,1052
1019,1020,1050
1020,1018,1047
1021,1017,1046
1022,1017,1047
1023,1016,1049
1024,1019,1051
1025,1020,1048
1026,1020,1048
1027,1017,1047
1028,1019,1049
1029,1019,1051
1030,1023,1054
1031,1022,1053
1032,1021,1050
1033,1019,1047
1034,1019,1046
1035,1021,1049
1036,1023,1050
1037,1023,1047
1038,1023,1042
1039,1021,1042
1040,1018,1043
1041,1022,1044
1042,1022,1050
1043,1022,1046
1044,1020,1044
1045,1020,1043
1046,1020,1043
1047,1022,1046
1048,1027,1048
1049,1028,1051
1050,1024,1044
1051,1022,1045
1052,1021,1046
1053,1024,1048
1054,1026,1049
1055,1025,1049
1056,1025,1046
1057,1021,1044
1058,1021,1046
1059,1024,1046
1060,1026,1053
1061,1027,1051
1062,1024,1046
1063,1023,1045
1064,1023,1048
1065,1024,1050
1066,1025,1048
1067,1026,1050
1068,1022,1046
1069,1021,1043
1070,1020,1046
1071,1025,1048
1072,1025,1051
1073,1027,1049
1074,1029,1045
1075,1026,1043
1076,1020,1044
1077,1027,1048
1078,1030,1047
1079,1030,1047
1080,1025,1044
1081,1025,1041
1082,1025,1042
1083,1025,1044
1084,1029,1049
1085,1028,1050
1086,1028,1049
1087,1024,1050
1088,1026,1053
1089,1023,1057
1090,1028,1057
1091,1027,1056
1092,1022,1056
1093,1022,1055
1094,1022,1055
1095,1029,1057
1096,1031,1061
1097,1037,1055
1098,1036,1050
1099,1035,1048
1100,1036,1049
1101,1037,1050
1102,1040,1051
1103,1040,1050
1104,1037,1049
1105,1036,1046
1106,1034,1046
1107,1034,1050
1108,1034,1049
1109,1032,1048
1110,1030,1047
1111,1029,1045
1112,1025,1046
1113,1027,1047
1114,1029,1050
1115,1027,1047
1116,1025,1046
1117,1024,1044
1118,1020,1045
1119,1025,1049
1120,1028,1050
1121,1027,1048
1122,1027,1045
1123,1025,1042
1124,1023,1043
1125,1026,1046
1126,1026,1047
1127,1030,1047
1128,1030,1043
1129,1026,1043
1130,1025,1043
1131,1026,1046
1132,1029,1049
1133,1035,1046
1134,1029,1051
1135,1028,1050
1136,1031,1057
1137,1034,1058
1138,1037,1062
1139,1044,1056
1140,1047,1044
1141,1052,1023
1142,1053,1007
1143,1063,988
1144,1077,969
1145,1096,943
1146,1115,912
1147,1132,881
1148,1156,851
1149,1183,833
1150,1211,829
1151,1234,836
1152,1253,846
1153,1271,858
1154,1293,882
1155,1306,918
1156,1306,953
1157,1291,981
1158,1260,1007
1159,1222,1020
1160,1182,1033
1161,1149,1034
1162,1119,1034
1163,1091,1026
1164,1068,1025
1165,1052,1028
1166,1047,1036
1167,1048,1041
1168,1048,1046
1169,1048,1046
1170,1044,1046
1171,1039,1045
1172,1037,1049
1173,1033,1051
1174,1033,1056
1175,1030,1052
1176,1027,1050
1177,1022,1050
1178,1023,1054
1179,1023,1055
1180,1025,1059
1181,1023,1057
1182,1021,1055
1183,1019,1054
1184,1017,1051
1185,1017,1053
1186,1021,1057
1187,1022,1056
1188,1020,1054
1189,1018,1051
1190,1017,1052
1191,1019,1058
1192,1022,1058
1193,1021,1057
1194,1021,1055
1195,1018,1051
1196,1015,1051
1197,1015,1054
1198,1021,1055
1199,1020,1055
1200,1018,1051
1201,1017,1050
1202,1018,1052
1203,1016,1053
1204,1023,1057
1205,1022,1054
1206,1017,1052
1207,1021,1048
1208,1018,1052
1209,1019,1052
1210,1022,1053
1211,1024,1050
1212,1022,1050
1213,1022,1045
1214,1025,1047
1215,1025,1048
1216,1025,1049
1217,1029,1048
1218,1027,1047
1219,1025,1043
1220,1024,1047
1221,1026,1047
1222,1028,1050
1223,1033,1049
1224,1032,1043
1225,1030,1040
1226,1031,1041
1227,1032,1043
1228,1036,1041
1229,1039,1039
1230,1039,1035
1231,1036,1032
1232,1035,1033
1233,1039,1034
1234,1047,1034
1235,1049,1030
1236,1046,1028
1237,1045,1024
1238,1050,1025
1239,1053,1028
1240,1058,1028
1241,1061,1024
1242,1061,1024
1243,1062,1022
1244,1061,1020
1245,1067,1021
1246,1070,1022
1247,1073,1018
1248,1074,1016
1249,1071,1015
1250,1072,1015
1251,1077,1015
1252,1080,1017
1253,1085,1015
1254,1081,1010
1255,1084,1009
1256,1086,1010
1257,1087,1014
1258,1092,1018
1259,1095,1017
1260,1093,1018
1261,1090,1018
1262,1087,1022
1263,1089,1026
1264,1091,1029
1265,1087,1028
1266,1084,1029
1267,1080,1029
1268,1074,1031
1269,1076,1035
1270,1075,1041
1271,1072,1039
1272,1066,1036
1273,1060,1034
1274,1057,1035
1275,1053,1040
1276,1051,1044
1277,1051,1045
1278,1043,1042
1279,1038,1041
1280,1035,1041
1281,1032,1045
1282,1034,1047
1283,1033,1041
1284,1030,1041
1285,1025,1040
1286,1024,1042
1287,1026,1044
1288,1025,1046
1289,1027,1045
1290,1023,1041
1291,1017,1041
1292,1015,1041
1293,1016,1042
1294,1019,1046
1295,1022,1043
1296,1017,1042
1297,1010,1040
1298,1011,1042
1299,1016,1044
1300,1016,1047
1301,1016,1044
1302,1016,1042
1303,1012,1040
1304,1013,1040
1305,1011,1045
1306,1018,1048
1307,1020,1047
1308,1015,1042
1309,1014,1038
1310,1015,1042
1311,1014,1044
1312,1020,1046
1313,1020,1047
1314,1018,1046
1315,1014,1047
1316,1014,1045
1317,1015,1048
1318,1014,1051
1319,1016,1046
1320,1018,1043
1321,1015,1045
1322,1013,1044
1323,1013,1047
1324,1019,1048
1325,1018,1047
1326,1016,1045
1327,1013,1042
1328,1014,1043
1329,1016,1047
1330,1016,1049
1331,1018,1047
1332,1015,1043
1333,1016,1041
1334,1014,1044
1335,1017,1047
1336,1019,1046
1337,1019,1046
1338,1018,1043
1339,1012,1041
1340,1010,1043
1341,1014,1045
1342,1020,1048
1343,1020,1047
1344,1019,1045
1345,1016,1041
1346,1015,1043
1347,1018,1045
1348,1023,1046
1349,1024,1047
1350,1022,1043
1351,1020,1040
1352,1016,1041
1353,1020,1045
1354,1023,1045
1355,1023,1046
1356,1021,1045
1357,1016,1041
1358,1015,1041
1359,1017,1043
1360,1019,1046
1361,1024,1047
1362,1021,1045
1363,1017,1042
1364,1014,1045
1365,1018,1047
1366,1021,1048
1367,1022,1046
1368,1021,1043
1369,1017,1039
1370,1017,1042
1371,1017,1044
1372,1021,1045
1373,1020,1043
1374,1021,1040
1375,1018,1040
1376,1014,1041
1377,1017,1046
1378,1022,1048
1379,1024,1046
1380,1020,1043
1381,1018,1039
1382,1015,1042
1383,1020,1041
1384,1022,1044
1385,1023,1046
1386,1021,1044
1387,1017,1039
1388,1017,1041
1389,1018,1044
1390,1023,1044
1391,1021,1043
1392,1022,1038
1393,1016,1036
1394,1016,1039
1395,1015,1042
1396,1014,1044
1397,1017,1043
1398,1017,1036
1399,1011,1035
1400,1013,1037
1401,1013,1039
1402,1018,1045
1403,1020,1042
1404,1016,1039
1405,1015,1039
1406,1016,1038
1407,1016,1041
1408,1017,1044
1409,1019,1041
1410,1017,1039
1411,1016,1037
1412,1014,1039
1413,1016,1042
1414,1019,1043
1415,1018,1039
1416,1019,1038
1417,1016,1033
1418,1011,1038
1419,1014,1040
1420,1020,1041
1421,1021,1039
1422,1018,1037
1423,1017,1034
1424,1014,1038
1425,1017,1040
1426,1020,1042
1427,1019,1039
1428,1017,1037
1429,1012,1033
1430,1011,1034
1431,1015,1036
1432,1019,1041
1433,1018,1041
1434,1017,1037
1435,1012,1035
1436,1013,1037
1437,1016,1039
1438,1018,1041
1439,1017,1038
1440,1017,1036
1441,1017,1034
1442,1015,1036
1443,1014,1037
1444,1018,1042
1445,1021,1041
1446,1016,1039
1447,1012,1037
1448,1013,1038
1449,1016,1040
1450,1017,1043
1451,1017,1042
1452,1015,1039
1453,1014,1038
1454,1014,1039
1455,1016,1041
1456,1020,1041
1457,1018,1039
1458,1016,1036
1459,1015,1033
1460,1014,1038
1461,1018,1040
1462,1020,1042
1463,1020,1039
1464,1017,1039
1465,1016,1035
1466,1015,1035
1467,1017,1039
1468,1019,1040
1469,1020,1040
1470,1019,1037
1471,1017,1036
1472,1014,1038
1473,1016,1038
1474,1015,1044
1475,1020,1041
1476,1019,1037
1477,1018,1034
1478,1015,1038
1479,1016,1039
1480,1021,1041
1481,1022,1041
1482,1019,1037
1483,1017,1036
1484,1016,1036
1485,1017,1038
1486,1022,1043
1487,1023,1041
1488,1020,1039
1489,1016,1038
1490,1017,1036
1491,1021,1042
1492,1020,1043
1493,1019,1042
1494,1022,1040
1495,1015,1036
1496,1017,1035
1497,1018,1041
1498,1022,1042
1499,1020,1040
1500,1021,1038
1501,1019,1035
1502,1020,1036
1503,1020,1039
1504,1023,1040
1505,1025,1038
1506,1020,1035
1507,1018,1030
1508,1022,1035
1509,1025,1039
1510,1026,1043
1511,1026,1048
1512,1026,1043
1513,1021,1044
1514,1020,1044
1515,1020,1049
1516,1023,1051
1517,1022,1049
1518,1026,1048
1519,1025,1045
1520,1030,1047
1521,1032,1050
1522,1035,1051
1523,1039,1047
1524,1039,1045
1525,1036,1043
1526,1034,1045
1527,1035,1048
1528,1039,1051
1529,1038,1047
1530,1036,1044
1531,1034,1041
1532,1030,1043
1533,1031,1044
1534,1032,1046
1535,1031,1044
1536,1028,1041
1537,1024,1040
1538,1023,1041
1539,1025,1045
1540,1028,1045
1541,1027,1048
1542,1026,1046
1543,1026,1044
1544,1025,1045
1545,1026,1046
1546,1029,1048
1547,1028,1043
1548,1028,1040
1549,1023,1038
1550,1022,1041
1551,1027,1040
1552,1030,1042
1553,1031,1042
1554,1028,1041
1555,1028,1039
1556,1030,1043
1557,1034,1048
1558,1036,1055
1559,1039,1057
1560,1039,1056
1561,1039,1051
1562,1043,1042
1563,1051,1032
1564,1058,1014
1565,1064,989
1566,1068,965
1567,1083,935
1568,1105,906
1569,1132,878
1570,1162,854
1571,1191,837
1572,1218,836
1573,1237,844
1574,1265,864
1575,1296,887
1576,1320,918
1577,1327,950
1578,1315,979
1579,1287,1000
1580,1246,1022
1581,1199,1037
1582,1164,1042
1583,1127,1036
1584,1091,1028
1585,1059,1023
1586,1042,1028
1587,1040,1036
1588,1045,1044
1589,1047,1043
1590,1045,1046
1591,1039,1041
1592,1033,1043
1593,1031,1048
1594,1031,1049
1595,1029,1045
1596,1026,1047
1597,1020,1045
1598,1020,1045
1599,1020,1049
1600,1021,1052
1601,1023,1053
1602,1020,1048
1603,1017,1048
1604,1015,1050
1605,1016,1051
1606,1019,1054
1607,1018,1052
1608,1018,1051
1609,1015,1045
1610,1014,1047
1611,1014,1050
1612,1014,1051
1613,1015,1054
1614,1017,1049
1615,1012,1048
1616,1011,1048
1617,1012,1050
1618,1016,1053
1619,1018,1051
1620,1015,1048
1621,1015,1045
1622,1016,1049
1623,1018,1049
1624,1021,1052
1625,1021,1052
1626,1019,1049
1627,1019,1046
1628,1018,1048
1629,1019,1049
1630,1023,1051
1631,1026,1050
1632,1024,1048
1633,1021,1048
1634,1023,1045
1635,1023,1047
1636,1028,1048
1637,1026,1051
1638,1027,1045
1639,1024,1043
1640,1026,1042
1641,1029,1047
1642,1035,1046
1643,1036,1043
1644,1035,1041
1645,1035,1039
1646,1035,1041
1647,1036,1042
1648,1042,1046
1649,1042,1043
1650,1043,1038
1651,1044,1034
1652,1041,1036
1653,1048,1037
1654,1053,1039
1655,1054,1036
1656,1053,1032
1657,1054,1030
1658,1054,1030
1659,1060,1032
1660,1064,1029
1661,1066,1029
1662,1068,1026
1663,1068,1026
1664,1068,1024
1665,1072,1025
1666,1075,1027
1667,1081,1024
1668,1079,1022
1669,1077,1021
1670,1079,1022
1671,1082,1026
1672,1082,1026
1673,1086,1023
1674,1088,1022
1675,1084,1023
1676,1082,1023
1677,1087,1027
1678,1085,1029
1679,1088,1029
1680,1082,1029
1681,1080,1028
1682,1074,1030
1683,1073,1034
1684,1074,1040
1685,1069,1039
1686,1066,1038
1687,1059,1038
1688,1055,1038
1689,1053,1043
1690,1050,1045
1691,1048,1045
1692,1043,1041
1693,1037,1043
1694,1033,1045
1695,1033,1048
1696,1032,1052
1697,1030,1051
1698,1027,1045
1699,1022,1046
1700,1018,1047
1701,1020,1049
1702,1021,1049
1703,1020,1049
1704,1013,1048
1705,1012,1043
1706,1011,1046
1707,1008,1049
1708,1012,1051
1709,1015,1050
1710,1011,1048
1711,1008,1046
1712,1007,1047
1713,1008,1047
1714,1008,1050
1715,1007,1051
1716,1007,1046
1717,1008,1046
1718,1005,1048
1719,1008,1049
1720,1009,1053
1721,1009,1050
1722,1009,1049
1723,1006,1048
1724,1004,1051
1725,1007,1052
1726,1009,1054
1727,1010,1052
1728,1008,1050
1729,1005,1050
1730,1006,1051
1731,1007,1053
1732,1011,1055
1733,1011,1053
1734,1010,1054
1735,1007,1050
1736,1006,1051
1737,1008,1053
1738,1013,1056
1739,1009,1054
1740,1011,1053
1741,1006,1048
1742,1007,1050
1743,1009,1053
1744,1013,1055
1745,1013,1053
1746,1011,1051
1747,1007,1048
1748,1009,1050
1749,1011,1052
1750,1012,1056
1751,1013,1053
1752,1011,1052
1753,1009,1047
1754,1007,1050
1755,1011,1053
1756,1014,1055
1757,1011,1054
1758,1012,1052
1759,1010,1049
1760,1009,1051
1761,1009,1053
1762,1013,1055
1763,1014,1055
1764,1011,1052
1765,1009,1050
1766,1009,1052
1767,1010,1053
1768,1013,1054
1769,1012,1053
1770,1012,1051
1771,1009,1051
1772,1007,1051
1773,1008,1054
1774,1011,1054
1775,1014,1053
1776,1011,1052
1777,1008,1050
1778,1006,1051
1779,1009,1052
1780,1010,1054
1781,1016,1054
1782,1010,1052
1783,1009,1050
1784,1007,1051
1785,1009,1054
1786,1012,1055
1787,1015,1054
1788,1012,1052
1789,1006,1049
1790,1006,1050
1791,1009,1052
1792,1013,1055
1793,1013,1053
1794,1012,1053
1795,1010,1053
1796,1011,1053
1797,1012,1055
1798,1010,1056
1799,1012,1054
1800,1013,1053
1801,1010,1048
1802,1007,1051
1803,1009,1054
1804,1011,1056
1805,1013,1056
1806,1009,1050
1807,1007,1048
1808,1007,1052
1809,1008,1053
1810,1011,1055
1811,1011,1051
1812,1009,1051
1813,1007,1047
1814,1008,1050
1815,1010,1049
1816,1010,1053
1817,1008,1055
1818,1010,1047
1819,1008,1049
1820,1005,1048
1821,1010,1052
1822,1013,1053
1823,1013,1050
1824,1011,1047
1825,1007,1048
1826,1005,1048
1827,1009,1051
1828,1009,1053
1829,1011,1051
1830,1009,1047
1831,1008,1047
1832,1007,1048
1833,1010,1049
1834,1012,1052
1835,1013,1050
1836,1010,1046
1837,1005,1045
1838,1008,1048
1839,1009,1051
1840,1013,1052
1841,1013,1052
1842,1009,1048
1843,1009,1045
1844,1009,1047
1845,1009,1048
1846,1011,1052
1847,1011,1048
1848,1010,1047
1849,1005,1045
1850,1006,1048
1851,1009,1051
1852,1011,1054
1853,1009,1050
1854,1009,1050
1855,1007,1047
1856,1006,1050
1857,1009,1050
1858,1012,1054
1859,1013,1052
1860,1013,1048
1861,1009,1050
1862,1010,1047
1863,1011,1050
1864,1013,1051
1865,1011,1050
1866,1015,1049
1867,1011,1048
1868,1009,1046
1869,1011,1047
1870,1015,1049
1871,1016,1047
1872,1015,1047
1873,1010,1045
1874,1011,1048
1875,1012,1050
1876,1017,1055
1877,1017,1050
1878,1015,1047
1879,1011,1045
1880,1008,1046
1881,1011,1049
1882,1013,1052
1883,1012,1046
1884,1009,1046
1885,1011,1047
1886,1008,1047
1887,1012,1047
1888,1014,1049
1889,1017,1047
1890,1014,1044
1891,1011,1043
1892,1011,1044
1893,1010,1049
1894,1012,1049
1895,1015,1049
1896,1013,1047
1897,1012,1045
1898,1014,1046
1899,1012,1048
1900,1016,1050
1901,1016,1048
1902,1014,1046
1903,1008,1046
1904,1009,1046
1905,1007,1050
1906,1016,1051
1907,1016,1049
1908,1014,1046
1909,1012,1043
1910,1014,1046
1911,1016,1047
1912,1018,1049
1913,1021,1044
1914,1020,1044
1915,1017,1041
1916,1015,1046
1917,1018,1051
1918,1017,1055
1919,1017,1053
1920,1015,1053
1921,1013,1053
1922,1011,1054
1923,1015,1055
1924,1019,1058
1925,1022,1056
1926,1026,1050
1927,1024,1049
1928,1026,1047
1929,1027,1046
1930,1029,1051
1931,1030,1049
1932,1026,1047
1933,1025,1044
1934,1026,1048
1935,1027,1051
1936,1028,1052
1937,1027,1048
1938,1023,1045
1939,1020,1043
1940,1017,1045
1941,1019,1048
1942,1017,1048
1943,1018,1048
1944,1014,1046
1945,1013,1043
1946,1012,1044
1947,1014,1046
1948,1014,1049
1949,1017,1049
1950,1016,1045
1951,1012,1044
1952,1012,1041
1953,1014,1045
1954,1018,1047
1955,1017,1047
1956,1013,1045
1957,1013,1041
1958,1011,1046
1959,1013,1045
1960,1017,1051
1961,1020,1051
1962,1022,1052
1963,1022,1052
1964,1019,1055
1965,1028,1053
1966,1035,1050
1967,1043,1029
1968,1044,1007
1969,1050,985
1970,1062,961
1971,1082,938
1972,1105,910
1973,1126,879
1974,1151,852
1975,1174,835
1976,1199,831
1977,1224,844
1978,1253,861
1979,1278,885
1980,1294,915
1981,1291,951
1982,1272,985
1983,1243,1012
1984,1207,1030
1985,1164,1034
1986,1126,1033
1987,1091,1024
1988,1063,1029
1989,1045,1033
1990,1041,1043
1991,1040,1046
1992,1035,1046
1993,1033,1046
1994,1030,1046
1995,1025,1049
1996,1021,1054
1997,1018,1053
1998,1013,1052
1999,1010,1050
2000,1008,1052
2001,1009,1055
2002,1010,1057
2003,1011,1059
2004,1009,1054
2005,1002,1053
2006,1004,1053
2007,1005,1056
2008,1007,1058
2009,1007,1057
2010,1005,1054
2011,1002,1052
2012,1002,1055
2013,1003,1054
2014,1004,1056
2015,1006,1056
2016,1004,1054
2017,1001,1054
2018,1001,1053
2019,1001,1055
2020,1004,1059
2021,1004,1055
2022,1006,1053
2023,1002,1049
2024,1002,1052
2025,1004,1057
2026,1004,1058
2027,1006,1054
2028,1008,1052
2029,1005,1049
2030,1006,1050
2031,1007,1053
2032,1012,1057
2033,1013,1054
2034,1011,1053
2035,1010,1051
2036,1011,1051
2037,1012,1052
2038,1017,1054
2039,1018,1052
2040,1019,1050
2041,1016,1047
2042,1015,1049
2043,1019,1048
2044,1023,1051
2045,1026,1047
2046,1025,1044
2047,1023,1043
2048,1023,1042
2049,1027,1044
2050,1031,1045
2051,1034,1041
2052,1034,1040
2053,1034,1037
2054,1036,1037
2055,1036,1041
2056,1044,1043
2057,1048,1038
2058,1049,1034
2059,1048,1032
2060,1051,1033
2061,1055,1036
2062,1062,1035
2063,1062,1032
2064,1063,1029
2065,1063,1027
2066,1063,1026
2067,1068,1026
2068,1073,1029
2069,1074,1027
2070,1074,1025
2071,1073,1024
2072,1076,1025
2073,1079,1026
2074,1083,1028
2075,1084,1031
2076,1082,1029
2077,1078,1027
2078,1076,1031
2079,1077,1036
2080,1076,1039
2081,1074,1038
2082,1068,1039
2083,1059,1036
2084,1056,1041
2085,1054,1044
2086,1053,1047
2087,1048,1046
2088,1042,1045
2089,1035,1043
2090,1029,1044
2091,1026,1045
2092,1026,1047
2093,1023,1047
2094,1022,1047
2095,1017,1045
2096,1013,1044
2097,1015,1047
2098,1014,1050
2099,1014,1048
2100,1010,1049
2101,1004,1043
2102,1004,1045
2103,1004,1049
2104,1008,1049
2105,1007,1047
2106,1005,1045
2107,1002,1041
2108,1000,1043
2109,1001,1047
2110,1002,1048
2111,1001,1047
2112,1002,1045
2113,1000,1043
2114,996,1046
2115,999,1047
2116,1003,1050
2117,1005,1047
2118,1003,1046
2119,1000,1045
2120,997,1046
2121,1001,1047
2122,1005,1050
2123,1005,1048
2124,1003,1049
2125,1002,1044
2126,1000,1049
2127,1004,1052
2128,1005,1051
2129,1007,1052
2130,1003,1050
2131,1002,1049
2132,1000,1050
2133,1004,1053
2134,1006,1054
2135,1006,1052
2136,1005,1050
2137,1001,1048
2138,1001,1050
2139,1004,1054
2140,1004,1056
2141,1005,1054
2142,1003,1050
2143,1001,1048
2144,1000,1050
2145,1000,1052
2146,1003,1054
2147,1004,1054
2148,1003,1048
2149,1003,1047
2150,999,1051
2151,1002,1053
2152,1005,1053
2153,1005,1053
2154,1002,1048
2155,999,1046
2156,1003,1047
2157,1003,1051
2158,1006,1053
2159,1006,1050
2160,1005,1048
2161,1001,1046
2162,1000,1048
2163,1001,1052
2164,1004,1050
2165,1003,1051
2166,1005,1047
2167,1002,1046
2168,999,1045
2169,1002,1049
2170,1005,1051
2171,1004,1049
2172,1003,1046
2173,1002,1047
2174,1000,1045
2175,1002,1050
2176,1001,1051
2177,1002,1048
2178,1002,1046
2179,998,1044
2180,998,1044
2181,1000,1046
2182,1003,1048
2183,1001,1048
2184,1002,1048
2185,999,1044
2186,997,1045
2187,996,1047
2188,1000,1047
2189,1000,1046
2190,998,1045
2191,996,1039
2192,994,1040
2193,998,1045
2194,999,1046
2195,1001,1045
2196,998,1045
2197,996,1042
2198,998,1041
2199,999,1045
2200,1002,1047
2201,999,1048
2202,1000,1045
2203,999,1042
2204,996,1041
2205,999,1044
2206,1001,1046
2207,1000,1044
2208,1000,1041
2209,997,1039
2210,999,1042
2211,1000,1045
2212,1003,1048
2213,1003,1045
2214,999,1041
2215,997,1038
2216,999,1041
2217,997,1042
2218,1001,1045
2219,1002,1043
2220,997,1042
2221,996,1038
2222,994,1038
2223,998,1042
2224,1000,1042
2225,1002,1044
2226,999,1041
2227,996,1036
2228,996,1038
2229,997,1041
2230,1000,1041
2231,1001,1041
2232,1000,1039
2233,997,1039
2234,993,1040
2235,995,1043
2236,1003,1043
2237,1002,1042
2238,998,1041
2239,995,1039
2240,996,1039
2241,998,1041
2242,1000,1042
2243,1000,1042
2244,999,1040
2245,995,1037
2246,996,1042
2247,997,1041
2248,1001,1042
2249,1001,1040
2250,1000,1038
2251,997,1035
2252,999,1039
2253,999,1040
2254,1001,1041
2255,1001,1042
2256,1000,1037
2257,996,1036
2258,996,1038
2259,998,1042
2260,998,1042
2261,1002,1041
2262,999,1038
2263,998,1037
2264,996,1037
2265,998,1039
2266,1002,1040
2267,1002,1039
2268,1000,1035
2269,996,1035
2270,996,1036
2271,998,1036
2272,1002,1040
2273,1003,1038
2274,1002,1036
2275,998,1033
2276,992,1034
2277,997,1037
2278,999,1040
2279,1004,1039
2280,1001,1032
2281,995,1032
2282,998,1036
2283,1000,1037
2284,1004,1039
2285,1003,1037
2286,1004,1034
2287,1000,1032
2288,999,1034
2289,1000,1035
2290,1004,1037
2291,1006,1038
2292,1004,1035
2293,1001,1030
2294,998,1033
2295,1000,1032
2296,1005,1037
2297,1004,1035
2298,1001,1031
2299,999,1031
2300,1002,1032
2301,1004,1033
2302,1007,1037
2303,1005,1035
2304,1006,1036
2305,1005,1036
2306,1004,1038
2307,1005,1043
2308,1005,1044
2309,1005,1043
2310,1005,1044
2311,1005,1041
2312,1007,1041
2313,1012,1042
2314,1015,1046
2315,1018,1044
2316,1020,1039
2317,1019,1035
2318,1019,1038
2319,1020,1041
2320,1022,1042
2321,1022,1039
2322,1022,1039
2323,1015,1035
2324,1014,1037
2325,1017,1036
2326,1017,1038
2327,1017,1037
2328,1014,1035
2329,1011,1032
2330,1006,1033
2331,1009,1036
2332,1015,1037
2333,1015,1037
2334,1013,1033
2335,1009,1033
2336,1011,1033
2337,1010,1034
2338,1012,1035
2339,1016,1035
2340,1013,1032
2341,1013,1032
2342,1012,1029
2343,1012,1032
2344,1017,1035
2345,1016,1034
2346,1015,1031
2347,1015,1034
2348,1015,1037
2349,1018,1042
2350,1024,1047
2351,1025,1042
2352,1029,1033
2353,1030,1016
2354,1038,995
2355,1047,974
2356,1062,948
2357,1077,920
2358,1103,888
2359,1128,857
2360,1157,836
2361,1192,832
2362,1222,839
2363,1251,855
2364,1277,871
2365,1298,895
2366,1310,927
2367,1304,957
2368,1279,984
2369,1236,1006
2370,1187,1019
2371,1144,1021
2372,1104,1022
2373,1070,1018
2374,1045,1018
2375,1030,1021
2376,1025,1022
2377,1023,1024
2378,1022,1028
2379,1024,1034
2380,1023,1035
2381,1021,1036
2382,1015,1034
2383,1009,1035
2384,1005,1036
2385,1004,1039
2386,1005,1042
2387,1005,1042
2388,1005,1038
2389,999,1036
2390,999,1040
2391,999,1040
2392,1002,1043
2393,1003,1045
2394,1001,1043
2395,997,1038
2396,997,1040
2397,999,1044
2398,1002,1046
2399,1001,1040
2400,1001,1040
2401,997,1037
2402,996,1041
2403,998,1043
2404,1001,1047
2405,999,1045
2406,1001,1040
2407,997,1040
2408,999,1041
2409,1000,1043
2410,1003,1045
2411,1003,1043
2412,1002,1042
2413,1003,1039
2414,1002,1040
2415,1005,1043
2416,1007,1045
2417,1007,1044
2418,1008,1040
2419,1008,1036
2420,1006,1039
2421,1009,1040
2422,1012,1042
2423,1014,1040
2424,1014,1035
2425,1012,1034
2426,1009,1036
2427,1015,1036
2428,1014,1035
2429,1017,1036
2430,1015,1032
2431,1015,1030
2432,1015,1032
2433,1020,1033
2434,1024,1036
2435,1025,1032
2436,1026,1028
2437,1025,1026
2438,1025,1025
2439,1030,1026
2440,1035,1029
2441,1039,1026
2442,1038,1024
2443,1039,1020
2444,1040,1024
2445,1044,1023
2446,1050,1025
2447,1052,1022
2448,1052,1021
2449,1052,1016
2450,1055,1018
2451,1059,1019
2452,1064,1019
2453,1066,1017
2454,1065,1015
2455,1063,1012
2456,1062,1015
2457,1066,1016
2458,1072,1019
2459,1075,1018
2460,1073,1018
2461,1073,1016
2462,1070,1020
2463,1072,1023
2464,1074,1026
2465,1072,1026
2466,1069,1026
2467,1063,1024
2468,1059,1026
2469,1056,1031
2470,1052,1034
2471,1050,1034
2472,1047,1035
2473,1040,1033
2474,1035,1036
2475,1032,1037
2476,1033,1042
2477,1030,1039
2478,1025,1038
2479,1020,1035
2480,1015,1039
2481,1015,1039
2482,1015,1043
2483,1012,1042
2484,1008,1039
2485,1007,1039
2486,1006,1039
2487,1008,1042
2488,1006,1044
2489,1006,1045
2490,1003,1041
2491,1003,1039
2492,1001,1039
2493,1001,1042
2494,1004,1045
2495,1005,1042
2496,1004,1042
2497,1000,1040
2498,1000,1040
2499,1000,1043
2500,1002,1044
2501,1004,1045
2502,1001,1042
2503,998,1039
2504,998,1041
2505,999,1045
2506,1002,1049
2507,1000,1048
2508,1000,1043
2509,1000,1044
2510,999,1046
2511,1001,1047
2512,1002,1048
2513,1005,1048
2514,1004,1044
2515,1001,1043
2516,997,1045
2517,999,1046
2518,1005,1052
2519,1004,1049
2520,1004,1047
2521,1000,1045
2522,1000,1047
2523,1002,1047
2524,1008,1050
2525,1007,1049
2526,1006,1044
2527,1003,1042
2528,1000,1044
2529,1004,1048
2530,1005,1050
2531,1007,1051
2532,1004,1047
2533,1003,1044
2534,1000,1046
2535,1001,1048
2536,1002,1049
2537,1002,1048
2538,1002,1045
2539,1000,1043
2540,999,1044
2541,1001,1046
2542,1002,1049
2543,1002,1050
2544,998,1044
2545,1000,1045
2546,997,1046
2547,1001,1047
2548,1002,1048
2549,1003,1049
2550,1003,1044
2551,997,1044
2552,995,1045
2553,1000,1049
2554,1002,1048
2555,1001,1047
2556,998,1044
2557,994,1044
2558,996,1045
2559,1000,1046
2560,1000,1048
2561,1004,1050
2562,1000,1043
2563,998,1045
2564,997,1048
2565,999,1047
2566,1002,1049
2567,1002,1048
2568,998,1046
2569,997,1044
2570,998,1045
2571,1000,1047
2572,1002,1050
2573,1004,1049
2574,1002,1046
2575,998,1043
2576,997,1046
2577,999,1049
2578,1000,1049
2579,1002,1049
2580,1002,1046
2581,999,1045
2582,997,1047
2583,999,1048
2584,1003,1051
2585,1002,1051
2586,1002,1050
2587,997,1047
2588,999,1048
2589,999,1051
2590,1000,1054
2591,1000,1052
2592,1002,1047
2593,999,1046
2594,995,1049
2595,1003,1051
2596,1003,1049
2597,1001,1052
2598,1000,1050
2599,999,1046
2600,1000,1047
2601,1002,1051
2602,1002,1054
2603,1005,1051
2604,1002,1050
2605,999,1045
2606,999,1047
2607,1001,1050
2608,1001,1052
2609,1004,1050
2610,1004,1048
2611,998,1046
2612,996,1048
2613,999,1050
2614,1003,1053
2615,1003,1050
2616,1004,1045
2617,1003,1045
2618,1001,1046
2619,1002,1051
2620,1004,1052
2621,1003,1050
2622,1002,1049
2623,999,1046
2624,1000,1048
2625,1003,1051
2626,1004,1053
2627,1004,1050
2628,1004,1049
2629,1000,1046
2630,997,1048
2631,1002,1051
2632,1002,1052
2633,1004,1049
2634,1001,1049
2635,1002,1048
2636,1001,1048
2637,1003,1051
2638,1008,1054
2639,1008,1050
2640,1004,1049
2641,1004,1045
2642,1000,1048
2643,1005,1049
2644,1007,1052
2645,1006,1051
2646,1005,1046
2647,1002,1045
2648,1004,1047
2649,1002,1050
2650,1006,1052
2651,1006,1051
2652,1005,1048
2653,1003,1045
2654,1002,1049
2655,1005,1051
2656,1005,1054
2657,1005,1052
2658,1006,1048
2659,1003,1045
2660,1003,1048
2661,1005,1050
2662,1009,1056
2663,1008,1049
2664,1008,1049
2665,1003,1049
2666,1005,1050
2667,1008,1050
2668,1007,1054
2669,1009,1052
2670,1010,1049
2671,1006,1047
2672,1006,1050
2673,1009,1051
2674,1011,1055
2675,1011,1053
2676,1008,1051
2677,1006,1049
2678,1008,1048
2679,1009,1051
2680,1011,1056
2681,1013,1053
2682,1011,1048
2683,1008,1048
2684,1010,1048
2685,1008,1051
2686,1014,1053
2687,1013,1049
2688,1012,1046
2689,1011,1044
2690,1008,1048
2691,1011,1049
2692,1016,1051
2693,1015,1050
2694,1015,1051
2695,1011,1048
2696,1012,1052
2697,1012,1055
2698,1013,1058
2699,1012,1058
2700,1012,1055
2701,1011,1054
2702,1012,1055
2703,1014,1057
2704,1020,1059
2705,1025,1054
2706,1023,1050
2707,1022,1050
2708,1020,1052
2709,1023,1052
2710,1022,1054
2711,1024,1053
2712,1023,1049
2713,1019,1047
2714,1016,1048
2715,1018,1051
2716,1019,1052
2717,1019,1051
2718,1016,1049
2719,1011,1046
2720,1008,1048
2721,1006,1053
2722,1012,1051
2723,1012,1053
2724,1012,1050
2725,1010,1048
2726,1010,1048
2727,1011,1049
2728,1016,1054
2729,1017,1050
2730,1016,1047
2731,1014,1044
2732,1011,1049
2733,1013,1054
2734,1018,1052
2735,1019,1052
2736,1019,1050
2737,1016,1049
2738,1018,1055
2739,1020,1061
2740,1024,1064
2741,1027,1061
2742,1031,1054
2743,1031,1042
2744,1037,1024
2745,1047,1007
2746,1057,987
2747,1074,963
2748,1091,932
2749,1110,903
2750,1133,875
2751,1158,854
2752,1188,844
2753,1215,843
2754,1234,853
2755,1250,867
2756,1272,891
2757,1289,927
2758,1287,963
2759,1266,993
2760,1234,1012
2761,1194,1025
2762,1154,1031
2763,1119,1034
2764,1092,1033
2765,1067,1034
2766,1049,1038
2767,1035,1039
2768,1033,1046
2769,1034,1051
2770,1034,1056
2771,1032,1056
2772,1027,1054
2773,1018,1054
2774,1016,1054
2775,1013,1059
2776,1012,1059
2777,1010,1060
2778,1004,1057
2779,1004,1053
2780,998,1055
2781,997,1059
2782,1002,1062
2783,999,1060
2784,997,1058
2785,995,1056
2786,990,1057
2787,992,1060
2788,996,1060
2789,998,1060
2790,996,1059
2791,994,1057
2792,993,1058
2793,997,1061
2794,998,1065
2795,996,1065
2796,996,1058
2797,996,1056
2798,997,1060
2799,999,1062
2800,1001,1065
2801,1004,1065
2802,1002,1060
2803,997,1057
2804,999,1059
2805,1003,1061
2806,1002,1063
2807,1004,1061
2808,1005,1059
2809,1003,1056
2810,1004,1058
2811,1005,1060
2812,1010,1061
2813,1013,1058
2814,1010,1055
2815,1005,1055
2816,1009,1053
2817,1012,1056
2818,1014,1057
2819,1016,1060
2820,1016,1054
2821,1013,1051
2822,1017,1050
2823,1017,1056
2824,1024,1056
2825,1028,1055
2826,1028,1051
2827,1026,1049
2828,1026,1049
2829,1031,1052
2830,1035,1052
2831,1037,1050
2832,1036,1046
2833,1038,1043
2834,1037,1042
2835,1042,1044
2836,1048,1044
2837,1050,1045
2838,1049,1040
2839,1049,1035
2840,1049,1036
2841,1051,1038
2842,1056,1039
2843,1061,1036
2844,1061,1033
2845,1059,1028
2846,1061,1031
2847,1063,1035
2848,1072,1037
2849,1075,1036
2850,1075,1033
2851,1068,1032
2852,1070,1031
2853,1070,1038
2854,1074,1042
2855,1073,1039
2856,1069,1038
2857,1066,1037
2858,1062,1039
2859,1063,1043
2860,1060,1045
2861,1058,1048
2862,1052,1047
2863,1045,1046
2864,1041,1047
2865,1039,1049
2866,1037,1052
2867,1033,1051
2868,1030,1050
2869,1022,1049
2870,1017,1051
2871,1016,1053
2872,1016,1055
2873,1016,1054
2874,1012,1052
2875,1007,1051
2876,1005,1052
2877,1004,1052
2878,1004,1055
2879,1004,1055
2880,1001,1052
2881,997,1051
2882,995,1052
2883,996,1054
2884,996,1056
2885,997,1054
2886,996,1050
2887,995,1049
2888,992,1050
2889,992,1052
2890,995,1054
2891,996,1052
2892,993,1050
2893,991,1048
2894,990,1049
2895,991,1053
2896,995,1054
2897,992,1052
2898,993,1049
2899,991,1048
2900,987,1048
2901,990,1053
2902,992,1053
2903,996,1054
2904,994,1053
2905,991,1050
2906,989,1052
2907,989,1055
2908,991,1057
2909,995,1054
2910,993,1052
2911,991,1051
2912,987,1053
2913,990,1057
2914,993,1061
2915,995,1058
2916,993,1057
2917,990,1054
2918,991,1055
2919,992,1057
2920,995,1059
2921,997,1057
2922,995,1055
2923,991,1051
2924,990,1054
2925,994,1059
2926,996,1061
2927,999,1059
2928,996,1055
2929,993,1054
2930,993,1057
2931,996,1057
2932,998,1060
2933,999,1058
2934,997,1054
2935,992,1051
2936,993,1055
2937,993,1057
2938,997,1058
2939,997,1059
2940,998,1054
2941,994,1053
2942,992,1057
2943,993,1056
2944,995,1059
2945,999,1059
2946,997,1052
2947,992,1053
2948,992,1054
2949,995,1056
2950,997,1057
2951,996,1057
2952,994,1053
2953,991,1051
2954,991,1050
2955,989,1055
2956,995,1056
2957,994,1055
2958,995,1052
2959,989,1049
2960,990,1053
2961,992,1051
2962,994,1055
2963,996,1052
2964,992,1052
2965,988,1050
2966,989,1051
2967,991,1055
2968,994,1052
2969,995,1053
2970,991,1050
2971,989,1049
2972,988,1050
2973,989,1051
2974,992,1053
2975,993,1051
2976,988,1048
2977,986,1049
2978,986,1048
2979,989,1054
2980,992,1052
2981,993,1048
2982,991,1046
2983,988,1049
2984,987,1047
2985,989,1051
2986,991,1051
2987,992,1051
2988,990,1046
2989,988,1044
2990,986,1047
2991,989,1049
2992,989,1049
2993,993,1050
2994,989,1046
2995,987,1046
2996,986,1045
2997,992,1048
2998,994,1052
2999,992,1050
3000,991,1046
3001,990,1045
3002,989,1043
3003,990,1047
3004,991,1051
3005,993,1050
3006,989,1049
3007,988,1044
3008,987,1046
3009,993,1046
3010,995,1049
3011,995,1052
3012,994,1048
3013,991,1044
3014,989,1047
3015,993,1050
3016,994,1052
3017,995,1051
3018,996,1046
3019,993,1046
3020,992,1045
3021,996,1047
3022,997,1049
3023,997,1050
3024,996,1045
3025,990,1044
3026,994,1045
3027,996,1048
3028,997,1049
3029,998,1049
3030,998,1044
3031,997,1045
3032,992,1046
3033,994,1047
3034,999,1049
3035,999,1050
3036,997,1047
3037,994,1043
3038,994,1046
3039,997,1046
3040,1000,1051
3041,999,1048
3042,1000,1045
3043,993,1043
3044,995,1044
3045,995,1047
3046,999,1050
3047,997,1048
3048,998,1046
3049,994,1044
3050,995,1046
3051,997,1047
3052,1000,1051
3053,999,1051
3054,1000,1046
3055,995,1045
3056,995,1044
3057,999,1047
3058,1001,1049
3059,1002,1048
3060,998,1044
3061,996,1044
3062,995,1044
3063,995,1046
3064,999,1048
3065,1000,1047
3066,999,1047
3067,997,1043
3068,997,1045
3069,999,1048
3070,1000,1047
3071,1003,1047
3072,1001,1044
3073,999,1042
3074,997,1044
3075,997,1046
3076,1003,1047
3077,1004,1046
3078,1001,1042
3079,999,1040
3080,998,1043
3081,998,1046
3082,1000,1046
3083,1002,1045
3084,999,1042
3085,1000,1039
3086,1000,1041
3087,1002,1042
3088,1003,1045
3089,1004,1044
3090,1005,1039
3091,1002,1040
3092,1003,1040
3093,1000,1043
3094,1005,1043
3095,1007,1042
3096,1005,1039
3097,1004,1039
3098,1002,1039
3099,1004,1044
3100,1005,1051
3101,1005,1050
3102,1004,1049
3103,1000,1046
3104,998,1047
3105,997,1050
3106,1005,1053
3107,1004,1051
3108,1007,1048
3109,1007,1045
3110,1009,1046
3111,1012,1049
3112,1018,1047
3113,1019,1044
3114,1019,1042
3115,1015,1041
3116,1015,1043
3117,1017,1044
3118,1021,1046
3119,1019,1046
3120,1017,1046
3121,1015,1041
3122,1011,1042
3123,1012,1045
3124,1013,1044
3125,1013,1046
3126,1010,1042
3127,1005,1041
3128,1005,1043
3129,1006,1045
3130,1006,1048
3131,1009,1047
3132,1008,1042
3133,1005,1040
3134,1001,1040
3135,1002,1042
3136,1009,1045
3137,1009,1044
3138,1008,1044
3139,1003,1040
3140,1003,1040
3141,1007,1042
3142,1008,1044
3143,1009,1043
3144,1008,1042
3145,1005,1038
3146,1007,1043
3147,1013,1044
3148,1014,1050
3149,1018,1055
3150,1018,1055
3151,1016,1053
3152,1018,1051
3153,1025,1040
3154,1031,1028
3155,1040,1005
3156,1044,979
3157,1049,952
3158,1066,926
3159,1090,898
3160,1115,870
3161,1139,846
3162,1163,830
3163,1187,828
3164,1206,837
3165,1228,853
3166,1254,875
3167,1273,900
3168,1279,931
3169,1265,962
3170,1240,988
3171,1210,1011
3172,1174,1029
3173,1137,1032
3174,1105,1028
3175,1074,1023
3176,1049,1020
3177,1034,1026
3178,1026,1032
3179,1024,1038
3180,1026,1038
3181,1021,1041
3182,1020,1040
3183,1018,1044
3184,1016,1047
3185,1012,1046
3186,1007,1043
3187,1003,1045
3188,999,1045
3189,999,1048
3190,1001,1049
3191,1001,1050
3192,997,1045
3193,992,1044
3194,993,1044
3195,994,1049
3196,998,1051
3197,996,1050
3198,992,1048
3199,991,1045
3200,990,1049
3201,992,1050
3202,994,1053
3203,995,1052
3204,993,1048
3205,991,1046
3206,988,1050
3207,991,1050
3208,994,1055
3209,994,1052
3210,994,1050
3211,991,1049
3212,990,1050
3213,993,1051
3214,997,1051
3215,995,1050
3216,995,1048
3217,992,1045
3218,992,1046
3219,992,1047
3220,996,1049
3221,998,1047
3222,998,1045
3223,996,1041
3224,994,1042
3225,998,1044
3226,999,1049
3227,1003,1046
3228,1000,1041
3229,997,1038
3230,994,1041
3231,1000,1044
3232,1003,1044
3233,1002,1041
3234,1007,1039
3235,1003,1037
3236,1002,1038
3237,1007,1038
3238,1010,1040
3239,1012,1040
3240,1010,1037
3241,1010,1033
3242,1006,1034
3243,1012,1033
3244,1015,1035
3245,1018,1032
3246,1021,1030
3247,1017,1028
3248,1020,1027
3249,1023,1027
3250,1026,1031
3251,1030,1027
3252,1031,1023
3253,1031,1021
3254,1032,1022
3255,1035,1022
3256,1040,1023
3257,1042,1021
3258,1045,1018
3259,1047,1013
3260,1043,1014
3261,1047,1016
3262,1053,1017
3263,1057,1016
3264,1057,1011
3265,1055,1011
3266,1055,1012
3267,1057,1015
3268,1060,1018
3269,1066,1017
3270,1062,1016
3271,1060,1016
3272,1061,1019
3273,1058,1024
3274,1062,1024
3275,1059,1025
3276,1058,1026
3277,1054,1023
3278,1049,1026
3279,1045,1029
3280,1045,1033
3281,1041,1036
3282,1036,1034
3283,1029,1033
3284,1027,1034
3285,1021,1035
3286,1022,1039
3287,1022,1040
3288,1016,1037
3289,1009,1036
3290,1004,1038
3291,1007,1040
3292,1006,1041
3293,1005,1043
3294,1002,1039
3295,995,1035
3296,995,1037
3297,992,1039
3298,994,1043
3299,991,1041
3300,992,1038
3301,988,1038
3302,985,1039
3303,987,1040
3304,989,1043
3305,988,1045
3306,986,1040
3307,985,1037
3308,981,1037
3309,984,1041
3310,983,1043
3311,987,1040
3312,985,1040
3313,981,1036
3314,981,1038
3315,983,1042
3316,982,1044
3317,985,1042
3318,984,1038
3319,979,1037
3320,982,1038
3321,984,1040
3322,985,1040
3323,986,1042
3324,982,1037
3325,983,1037
3326,982,1037
3327,985,1042
3328,987,1042
3329,987,1043
3330,986,1039
3331,983,1038
3332,981,1039
3333,984,1044
3334,984,1046
3335,984,1044
3336,982,1042
3337,981,1040
3338,982,1040
3339,984,1042
3340,988,1046
3341,987,1044
3342,986,1042
3343,984,1040
3344,982,1043
3345,985,1046
3346,984,1046
3347,987,1045
3348,987,1046
3349,983,1040
3350,983,1043
3351,985,1043
3352,988,1046
3353,988,1048
3354,985,1044
3355,983,1041
3356,986,1039
3357,989,1043
3358,991,1044
3359,992,1046
3360,990,1043
3361,985,1039
3362,982,1042
3363,984,1043
3364,993,1045
3365,992,1042
3366,991,1040
3367,987,1040
3368,988,1041
3369,989,1042
3370,990,1044
3371,990,1043
3372,989,1042
3373,987,1037
3374,988,1042
3375,989,1045
3376,989,1044
3377,992,1042
3378,988,1040
3379,985,1039
3380,986,1040
3381,988,1046
3382,992,1045
3383,991,1045
3384,989,1041
3385,989,1039
3386,984,1041
3387,987,1045
3388,991,1046
3389,992,1046
3390,990,1042
3391,988,1038
3392,988,1040
3393,988,1042
3394,992,1043
3395,990,1045
3396,989,1041
3397,988,1042
3398,985,1041
3399,987,1041
3400,990,1043
3401,992,1043
3402,992,1040
3403,989,1040
3404,987,1040
3405,989,1041
3406,994,1043
3407,995,1044
3408,991,1038
3409,988,1038
3410,988,1041
3411,987,1042
3412,989,1042
3413,993,1042
3414,990,1038
3415,986,1038
3416,984,1037
3417,986,1041
3418,988,1044
3419,989,1039
3420,987,1038
3421,986,1038
3422,985,1039
3423,986,1042
3424,989,1043
3425,989,1041
3426,986,1038
3427,986,1036
3428,984,1038
3429,984,1036
3430,985,1042
3431,991,1038
3432,987,1037
3433,986,1033
3434,986,1036
3435,988,1038
3436,990,1043
3437,988,1041
3438,989,1039
3439,987,1036
3440,988,1035
3441,986,1038
3442,991,1040
3443,991,1040
3444,992,1040
3445,984,1037
3446,985,1038
3447,989,1039
3448,991,1045
3449,994,1042
3450,992,1038
3451,990,1036
3452,989,1034
3453,992,1038
3454,992,1040
3455,993,1039
3456,990,1036
3457,987,1035
3458,988,1037
3459,990,1038
3460,994,1039
3461,993,1038
3462,994,1035
3463,991,1033
3464,988,1034
3465,987,1036
3466,994,1040
3467,996,1040
3468,992,1037
3469,990,1035
3470,990,1035
3471,990,1036
3472,994,1038
3473,993,1040
3474,990,1038
3475,987,1036
3476,990,1034
3477,991,1036
3478,993,1038
3479,993,1040
3480,990,1036
3481,988,1033
3482,986,1036
3483,989,1038
3484,992,1038
3485,992,1038
3486,992,1034
3487,989,1032
3488,986,1034
3489,990,1037
3490,991,1039
3491,993,1038
3492,990,1038
3493,987,1034
3494,987,1036
3495,987,1038
3496,991,1042
3497,993,1039
3498,992,1037
3499,988,1036
3500,987,1037
3501,990,1039
3502,991,1042
3503,994,1040
3504,991,1038
3505,989,1038
3506,989,1036
3507,988,1041
3508,991,1042
3509,994,1040
3510,991,1038
3511,988,1037
3512,989,1041
3513,990,1041
3514,993,1043
3515,992,1041
3516,994,1038
3517,989,1035
3518,988,1034
3519,992,1037
3520,991,1038
3521,994,1039
3522,993,1039
3523,990,1040
3524,987,1042
3525,989,1046
3526,993,1049
3527,990,1050
3528,986,1045
3529,985,1046
3530,987,1046
3531,989,1047
3532,997,1053
3533,998,1050
3534,999,1047
3535,997,1044
3536,998,1044
3537,1000,1047
3538,1005,1048
3539,1005,1047
3540,1003,1043
3541,998,1041
3542,1001,1044
3543,1000,1046
3544,1003,1046
3545,1001,1044
3546,998,1041
3547,993,1040
3548,991,1041
3549,992,1045
3550,994,1044
3551,991,1046
3552,987,1041
3553,987,1038
3554,989,1040
3555,990,1042
3556,992,1044
3557,994,1042
3558,992,1040
3559,989,1039
3560,987,1039
3561,990,1041
3562,990,1043
3563,992,1043
3564,992,1040
3565,989,1039
3566,990,1040
3567,989,1043
3568,999,1047
3569,1000,1047
3570,999,1049
3571,998,1052
3572,998,1054
3573,1005,1057
3574,1011,1056
3575,1016,1041
3576,1018,1020
3577,1020,997
3578,1026,975
3579,1042,953
3580,1061,929
3581,1086,899
3582,1108,872
3583,1132,851
3584,1161,841
3585,1191,843
3586,1216,857
3587,1242,873
3588,1265,890
3589,1281,919
3590,1292,950
3591,1284,982
3592,1262,1008
3593,1220,1026
3594,1178,1037
3595,1132,1036
3596,1093,1035
3597,1064,1031
3598,1036,1030
3599,1015,1032
3600,1005,1036
3601,1003,1035
3602,1003,1038
3603,1006,1045
3604,1005,1046
3605,1003,1048
3606,998,1045
3607,989,1043
3608,990,1047
3609,989,1049
3610,989,1051
3611,989,1049
3612,987,1046
3613,985,1044
3614,980,1046
3615,981,1049
3616,981,1052
3617,981,1050
3618,981,1046
3619,975,1045
3620,974,1049
3621,975,1050
3622,977,1052
3623,980,1051
3624,975,1048
3625,974,1046
3626,973,1048
3627,971,1050
3628,975,1053
3629,977,1051
3630,975,1047
3631,971,1047
3632,972,1050
3633,974,1050
3634,974,1050
3635,977,1049
3636,973,1048
3637,974,1047
3638,972,1048
3639,977,1050
3640,980,1052
3641,982,1049
3642,978,1049
3643,977,1046
3644,978,1048
3645,978,1050
3646,981,1051
3647,983,1052
3648,985,1047
3649,983,1046
3650,985,1048
3651,985,1049
3652,989,1050
3653,991,1050
3654,990,1048
3655,991,1046
3656,991,1044
3657,990,1048
3658,995,1049
3659,998,1047
3660,996,1045
3661,999,1043
3662,999,1042
3663,999,1043
3664,1007,1046
3665,1011,1047
3666,1009,1042
3667,1010,1039
3668,1011,1039
3669,1016,1043
3670,1021,1043
3671,1021,1043
3672,1024,1038
3673,1023,1036
3674,1025,1037
3675,1029,1036
3676,1035,1039
3677,1038,1035
3678,1037,1032
3679,1036,1029
3680,1034,1030
3681,1040,1031
3682,1045,1032
3683,1049,1031
3684,1050,1029
3685,1049,1027
3686,1050,1030
3687,1052,1027
3688,1054,1032
3689,1057,1032
3690,1056,1031
3691,1056,1029
3692,1055,1033
3693,1057,1035
3694,1056,1037
3695,1053,1039
3696,1053,1039
3697,1049,1036
3698,1045,1039
3699,1041,1043
3700,1040,1046
3701,1037,1044
3702,1034,1044
3703,1027,1041
3704,1023,1042
3705,1021,1047
3706,1016,1050
3707,1016,1050
3708,1011,1047
3709,1004,1045
3710,1001,1050
3711,1001,1050
3712,999,1050
3713,1000,1052
3714,994,1050
3715,988,1046
3716,988,1046
3717,989,1050
3718,986,1053
3719,988,1054
3720,986,1050
3721,982,1049
3722,983,1051
3723,984,1054
3724,986,1057
3725,985,1055
3726,985,1055
3727,979,1051
3728,979,1050
3729,983,1055
3730,983,1057
3731,986,1055
3732,982,1052
3733,978,1050
3734,977,1050
3735,980,1053
3736,983,1056
3737,985,1055
3738,981,1051
3739,981,1048
3740,979,1051
3741,983,1056
3742,985,1057
3743,984,1055
3744,985,1055
3745,980,1052
3746,978,1053
3747,980,1056
3748,985,1056
3749,988,1057
3750,985,1056
3751,983,1054
3752,982,1052
3753,984,1060
3754,987,1057
3755,987,1058
3756,986,1057
3757,981,1055
3758,981,1053
3759,986,1056
3760,988,1059
3761,987,1059
3762,987,1055
3763,983,1053
3764,981,1053
3765,984,1057
3766,988,1060
3767,990,1058
3768,988,1055
3769,983,1053
3770,982,1054
3771,983,1057
3772,988,1056
3773,988,1057
3774,988,1056
3775,985,1052
3776,984,1053
3777,986,1056
3778,989,1060
3779,989,1058
3780,986,1057
3781,984,1055
3782,982,1055
3783,987,1059
3784,989,1060
3785,990,1059
3786,988,1058
3787,985,1055
3788,984,1057
3789,986,1059
3790,989,1062
3791,989,1062
3792,985,1057
3793,984,1057
3794,981,1058
3795,984,1058
3796,988,1061
3797,988,1062
3798,986,1055
3799,983,1057
3800,982,1058
3801,984,1057
3802,989,1061
3803,987,1059
3804,983,1057
3805,982,1055
3806,981,1055
3807,983,1057
3808,985,1059
3809,985,1057
3810,984,1057
3811,981,1055
3812,982,1054
3813,984,1061
3814,985,1062
3815,986,1062
3816,988,1058
3817,984,1058
3818,981,1059
3819,983,1060
3820,987,1062
3821,982,1061
3822,983,1057
3823,980,1056
3824,981,1056
3825,982,1058
3826,982,1061
3827,983,1057
3828,981,1055
3829,979,1054
3830,979,1054
3831,980,1057
3832,982,1058
3833,979,1057
3834,980,1053
3835,977,1054
3836,977,1053
3837,976,1056
3838,980,1057
3839,981,1059
3840,980,1054
3841,978,1052
3842,975,1055
3843,978,1059
3844,982,1059
3845,983,1058
3846,981,1058
3847,978,1056
3848,979,1057
3849,983,1058
3850,986,1061
3851,986,1060
3852,984,1058
3853,983,1054
3854,980,1055
3855,984,1059
3856,987,1061
3857,986,1060
3858,985,1056
3859,982,1055
3860,979,1057
3861,983,1057
3862,987,1060
3863,987,1058
3864,985,1054
3865,983,1051
3866,982,1052
3867,984,1054
3868,987,1059
3869,985,1057
3870,986,1056
3871,982,1052
3872,982,1051
3873,982,1056
3874,984,1061
3875,987,1058
3876,987,1057
3877,983,1054
3878,980,1055
3879,982,1057
3880,988,1062
3881,988,1060
3882,986,1056
3883,983,1054
3884,981,1053
3885,982,1056
3886,985,1057
3887,987,1057
3888,984,1055
3889,981,1051
3890,977,1052
3891,979,1055
3892,986,1057
3893,985,1055
3894,984,1053
3895,981,1052
3896,979,1054
3897,979,1054
3898,982,1057
3899,983,1058
3900,981,1052
3901,977,1052
3902,976,1054
3903,979,1054
3904,985,1058
3905,989,1056
3906,984,1053
3907,984,1053
3908,982,1055
3909,985,1056
3910,989,1057
3911,989,1056
3912,984,1053
3913,982,1051
3914,984,1052
3915,987,1055
3916,987,1058
3917,990,1060
3918,987,1057
3919,987,1054
3920,984,1055
3921,988,1059
3922,991,1058
3923,991,1057
3924,988,1054
3925,988,1054
3926,982,1054
3927,989,1058
3928,992,1059
3929,991,1057
3930,990,1056
3931,989,1052
3932,988,1053
3933,989,1055
3934,991,1056
3935,993,1055
3936,992,1053
3937,991,1050
3938,990,1052
3939,991,1055
3940,995,1058
3941,999,1059
3942,994,1059
3943,992,1056
3944,990,1059
3945,991,1063
3946,991,1064
3947,992,1064
3948,989,1061
3949,990,1059
3950,991,1061
3951,996,1062
3952,1001,1061
3953,1001,1059
3954,1001,1056
3955,1003,1054
3956,1000,1056
3957,1001,1056
3958,1004,1059
3959,1007,1058
3960,1002,1053
3961,1000,1051
3962,998,1051
3963,1000,1051
3964,998,1052
3965,998,1054
3966,995,1049
3967,993,1048
3968,987,1049
3969,988,1051
3970,990,1056
3971,988,1053
3972,992,1049
3973,986,1049
3974,988,1052
3975,989,1053
3976,993,1052
3977,992,1051
3978,993,1048
3979,987,1047
3980,987,1048
3981,993,1050
3982,994,1055
3983,996,1053
3984,993,1050
3985,992,1049
3986,994,1050
3987,994,1054
3988,1002,1062
3989,1004,1062
3990,1006,1062
3991,1005,1058
3992,1011,1050
3993,1018,1036
3994,1023,1018
3995,1031,993
3996,1039,965
3997,1057,933
3998,1080,904
3999,1105,874
4000,1135,851
4001,1164,833
4002,1191,827
4003,1213,837
4004,1233,855
4005,1260,880
4006,1281,910
4007,1288,946
4008,1272,978
4009,1246,1002
4010,1207,1023
4011,1168,1036
4012,1131,1039
4013,1096,1033
4014,1063,1030
4015,1039,1031
4016,1023,1037
4017,1017,1044
4018,1020,1051
4019,1019,1052
4020,1013,1049
4021,1008,1051
4022,1005,1054
4023,1003,1055
4024,1001,1060
4025,1001,1061
4026,997,1058
4027,992,1054
4028,990,1058
4029,989,1061
4030,989,1064
4031,991,1062
4032,988,1059
4033,985,1058
4034,986,1057
4035,984,1060
4036,987,1064
4037,987,1062
4038,983,1061
4039,983,1057
4040,982,1060
4041,986,1062
4042,986,1064
4043,988,1064
4044,985,1061
4045,984,1058
4046,981,1059
4047,986,1062
4048,987,1063
4049,989,1063
4050,989,1060
4051,985,1057
4052,983,1057
4053,986,1060
4054,991,1064
4055,990,1063
4056,990,1058
4057,987,1056
4058,986,1057
4059,991,1062
4060,992,1062
4061,995,1060
4062,993,1058
4063,990,1054
4064,991,1056
4065,995,1058
4066,997,1058
4067,1000,1057
4068,1000,1053
4069,997,1052
4070,995,1051
4071,996,1055
4072,1001,1055
4073,1004,1056
4074,1004,1052
4075,1001,1048
4076,1004,1048
4077,1008,1051
4078,1011,1052
4079,1015,1049
4080,1015,1047
4081,1016,1045
4082,1015,1046
4083,1018,1045
4084,1026,1047
4085,1029,1045
4086,1029,1042
4087,1028,1039
4088,1032,1039
4089,1035,1040
4090,1040,1040
4091,1041,1037
4092,1041,1035
4093,1038,1032
4094,1041,1033
4095,1047,1033
4096,1050,1034
4097,1054,1031
4098,1056,1029
4099,1054,1028
4100,1053,1028
4101,1056,1032
4102,1059,1036
4103,1062,1034
4104,1059,1033
4105,1057,1033
4106,1056,1036
4107,1053,1039
4108,1054,1042
4109,1052,1041
4110,1044,1042
4111,1039,1040
4112,1035,1045
4113,1030,1048
4114,1032,1049
4115,1026,1050
4116,1019,1046
4117,1014,1044
4118,1009,1048
4119,1005,1050
4120,1005,1056
4121,1004,1054
4122,999,1052
4123,991,1049
4124,989,1049
4125,987,1051
4126,990,1053
4127,986,1055
4128,986,1053
4129,979,1052
4130,977,1053
4131,979,1057
4132,981,1058
4133,982,1054
4134,980,1051
4135,974,1049
4136,973,1049
4137,977,1053
4138,978,1057
4139,980,1056
4140,977,1051
4141,972,1049
4142,973,1050
4143,973,1053
4144,975,1055
4145,975,1054
4146,974,1052
4147,970,1051
4148,970,1054
4149,972,1056
4150,976,1058
4151,975,1058
4152,972,1053
4153,970,1051
4154,971,1054
4155,972,1058
4156,973,1059
4157,975,1057
4158,975,1053
4159,971,1054
4160,972,1053
4161,975,1057
4162,977,1060
4163,977,1060
4164,975,1055
4165,972,1054
4166,969,1057
4167,976,1058
4168,979,1060
4169,981,1059
4170,978,1056
4171,975,1055
4172,975,1057
4173,975,1058
4174,978,1060
4175,980,1058
4176,978,1056
4177,976,1055
4178,976,1057
4179,975,1058
4180,978,1061
4181,980,1057
4182,978,1055
4183,974,1054
4184,972,1055
4185,976,1058
4186,980,1060
4187,977,1057
4188,974,1056
4189,972,1053
4190,972,1056
4191,975,1056
4192,975,1058
4193,978,1056
4194,976,1055
4195,975,1052
4196,974,1055
4197,974,1057
4198,975,1062
4199,977,1057
4200,974,1054
4201,970,1053
4202,970,1054
4203,973,1057
4204,975,1058
4205,976,1056
4206,974,1055
4207,971,1050
4208,968,1052
4209,969,1054
4210,974,1057
4211,974,1055
4212,972,1052
4213,971,1051
4214,969,1052
4215,970,1053
4216,975,1056
4217,974,1056
4218,972,1052
4219,972,1050
4220,969,1049
4221,971,1055
4222,970,1054
4223,976,1054
4224,974,1054
4225,973,1049
4226,970,1052
4227,972,1055
4228,976,1057
4229,975,1054
4230,971,1053
4231,970,1051
4232,971,1053
4233,972,1056
4234,972,1055
4235,973,1051
4236,975,1054
4237,969,1049
4238,967,1051
4239,971,1051
4240,972,1055
4241,974,1053
4242,974,1050
4243,970,1047
4244,969,1051
4245,972,1053
4246,974,1055
4247,972,1052
4248,972,1051
4249,970,1050
4250,970,1052
4251,972,1052
4252,976,1053
4253,976,1051
4254,972,1049
4255,969,1046
4256,968,1049
4257,973,1051
4258,973,1055
4259,974,1051
4260,974,1049
4261,972,1049
4262,969,1047
4263,970,1050
4264,976,1055
4265,973,1051
4266,972,1049
4267,970,1046
4268,970,1046
4269,970,1049
4270,974,1051
4271,974,1049
4272,972,1048
4273,971,1046
4274,969,1046
4275,972,1049
4276,981,1049
4277,978,1049
4278,974,1047
4279,969,1042
4280,971,1045
4281,974,1047
4282,978,1045
4283,978,1047
4284,976,1044
4285,972,1043
4286,973,1044
4287,975,1047
4288,978,1048
4289,977,1048
4290,977,1043
4291,973,1042
4292,972,1043
4293,975,1046
4294,978,1049
4295,977,1046
4296,977,1043
4297,973,1041
4298,972,1042
4299,976,1043
4300,978,1048
4301,977,1044
4302,976,1042
4303,973,1042
4304,973,1044
4305,974,1045
4306,979,1047
4307,978,1044
4308,977,1044
4309,975,1040
4310,974,1044
4311,976,1043
4312,977,1045
4313,978,1043
4314,977,1042
4315,975,1040
4316,972,1042
4317,974,1043
4318,979,1045
4319,978,1044
4320,976,1041
4321,972,1039
4322,975,1038
4323,978,1043
4324,982,1042
4325,981,1044
4326,981,1041
4327,979,1039
4328,981,1040
4329,980,1044
4330,981,1042
4331,984,1043
4332,982,1039
4333,981,1039
4334,982,1041
4335,984,1042
4336,985,1048
4337,989,1048
4338,986,1048
4339,981,1043
4340,979,1045
4341,983,1051
4342,985,1052
4343,984,1052
4344,984,1048
4345,985,1048
4346,990,1050
4347,991,1051
4348,996,1049
4349,998,1046
4350,997,1044
4351,994,1042
4352,992,1044
4353,994,1049
4354,998,1049
4355,997,1049
4356,993,1045
4357,989,1040
4358,989,1042
4359,984,1040
4360,990,1046
4361,992,1043
4362,989,1041
4363,984,1037
4364,983,1039
4365,983,1040
4366,988,1043
4367,986,1040
4368,986,1039
4369,984,1036
4370,981,1041
4371,986,1042
4372,986,1042
4373,987,1042
4374,988,1037
4375,988,1033
4376,985,1038
4377,989,1041
4378,991,1042
4379,992,1040
4380,989,1040
4381,988,1040
4382,987,1046
4383,992,1050
4384,997,1050
4385,1000,1048
4386,1007,1034
4387,1007,1018
4388,1015,996
4389,1022,971
4390,1036,943
4391,1056,911
4392,1079,877
4393,1102,842
4394,1135,822
4395,1168,821
4396,1199,828
4397,1227,846
4398,1251,866
4399,1275,893
4400,1292,926
4401,1292,960
4402,1272,990
4403,1231,1015
4404,1177,1026
4405,1130,1029
4406,1087,1029
4407,1053,1027
4408,1027,1023
4409,1006,1025
4410,995,1027
4411,994,1031
4412,999,1034
4413,1001,1040
4414,1002,1044
4415,997,1043
4416,995,1039
4417,987,1039
4418,988,1041
4419,987,1043
4420,988,1047
4421,988,1047
4422,980,1046
4423,978,1044
4424,977,1042
4425,978,1047
4426,978,1049
4427,979,1046
4428,977,1045
4429,975,1042
4430,975,1043
4431,975,1048
4432,979,1050
4433,980,1047
4434,978,1045
4435,973,1044
4436,971,1043
4437,974,1047
4438,978,1049
4439,979,1052
4440,977,1045
4441,975,1044
4442,974,1046
4443,974,1048
4444,979,1048
4445,981,1048
4446,978,1044
4447,975,1042
4448,972,1044
4449,979,1044
4450,978,1046
4451,981,1045
4452,981,1043
4453,977,1043
4454,977,1041
4455,980,1045
4456,983,1044
4457,982,1043
4458,983,1042
4459,984,1039
4460,986,1040
4461,986,1042
4462,990,1044
4463,989,1042
4464,993,1038
4465,989,1035
4466,990,1038
4467,993,1039
4468,998,1038
4469,997,1037
4470,1000,1033
4471,998,1030
4472,996,1032
4473,1002,1035
4474,1009,1035
4475,1012,1035
4476,1013,1030
4477,1013,1028
4478,1016,1025
4479,1018,1028
4480,1022,1030
4481,1026,1029
4482,1026,1025
4483,1026,1024
4484,1026,1024
4485,1031,1023
4486,1037,1026
4487,1039,1023
4488,1037,1019
4489,1036,1018
4490,1039,1022
4491,1044,1022
4492,1045,1025
4493,1051,1024
4494,1049,1021
4495,1048,1018
4496,1047,1022
4497,1050,1027
4498,1052,1029
4499,1047,1031
4500,1043,1029
4501,1037,1025
4502,1035,1031
4503,1037,1035
4504,1033,1039
4505,1029,1038
4506,1024,1038
4507,1016,1036
4508,1011,1040
4509,1008,1043
4510,1006,1045
4511,1006,1042
4512,1003,1042
4513,996,1041
4514,993,1040
4515,990,1044
4516,990,1045
4517,989,1048
4518,986,1044
4519,978,1043
4520,978,1042
4521,977,1047
4522,980,1049
4523,978,1047
4524,977,1042
4525,974,1043
4526,972,1042
4527,973,1045
4528,973,1048
4529,973,1045
4530,971,1042
4531,970,1043
4532,970,1043
4533,970,1045
4534,970,1047
4535,975,1048
4536,974,1048
4537,972,1041
4538,970,1045
4539,970,1048
4540,973,1051
4541,975,1053
4542,972,1046
4543,969,1045
4544,970,1045
4545,969,1048
4546,970,1052
4547,971,1049
4548,969,1045
4549,969,1045
4550,967,1047
4551,971,1049
4552,974,1051
4553,974,1051
4554,973,1047
4555,969,1048
4556,971,1047
4557,973,1050
4558,976,1051
4559,977,1050
4560,974,1048
4561,969,1045
4562,970,1047
4563,971,1049
4564,973,1051
4565,975,1049
4566,974,1046
4567,969,1046
4568,970,1044
4569,972,1049
4570,974,1051
4571,974,1049
4572,974,1047
4573,970,1044
4574,969,1047
4575,971,1049
4576,973,1052
4577,972,1050
4578,971,1047
4579,970,1046
4580,969,1048
4581,968,1050
4582,973,1051
4583,973,1049
4584,972,1050
4585,971,1046
4586,969,1047
4587,973,1051
4588,974,1052
4589,977,1051
4590,973,1051
4591,971,1048
4592,970,1048
4593,972,1050
4594,977,1052
4595,973,1053
4596,973,1049
4597,971,1046
4598,967,1047
4599,972,1052
4600,973,1054
4601,977,1054
4602,975,1050
4603,970,1048
4604,970,1048
4605,973,1053
4606,973,1053
4607,975,1052
4608,973,1049
4609,969,1046
4610,969,1049
4611,971,1051
4612,975,1052
4613,975,1049
4614,972,1049
4615,972,1046
4616,970,1047
4617,971,1050
4618,972,1051
4619,975,1051
4620,971,1048
4621,968,1045
4622,968,1047
4623,973,1049
4624,972,1054
4625,971,1051
4626,971,1047
4627,967,1045
4628,968,1046
4629,972,1049
4630,973,1050
4631,972,1048
4632,971,1047
4633,968,1046
4634,968,1045
4635,970,1050
4636,973,1051
4637,972,1050
4638,971,1046
4639,963,1045
4640,965,1047
4641,967,1049
4642,972,1049
4643,971,1049
4644,971,1044
4645,967,1046
4646,969,1046
4647,969,1048
4648,974,1048
4649,974,1048
4650,973,1045
4651,970,1043
4652,969,1046
4653,968,1049
4654,970,1051
4655,973,1049
4656,970,1046
4657,969,1044
4658,970,1045
4659,971,1047
4660,972,1048
4661,973,1048
4662,973,1047
4663,969,1044
4664,967,1047
4665,970,1050
4666,972,1051
4667,975,1048
4668,972,1046
4669,970,1043
4670,969,1048
4671,970,1049
4672,973,1050
4673,974,1050
4674,972,1048
4675,971,1045
4676,970,1045
4677,970,1048
4678,975,1051
4679,974,1049
4680,971,1047
4681,971,1045
4682,970,1047
4683,973,1048
4684,975,1049
4685,974,1048
4686,973,1047
4687,968,1043
4688,970,1046
4689,969,1049
4690,974,1052
4691,975,1050
4692,974,1046
4693,968,1046
4694,967,1046
4695,970,1048
4696,975,1048
4697,976,1049
4698,970,1046
4699,970,1044
4700,968,1044
4701,971,1046
4702,970,1053
4703,969,1047
4704,970,1046
4705,969,1045
4706,968,1046
4707,972,1049
4708,973,1048
4709,973,1048
4710,973,1046
4711,968,1045
4712,970,1046
4713,973,1047
4714,973,1052
4715,976,1050
4716,970,1047
4717,969,1044
4718,968,1045
4719,970,1046
4720,971,1049
4721,973,1048
4722,971,1047
4723,969,1041
4724,969,1042
4725,970,1045
4726,972,1048
4727,971,1043
4728,971,1041
4729,967,1040
4730,966,1041
4731,970,1043
4732,976,1045
4733,973,1046
4734,973,1044
4735,973,1044
4736,973,1049
4737,974,1054
4738,976,1057
4739,974,1056
4740,972,1053
4741,971,1051
4742,970,1053
4743,975,1054
4744,982,1055
4745,984,1052
4746,986,1048
4747,984,1048
4748,985,1046
4749,985,1050
4750,989,1052
4751,990,1051
4752,990,1048
4753,985,1047
4754,986,1049
4755,987,1051
4756,987,1051
4757,987,1050
4758,985,1047
4759,980,1045
4760,978,1045
4761,978,1048
4762,979,1049
4763,979,1049
4764,975,1048
4765,975,1046
4766,973,1047
4767,976,1048
4768,980,1050
4769,981,1048
4770,978,1046
4771,978,1043
4772,974,1044
4773,978,1048
4774,978,1048
4775,983,1047
4776,981,1045
4777,978,1043
4778,978,1043
4779,981,1051
4780,986,1052
4781,983,1057
4782,981,1055
4783,984,1054
4784,986,1054
4785,993,1051
4786,1002,1035
4787,1005,1016
4788,1012,992
4789,1016,969
4790,1034,942
4791,1059,918
4792,1085,890
4793,1109,861
4794,1137,841
4795,1161,836
4796,1186,846
4797,1210,860
4798,1234,882
4799,1258,909
4800,1267,938
4801,1258,970
4802,1236,996
4803,1203,1019
4804,1164,1030
4805,1122,1033
4806,1082,1026
4807,1046,1024
4808,1021,1030
4809,1004,1036
4810,999,1044
4811,1002,1047
4812,1001,1046
4813,995,1046
4814,992,1050
4815,983,1051
4816,984,1058
4817,984,1055
4818,978,1054
4819,974,1050
4820,972,1053
4821,973,1056
4822,975,1060
4823,974,1060
4824,972,1054
4825,969,1054
4826,967,1055
4827,970,1056
4828,971,1059
4829,972,1058
4830,966,1055
4831,964,1055
4832,964,1056
4833,966,1059
4834,969,1061
4835,971,1061
4836,969,1054
4837,968,1053
4838,966,1055
4839,967,1059
4840,972,1061
4841,974,1061
4842,970,1056
4843,969,1056
4844,966,1054
4845,971,1059
4846,972,1058
4847,973,1057
4848,970,1054
4849,973,1052
4850,972,1053
4851,975,1054
4852,974,1057
4853,979,1055
4854,978,1053
4855,975,1050
4856,975,1051
4857,977,1053
4858,981,1055
4859,984,1055
4860,983,1051
4861,982,1048
4862,983,1049
4863,983,1053
4864,988,1055
4865,990,1050
4866,989,1046
4867,986,1044
4868,988,1046
4869,990,1047
4870,997,1051
4871,997,1047
4872,1001,1044
4873,1000,1043
4874,1001,1042
4875,1005,1041
4876,1010,1043
4877,1014,1044
4878,1013,1037
4879,1010,1035
4880,1015,1037
4881,1020,1035
4882,1026,1038
4883,1026,1034
4884,1029,1035
4885,1027,1032
4886,1030,1031
4887,1034,1033
4888,1039,1036
4889,1041,1033
4890,1042,1029
4891,1042,1028
4892,1044,1032
4893,1045,1035
4894,1048,1038
4895,1050,1036
4896,1046,1035
4897,1046,1035
4898,1042,1037
4899,1041,1039
4900,1040,1045
4901,1039,1046
4902,1036,1043
4903,1027,1043
4904,1024,1045
4905,1021,1046
4906,1018,1050
4907,1015,1050
4908,1010,1047
4909,1003,1046
4910,999,1047
4911,994,1054
4912,996,1055
4913,993,1055
4914,986,1050
4915,981,1050
4916,978,1050
4917,978,1052
4918,978,1055
4919,978,1052
4920,975,1051
4921,969,1047
4922,968,1051
4923,971,1051
4924,973,1055
4925,972,1049
4926,967,1050
4927,966,1049
4928,963,1050
4929,965,1053
4930,966,1054
4931,967,1053
4932,966,1049
4933,962,1048
4934,961,1048
4935,958,1051
4936,962,1053
4937,964,1052
4938,961,1049
4939,961,1046
4940,958,1049
4941,960,1051
4942,966,1054
4943,966,1053
4944,962,1052
4945,960,1047
4946,959,1049
4947,962,1051
4948,963,1055
4949,964,1053
4950,962,1049
4951,962,1049
4952,963,1051
4953,963,1051
4954,967,1058
4955,968,1054
4956,966,1053
4957,962,1050
4958,963,1052
4959,965,1056
4960,968,1057
4961,968,1057
4962,966,1055
4963,964,1053
4964,966,1056
4965,966,1059
4966,968,1059
4967,968,1059
4968,968,1056
4969,964,1054
4970,966,1055
4971,970,1060
4972,970,1059
4973,972,1059
4974,970,1058
4975,965,1052
4976,964,1055
4977,967,1057
4978,969,1058
4979,971,1058
4980,969,1055
4981,963,1053
4982,962,1055
4983,965,1055
4984,969,1059
4985,968,1058
4986,967,1058
4987,964,1052
4988,964,1054
4989,965,1057
4990,966,1059
4991,968,1058
4992,965,1055
4993,962,1051
4994,961,1055
4995,962,1055
4996,965,1057
4997,965,1058
4998,966,1053
4999,963,1051
5000,962,1053
5001,962,1055
5002,962,1057
5003,962,1056
5004,958,1050
5005,955,1052
5006,955,1052
5007,960,1055
5008,960,1056
5009,960,1056
5010,957,1054
5011,957,1050
5012,954,1051
5013,957,1055
5014,960,1059
5015,959,1056
5016,959,1055
5017,957,1052
5018,954,1049
5019,954,1052
5020,957,1057
5021,958,1054
5022,956,1051
5023,955,1051
5024,955,1050
5025,954,1053
5026,955,1055
5027,957,1052
5028,956,1051
5029,954,1052
5030,951,1052
5031,954,1049
5032,954,1056
5033,957,1051
5034,954,1052
5035,953,1047
5036,949,1050
5037,953,1053
5038,957,1055
5039,955,1053
5040,954,1054
5041,954,1050
5042,951,1050
5043,954,1052
5044,956,1053
5045,958,1052
5046,956,1051
5047,952,1049
5048,953,1050
5049,955,1051
5050,958,1054
5051,955,1050
5052,955,1049
5053,955,1044
5054,955,1047
5055,954,1050
5056,959,1052
5057,960,1051
5058,957,1048
5059,955,1045
5060,952,1046
5061,954,1049
5062,957,1051
5063,957,1047
5064,956,1044
5065,952,1043
5066,953,1045
5067,954,1049
5068,957,1049
5069,957,1049
5070,955,1049
5071,952,1046
5072,952,1046
5073,957,1046
5074,960,1048
5075,958,1045
5076,955,1043
5077,952,1040
5078,952,1044
5079,956,1048
5080,956,1047
5081,959,1047
5082,958,1044
5083,957,1043
5084,955,1044
5085,957,1049
5086,959,1050
5087,959,1049
5088,959,1045
5089,955,1042
5090,956,1045
5091,955,1048
5092,957,1049
5093,962,1047
5094,958,1046
5095,954,1043
5096,954,1045
5097,958,1047
5098,964,1051
5099,962,1047
5100,962,1044
5101,959,1045
5102,960,1048
5103,960,1049
5104,963,1049
5105,963,1048
5106,959,1045
5107,960,1043
5108,959,1045
5109,962,1046
5110,961,1048
5111,966,1048
5112,965,1045
5113,961,1044
5114,962,1044
5115,964,1050
5116,961,1052
5117,966,1050
5118,965,1046
5119,961,1046
5120,961,1047
5121,963,1049
5122,966,1048
5123,966,1048
5124,963,1046
5125,964,1042
5126,962,1044
5127,963,1048
5128,966,1050
5129,968,1048
5130,967,1042
5131,963,1044
5132,966,1048
5133,965,1053
5134,968,1056
5135,969,1056
5136,967,1053
5137,966,1052
5138,965,1054
5139,964,1055
5140,970,1056
5141,973,1053
5142,970,1053
5143,973,1051
5144,973,1050
5145,975,1053
5146,980,1055
5147,983,1053
5148,980,1049
5149,977,1045
5150,978,1046
5151,982,1049
5152,983,1053
5153,982,1049
5154,980,1048
5155,976,1042
5156,976,1043
5157,974,1044
5158,976,1047
5159,975,1046
5160,974,1042
5161,968,1040
5162,965,1039
5163,964,1041
5164,968,1045
5165,969,1045
5166,970,1041
5167,967,1038
5168,967,1040
5169,966,1038
5170,969,1043
5171,970,1040
5172,969,1038
5173,966,1035
5174,967,1041
5175,969,1043
5176,974,1043
5177,975,1042
5178,973,1040
5179,972,1038
5180,971,1042
5181,976,1049
5182,981,1056
5183,983,1052
5184,984,1046
5185,987,1037
5186,994,1022
5187,1000,1004
5188,1011,983
5189,1020,950
5190,1032,916
5191,1047,884
5192,1068,854
5193,1096,832
5194,1129,819
5195,1155,815
5196,1178,823
5197,1197,837
5198,1223,863
5199,1249,892
5200,1263,926
5201,1263,957
5202,1246,981
5203,1213,1003
5204,1169,1023
5205,1126,1036
5206,1091,1036
5207,1059,1029
5208,1029,1024
5209,1005,1024
5210,994,1029
5211,990,1036
5212,993,1042
5213,994,1044
5214,991,1042
5215,985,1042
5216,985,1043
5217,981,1047
5218,982,1051
5219,980,1050
5220,973,1047
5221,968,1045
5222,965,1045
5223,967,1045
5224,968,1048
5225,969,1046
5226,968,1046
5227,962,1046
5228,960,1048
5229,963,1050
5230,966,1051
5231,964,1050
5232,965,1049
5233,961,1048
5234,961,1047
5235,960,1052
5236,966,1054
5237,965,1052
5238,967,1049
5239,961,1046
5240,962,1048
5241,963,1050
5242,964,1051
5243,963,1051
5244,963,1048
5245,961,1046
5246,960,1047
5247,962,1049
5248,967,1050
5249,967,1048
5250,966,1047
5251,963,1043
5252,963,1042
5253,964,1049
5254,966,1050
5255,968,1048
5256,968,1045
5257,964,1044
5258,966,1043
5259,967,1045
5260,969,1048
5261,972,1047
5262,973,1046
5263,974,1042
5264,972,1043
5265,975,1046
5266,977,1049
5267,977,1047
5268,980,1045
5269,978,1039
5270,978,1042
5271,982,1041
5272,987,1045
5273,992,1043
5274,991,1037
5275,991,1036
5276,990,1039
5277,994,1039
5278,1000,1040
5279,1001,1036
5280,1003,1036
5281,1003,1035
5282,1006,1035
5283,1009,1033
5284,1013,1033
5285,1017,1033
5286,1017,1030
5287,1016,1027
5288,1018,1029
5289,1020,1030
5290,1024,1033
5291,1030,1028
5292,1029,1027
5293,1028,1028
5294,1030,1026
5295,1036,1031
5296,1041,1033
5297,1041,1033
5298,1038,1030
5299,1036,1030
5300,1036,1033
5301,1038,1035
5302,1041,1041
5303,1041,1038
5304,1038,1037
5305,1030,1037
5306,1028,1040
5307,1025,1044
5308,1025,1047
5309,1022,1046
5310,1016,1044
5311,1010,1045
5312,1007,1047
5313,1005,1049
5314,1003,1051
5315,998,1051
5316,996,1051
5317,987,1047
5318,984,1047
5319,983,1047
5320,980,1051
5321,978,1051
5322,971,1050
5323,970,1046
5324,967,1049
5325,965,1051
5326,968,1053
5327,967,1052
5328,965,1048
5329,960,1047
5330,960,1050
5331,961,1053
5332,964,1055
5333,961,1053
5334,959,1049
5335,955,1048
5336,955,1048
5337,955,1049
5338,960,1053
5339,960,1050
5340,956,1049
5341,956,1045
5342,954,1049
5343,956,1050
5344,959,1053
5345,959,1052
5346,958,1051
5347,958,1047
5348,956,1050
5349,956,1053
5350,959,1054
5351,959,1049
5352,960,1048
5353,955,1050
5354,956,1050
5355,957,1053
5356,962,1056
5357,962,1053
5358,962,1051
5359,957,1046
5360,957,1049
5361,960,1050
5362,960,1054
5363,962,1052
5364,960,1050
5365,958,1049
5366,960,1049
5367,956,1053
5368,963,1055
5369,964,1053
5370,962,1048
5371,958,1046
5372,960,1048
5373,960,1050
5374,965,1054
5375,963,1050
5376,961,1049
5377,959,1046
5378,959,1047
5379,958,1049
5380,963,1051
5381,964,1053
5382,963,1050
5383,957,1046
5384,956,1049
5385,959,1050
5386,962,1053
5387,963,1052
5388,960,1049
5389,957,1046
5390,957,1048
5391,957,1052
5392,963,1053
5393,964,1052
5394,960,1051
5395,957,1049
5396,958,1049
5397,960,1049
5398,962,1054
5399,963,1051
5400,961,1048
5401,956,1047
5402,959,1047
5403,958,1050
5404,961,1055
5405,962,1053
5406,962,1051
5407,960,1045
5408,955,1050
5409,958,1050
5410,962,1054
5411,963,1052
5412,959,1052
5413,960,1050
5414,960,1050
5415,964,1050
5416,963,1054
5417,965,1052
5418,964,1048
5419,957,1048
5420,954,1049
5421,958,1051
5422,961,1055
5423,963,1055
5424,962,1048
5425,959,1047
5426,958,1048
5427,960,1050
5428,962,1050
5429,963,1049
5430,963,1046
5431,958,1045
5432,957,1050
5433,960,1051
5434,962,1055
5435,965,1049
5436,964,1046
5437,959,1046
5438,957,1047
5439,961,1050
5440,961,1051
5441,964,1051
5442,962,1049
5443,960,1045
5444,958,1049
5445,961,1050
5446,965,1052
5447,965,1049
5448,960,1045
5449,960,1044
5450,959,1047
5451,961,1050
5452,963,1051
5453,966,1051
5454,964,1047
5455,962,1046
5456,961,1045
5457,963,1048
5458,964,1049
5459,963,1049
5460,964,1048
5461,958,1044
5462,959,1045
5463,961,1047
5464,963,1048
5465,965,1048
5466,963,1046
5467,957,1044
5468,957,1044
5469,961,1048
5470,964,1051
5471,964,1049
5472,963,1046
5473,961,1045
5474,958,1047
5475,961,1048
5476,967,1049
5477,966,1048
5478,960,1045
5479,959,1045
5480,957,1045
5481,965,1047
5482,966,1052
5483,967,1048
5484,966,1044
5485,962,1043
5486,964,1043
5487,965,1047
5488,967,1048
5489,969,1048
5490,965,1042
5491,964,1040
5492,964,1043
5493,967,1046
5494,970,1050
5495,969,1046
5496,967,1045
5497,965,1043
5498,963,1043
5499,967,1044
5500,969,1047
5501,967,1044
5502,966,1040
5503,962,1039
5504,964,1045
5505,962,1048
5506,969,1047
5507,971,1047
5508,971,1044
5509,967,1043
5510,966,1044
5511,966,1047
5512,969,1047
5513,970,1045
5514,971,1042
5515,968,1040
5516,967,1041
5517,969,1046
5518,970,1047
5519,970,1046
5520,969,1042
5521,967,1041
5522,969,1041
5523,970,1046
5524,970,1047
5525,973,1045
5526,969,1042
5527,966,1041
5528,966,1041
5529,967,1042
5530,969,1048
5531,972,1044
5532,969,1042
5533,968,1039
5534,968,1040
5535,968,1041
5536,968,1045
5537,969,1041
5538,971,1039
5539,967,1037
5540,967,1039
5541,969,1042
5542,973,1045
5543,972,1045
5544,970,1045
5545,967,1043
5546,967,1045
5547,969,1049
5548,971,1051
5549,972,1049
5550,971,1051
5551,968,1047
5552,966,1047
5553,972,1049
5554,976,1049
5555,980,1049
5556,980,1047
5557,979,1042
5558,980,1042
5559,984,1045
5560,986,1048
5561,986,1046
5562,984,1044
5563,982,1040
5564,981,1043
5565,982,1044
5566,982,1045
5567,982,1044
5568,978,1041
5569,978,1038
5570,973,1039
5571,976,1042
5572,978,1044
5573,978,1044
5574,977,1038
5575,972,1037
5576,971,1039
5577,973,1041
5578,978,1042
5579,976,1041
5580,975,1036
5581,972,1034
5582,974,1036
5583,976,1040
5584,978,1044
5585,978,1039
5586,978,1039
5587,976,1036
5588,975,1038
5589,978,1040
5590,982,1041
5591,983,1041
5592,984,1043
5593,982,1043
5594,985,1049
5595,987,1053
5596,992,1058
5597,995,1050
5598,999,1039
5599,1000,1022
5600,1006,1003
5601,1015,985
5602,1022,959
5603,1034,930
5604,1054,898
5605,1070,865
5606,1095,836
5607,1120,818
5608,1145,813
5609,1171,821
5610,1189,834
5611,1201,854
5612,1225,888
5613,1240,921
5614,1240,955
5615,1221,984
5616,1189,1004
5617,1153,1016
5618,1122,1026
5619,1093,1027
5620,1069,1023
5621,1043,1022
5622,1020,1023
5623,1004,1027
5624,996,1031
5625,998,1037
5626,1001,1044
5627,999,1045
5628,995,1044
5629,988,1042
5630,984,1044
5631,983,1050
5632,983,1050
5633,980,1051
5634,977,1048
5635,973,1045
5636,973,1049
5637,969,1048
5638,970,1055
5639,972,1048
5640,970,1046
5641,966,1044
5642,964,1048
5643,968,1050
5644,967,1053
5645,968,1053
5646,967,1048
5647,965,1048
5648,965,1047
5649,964,1050
5650,966,1053
5651,968,1052
5652,965,1050
5653,963,1050
5654,963,1049
5655,967,1052
5656,969,1056
5657,969,1052
5658,969,1051
5659,967,1048
5660,966,1050
5661,966,1052
5662,969,1055
5663,969,1051
5664,969,1049
5665,965,1049
5666,969,1046
5667,968,1049
5668,970,1050
5669,972,1048
5670,970,1044
5671,970,1044
5672,970,1044
5673,972,1046
5674,976,1049
5675,976,1047
5676,970,1043
5677,971,1041
5678,970,1043
5679,975,1047
5680,977,1045
5681,981,1043
5682,981,1040
5683,979,1041
5684,982,1039
5685,985,1043
5686,990,1042
5687,993,1041
5688,990,1040
5689,989,1034
5690,992,1035
5691,996,1037
5692,1002,1039
5693,1004,1036
5694,1003,1031
5695,1003,1028
5696,1003,1028
5697,1006,1028
5698,1011,1030
5699,1013,1028
5700,1015,1024
5701,1013,1023
5702,1018,1025
5703,1021,1027
5704,1027,1026
5705,1030,1022
5706,1029,1019
5707,1029,1015
5708,1029,1017
5709,1033,1021
5710,1036,1026
5711,1039,1023
5712,1039,1023
5713,1038,1020
5714,1036,1023
5715,1039,1029
5716,1042,1032
5717,1039,1031
5718,1034,1031
5719,1030,1027
5720,1026,1031
5721,1025,1034
5722,1025,1037
5723,1020,1039
5724,1016,1038
5725,1010,1034
5726,1005,1039
5727,1000,1043
5728,1002,1045
5729,999,1045
5730,992,1040
5731,988,1038
5732,985,1040
5733,983,1043
5734,982,1047
5735,978,1045
5736,976,1045
5737,972,1045
5738,970,1044
5739,973,1044
5740,973,1047
5741,973,1047
5742,968,1043
5743,965,1041
5744,962,1044
5745,964,1044
5746,966,1047
5747,965,1043
5748,965,1040
5749,961,1040
5750,960,1041
5751,958,1044
5752,962,1046
5753,961,1045
5754,959,1044
5755,955,1040
5756,957,1043
5757,956,1042
5758,958,1044
5759,962,1046
5760,960,1042
5761,957,1041
5762,956,1042
5763,958,1045
5764,961,1049
5765,961,1046
5766,960,1044
5767,957,1042
5768,955,1044
5769,958,1044
5770,961,1047
5771,961,1047
5772,958,1045
5773,956,1043
5774,956,1041
5775,958,1046
5776,961,1049
5777,960,1047
5778,957,1046
5779,953,1041
5780,954,1044
5781,956,1047
5782,959,1048
5783,958,1046
5784,957,1045
5785,953,1042
5786,953,1043
5787,956,1045
5788,960,1047
5789,960,1046
5790,957,1044
5791,958,1040
5792,958,1041
5793,959,1043
5794,961,1049
5795,962,1046
5796,961,1045
5797,958,1042
5798,960,1044
5799,961,1047
5800,963,1047
5801,965,1044
5802,963,1040
5803,961,1042
5804,959,1043
5805,961,1045
5806,965,1046
5807,966,1042
5808,962,1044
5809,961,1041
5810,961,1042
5811,959,1046
5812,963,1046
5813,966,1045
5814,963,1040
5815,958,1040
5816,960,1043
5817,960,1042
5818,965,1044
5819,963,1044
5820,963,1039
5821,958,1040
5822,959,1040
5823,959,1041
5824,963,1047
5825,964,1043
5826,962,1040
5827,958,1038
5828,958,1039
5829,959,1042
5830,964,1042
5831,965,1042
5832,960,1042
5833,957,1039
5834,959,1042
5835,960,1044
5836,961,1046
5837,961,1043
5838,964,1041
5839,960,1038
5840,960,1041
5841,963,1042
5842,963,1043
5843,963,1043
5844,963,1038
5845,957,1036
5846,960,1036
5847,961,1040
5848,964,1044
5849,963,1041
5850,961,1040
5851,957,1037
5852,957,1037
5853,962,1041
5854,960,1040
5855,964,1041
5856,962,1038
5857,960,1036
5858,958,1038
5859,961,1041
5860,963,1042
5861,964,1040
5862,961,1035
5863,961,1036
5864,958,1039
5865,959,1042
5866,963,1044
5867,963,1041
5868,961,1038
5869,961,1038
5870,959,1040
5871,961,1040
5872,965,1043
5873,966,1040
5874,966,1036
5875,962,1035
5876,960,1037
5877,960,1038
5878,964,1041
5879,965,1040
5880,963,1037
5881,960,1035
5882,959,1034
5883,960,1036
5884,962,1040
5885,963,1038
5886,962,1038
5887,960,1035
5888,957,1038
5889,958,1038
5890,960,1039
5891,963,1039
5892,962,1035
5893,958,1033
5894,955,1035
5895,960,1038
5896,963,1038
5897,964,1036
5898,959,1032
5899,957,1032
5900,959,1033
5901,961,1039
5902,965,1041
5903,964,1041
5904,965,1036
5905,962,1034
5906,959,1036
5907,960,1037
5908,964,1038
5909,961,1038
5910,963,1035
5911,961,1032
5912,960,1035
5913,962,1034
5914,964,1035
5915,965,1037
5916,963,1033
5917,959,1035
5918,960,1035
5919,960,1037
5920,965,1038
5921,967,1034
5922,965,1033
5923,959,1029
5924,962,1031
5925,963,1035
5926,966,1037
5927,965,1038
5928,964,1032
5929,961,1030
5930,960,1031
5931,965,1034
5932,965,1036
5933,964,1034
5934,967,1031
5935,965,1029
5936,965,1028
5937,966,1031
5938,970,1032
5939,969,1030
5940,967,1025
5941,965,1026
5942,966,1030
5943,968,1033
5944,972,1035
5945,971,1032
5946,968,1030
5947,966,1029
5948,964,1032
5949,965,1036
5950,973,1040
5951,969,1042
5952,968,1039
5953,967,1038
5954,964,1037
5955,968,1039
5956,975,1041
5957,975,1041
5958,973,1038
5959,973,1035
5960,976,1034
5961,978,1035
5962,982,1038
5963,983,1036
5964,978,1034
5965,973,1033
5966,976,1034
5967,975,1036
5968,979,1039
5969,978,1034
5970,975,1033
5971,970,1030
5972,969,1033
5973,968,1035
5974,971,1036
5975,972,1033
5976,968,1031
5977,967,1029
5978,967,1030
5979,968,1034
5980,973,1034
5981,972,1034
5982,969,1029
5983,969,1029
5984,969,1029
5985,971,1033
5986,970,1035
5987,973,1030
5988,972,1029
5989,970,1029
5990,969,1030
5991,971,1031
5992,974,1034
5993,973,1030
5994,975,1031
5995,975,1035
5996,974,1039
5997,978,1045
5998,983,1045
5999,988,1040
6000,990,1031
6001,995,1015
6002,1003,995
6003,1008,975
6004,1017,949
6005,1031,921
6006,1049,887
6007,1066,853
6008,1092,826
6009,1122,808
6010,1151,809
6011,1173,815
6012,1192,827
6013,1210,849
6014,1236,874
6015,1255,907
6016,1262,934
6017,1250,960
6018,1225,981
6019,1185,1002
6020,1145,1017
6021,1108,1024
6022,1076,1024
6023,1044,1016
6024,1016,1010
6025,995,1011
6026,987,1017
6027,988,1021
6028,995,1031
6029,993,1030
6030,989,1029
6031,987,1029
6032,983,1034
6033,981,1035
6034,980,1039
6035,979,1036
6036,976,1036
6037,970,1034
6038,966,1035
6039,969,1040
6040,971,1042
6041,973,1040
6042,968,1038
6043,966,1036
6044,967,1038
6045,968,1040
6046,969,1043
6047,968,1041
6048,965,1041
6049,963,1037
6050,964,1036
6051,965,1040
6052,968,1042
6053,969,1041
6054,967,1038
6055,964,1034
6056,962,1035
6057,963,1037
6058,968,1041
6059,971,1039
6060,967,1035
6061,964,1033
6062,965,1036
6063,968,1037
6064,971,1039
6065,972,1038
6066,971,1036
6067,969,1033
6068,969,1034
6069,970,1036
6070,971,1037
6071,971,1038
6072,973,1032
6073,969,1032
6074,970,1033
6075,974,1032
6076,976,1035
6077,978,1034
6078,978,1031
6079,975,1028
6080,975,1031
6081,976,1027
6082,984,1031
6083,985,1031
6084,985,1027
6085,983,1022
6086,983,1023
6087,987,1028
6088,993,1028
6089,997,1029
6090,996,1024
6091,993,1023
6092,992,1023
6093,998,1024
6094,1005,1026
6095,1009,1023
6096,1008,1020
6097,1010,1017
6098,1010,1016
6099,1014,1019
6100,1019,1019
6101,1022,1018
6102,1020,1014
6103,1022,1012
6104,1021,1011
6105,1028,1014
6106,1033,1016
6107,1034,1016
6108,1030,1013
6109,1031,1012
6110,1030,1013
6111,1038,1016
6112,1041,1020
6113,1040,1019
6114,1040,1016
6115,1032,1017
6116,1035,1018
6117,1033,1022
6118,1032,1025
6119,1029,1027
6120,1023,1026
6121,1018,1025
6122,1015,1028
6123,1010,1032
6124,1012,1031
6125,1007,1033
6126,1001,1032
6127,991,1034
6128,988,1035
6129,991,1036
6130,991,1038
6131,987,1038
6132,984,1036
6133,980,1033
6134,973,1034
6135,976,1036
6136,976,1039
6137,976,1036
6138,971,1036
6139,964,1034
6140,964,1034
6141,968,1037
6142,969,1036
6143,969,1034
6144,968,1032
6145,964,1032
6146,961,1034
6147,963,1034
6148,968,1038
6149,966,1036
6150,963,1033
6151,960,1033
6152,962,1036
6153,962,1040
6154,965,1041
6155,964,1038
6156,962,1035
6157,960,1035
6158,961,1038
6159,964,1039
6160,966,1042
6161,967,1041
6162,962,1038
6163,964,1035
6164,961,1038
6165,963,1040
6166,966,1042
6167,966,1042
6168,966,1040
6169,961,1036
6170,964,1038
6171,967,1039
6172,970,1043
6173,968,1040
6174,967,1039
6175,963,1038
6176,966,1037
6177,969,1039
6178,970,1041
6179,971,1042
6180,970,1039
6181,968,1037
6182,967,1039
6183,965,1043
6184,969,1045
6185,973,1042
6186,972,1039
6187,969,1034
6188,967,1037
6189,970,1040
6190,973,1040
6191,972,1040
6192,972,1039
6193,969,1038
6194,969,1041
6195,972,1043
6196,975,1045
6197,974,1043
6198,973,1038
6199,967,1038
6200,968,1040
6201,970,1043
6202,969,1042
6203,972,1040
6204,973,1039
6205,971,1038
6206,967,1039
6207,969,1041
6208,972,1043
6209,969,1043
6210,970,1039
6211,969,1039
6212,970,1040
6213,968,1041
6214,969,1045
6215,970,1044
6216,968,1040
6217,967,1038
6218,966,1042
6219,968,1046
6220,970,1044
6221,971,1042
6222,969,1040
6223,966,1040
6224,967,1040
6225,968,1045
6226,968,1045
6227,971,1043
6228,970,1039
6229,967,1038
6230,966,1039
6231,966,1043
6232,968,1044
6233,972,1042
6234,970,1038
6235,965,1036
6236,966,1040
6237,968,1040
6238,966,1042
6239,970,1041
6240,967,1040
6241,965,1037
6242,965,1043
6243,968,1043
6244,972,1045
6245,972,1043
6246,971,1039
6247,967,1040
6248,963,1040
6249,967,1042
6250,974,1043
6251,972,1041
6252,969,1039
6253,967,1037
6254,967,1039
6255,966,1041
6256,970,1043
6257,971,1042
6258,970,1038
6259,968,1037
6260,967,1039
6261,970,1042
6262,973,1044
6263,974,1042
6264,970,1037
6265,967,1034
6266,969,1037
6267,971,1040
6268,973,1042
6269,974,1040
6270,971,1038
6271,969,1036
6272,972,1038
6273,970,1038
6274,971,1039
6275,973,1041
6276,971,1038
6277,966,1036
6278,966,1038
6279,969,1040
6280,971,1043
6281,975,1038
6282,973,1039
6283,971,1037
6284,970,1037
6285,969,1040
6286,974,1043
6287,971,1038
6288,972,1035
6289,970,1035
6290,969,1038
6291,972,1039
6292,976,1040
6293,976,1038
6294,975,1034
6295,973,1035
6296,973,1037
6297,973,1041
6298,976,1041
6299,975,1043
6300,975,1039
6301,972,1036
6302,973,1039
6303,976,1039
6304,978,1042
6305,979,1042
6306,977,1038
6307,973,1037
6308,974,1038
6309,975,1041
6310,979,1041
6311,977,1040
6312,976,1036
6313,974,1035
6314,975,1038
6315,975,1039
6316,978,1042
6317,982,1037
6318,978,1039
6319,975,1037
6320,977,1036
6321,980,1039
6322,983,1040
6323,983,1041
6324,980,1036
6325,980,1035
6326,977,1036
6327,977,1037
6328,983,1039
6329,985,1039
6330,981,1036
6331,977,1035
6332,977,1037
6333,979,1036
6334,984,1041
6335,985,1037
6336,985,1032
6337,982,1035
6338,981,1037
6339,982,1042
6340,989,1043
6341,987,1046
6342,988,1043
6343,985,1043
6344,982,1043
6345,984,1046
6346,984,1050
6347,987,1049
6348,986,1045
6349,987,1044
6350,988,1043
6351,993,1044
6352,994,1045
6353,999,1042
6354,996,1040
6355,996,1038
6356,996,1038
6357,995,1039
6358,1000,1044
6359,999,1041
6360,995,1038
6361,993,1037
6362,994,1036
6363,994,1038
6364,994,1041
6365,993,1040
6366,991,1039
6367,985,1036
6368,987,1037
6369,986,1042
6370,991,1043
6371,990,1041
6372,988,1039
6373,984,1038
6374,987,1037
6375,988,1038
6376,992,1039
6377,993,1037
6378,989,1033
6379,987,1035
6380,989,1034
6381,989,1037
6382,993,1039
6383,992,1040
6384,994,1036
6385,988,1037
6386,993,1038
6387,995,1044
6388,998,1048
6389,1001,1050
6390,1002,1047
6391,1004,1042
6392,1010,1032
6393,1018,1020
6394,1028,1002
6395,1034,974
6396,1044,947
6397,1059,917
6398,1079,890
6399,1104,862
6400,1128,845
6401,1151,831
6402,1174,832
6403,1192,837
6404,1209,853
6405,1233,875
6406,1251,909
6407,1259,938
6408,1248,965
6409,1225,989
6410,1196,1007
6411,1162,1018
6412,1126,1022
6413,1101,1018
6414,1070,1016
6415,1043,1019
6416,1027,1024
6417,1019,1032
6418,1018,1038
6419,1018,1037
6420,1013,1038
6421,1008,1037
6422,999,1039
6423,998,1043
6424,997,1045
6425,992,1045
6426,991,1044
6427,985,1044
6428,985,1047
6429,984,1049
6430,988,1051
6431,987,1050
6432,984,1046
6433,980,1047
6434,978,1047
6435,981,1052
6436,982,1051
6437,983,1050
6438,978,1047
6439,973,1044
6440,977,1048
6441,979,1049
6442,981,1053
6443,979,1050
6444,981,1047
6445,978,1047
6446,977,1048
6447,978,1051
6448,981,1053
6449,983,1049
6450,979,1047
6451,976,1047
6452,978,1048
6453,980,1049
6454,983,1051
6455,982,1050
6456,984,1047
6457,980,1044
6458,981,1046
6459,984,1045
6460,986,1049
6461,986,1047
6462,984,1044
6463,985,1045
6464,985,1045
6465,990,1047
6466,994,1050
6467,993,1048
6468,993,1043
6469,992,1041
6470,993,1043
6471,994,1042
6472,997,1045
6473,1000,1041
6474,1000,1040
6475,999,1037
6476,999,1038
6477,1001,1037
6478,1006,1041
6479,1008,1036
6480,1011,1035
6481,1008,1029
6482,1011,1033
6483,1015,1033
6484,1021,1031
6485,1021,1029
6486,1023,1026
6487,1022,1022
6488,1025,1023
6489,1027,1026
6490,1034,1027
6491,1036,1024
6492,1038,1019
6493,1038,1019
6494,1039,1020
6495,1042,1021
6496,1046,1024
6497,1049,1022
6498,1047,1019
6499,1047,1019
6500,1047,1021
6501,1049,1025
6502,1051,1026
6503,1049,1025
6504,1049,1024
6505,1046,1024
6506,1043,1029
6507,1040,1034
6508,1040,1036
6509,1036,1035
6510,1032,1036
6511,1025,1035
6512,1017,1038
6513,1015,1041
6514,1014,1043
6515,1010,1042
6516,1008,1040
6517,1004,1040
6518,1001,1042
6519,997,1043
6520,996,1049
6521,994,1044
6522,990,1042
6523,985,1040
6524,986,1042
6525,984,1045
6526,983,1048
6527,984,1045
6528,981,1044
6529,978,1044
6530,975,1042
6531,977,1046
6532,980,1046
6533,977,1044
6534,974,1042
6535,971,1043
6536,970,1042
6537,971,1045
6538,974,1048
6539,974,1044
6540,971,1042
6541,972,1039
6542,970,1041
6543,972,1043
6544,973,1048
6545,976,1047
6546,972,1043
6547,972,1041
6548,970,1040
6549,971,1043
6550,972,1047
6551,972,1044
6552,969,1044
6553,969,1041
6554,969,1043
6555,968,1048
6556,970,1048
6557,970,1046
6558,970,1044
6559,970,1043
6560,967,1043
6561,969,1045
6562,971,1047
6563,973,1044
6564,970,1042
6565,968,1041
6566,965,1044
6567,966,1048
6568,972,1049
6569,969,1047
6570,969,1044
6571,967,1043
6572,965,1044
6573,968,1046
6574,970,1049
6575,972,1046
6576,970,1043
6577,965,1041
6578,965,1043
6579,969,1046
6580,970,1048
6581,974,1047
6582,971,1043
6583,967,1039
6584,967,1043
6585,970,1044
6586,973,1047
6587,974,1047
6588,971,1042
6589,968,1041
6590,967,1041
6591,970,1045
6592,972,1045
6593,972,1044
6594,968,1040
6595,965,1039
6596,968,1043
6597,968,1044
6598,970,1047
6599,970,1044
6600,971,1039
6601,968,1040
6602,969,1042
6603,969,1044
6604,970,1045
6605,972,1043
6606,969,1040
6607,964,1042
6608,966,1042
6609,968,1043
6610,972,1046
6611,971,1043
6612,969,1041
6613,967,1043
6614,965,1042
6615,968,1045
6616,971,1047
6617,972,1045
6618,967,1040
6619,967,1040
6620,964,1042
6621,967,1043
6622,969,1043
6623,970,1045
6624,964,1042
6625,964,1041
6626,965,1043
6627,968,1043
6628,969,1046
6629,970,1044
6630,967,1041
6631,964,1041
6632,965,1042
6633,968,1042
6634,968,1044
6635,969,1042
6636,970,1038
6637,966,1038
6638,964,1039
6639,967,1041
6640,971,1044
6641,970,1043
6642,970,1040
6643,965,1039
6644,965,1039
6645,964,1042
6646,970,1045
6647,970,1041
6648,969,1038
6649,966,1037
6650,966,1040
6651,967,1041
6652,969,1045
6653,971,1045
6654,968,1041
6655,966,1037
6656,968,1038
6657,968,1040
6658,973,1043
6659,971,1041
6660,970,1038
6661,970,1037
6662,969,1039
6663,971,1042
6664,974,1045
6665,972,1043
6666,968,1039
6667,965,1039
6668,970,1037
6669,973,1040
6670,975,1043
6671,973,1043
6672,971,1041
6673,969,1038
6674,968,1038
6675,971,1039
6676,970,1043
6677,975,1042
6678,969,1039
6679,970,1038
6680,968,1037
6681,972,1040
6682,973,1042
6683,973,1040
6684,970,1038
6685,968,1036
6686,969,1039
6687,972,1039
6688,973,1043
6689,974,1040
6690,972,1039
6691,973,1035
6692,970,1038
6693,972,1040
6694,977,1039
6695,973,1040
6696,974,1037
6697,971,1036
6698,971,1038
6699,975,1037
6700,978,1042
6701,978,1041
6702,975,1040
6703,973,1036
6704,971,1040
6705,973,1040
6706,977,1042
6707,977,1037
6708,977,1037
6709,974,1034
6710,976,1036
6711,975,1036
6712,979,1038
6713,979,1039
6714,977,1037
6715,976,1037
6716,975,1037
6717,976,1039
6718,976,1041
6719,980,1038
6720,978,1036
6721,978,1034
6722,977,1034
6723,978,1035
6724,982,1038
6725,983,1034
6726,981,1034
6727,977,1030
6728,978,1034
6729,980,1034
6730,984,1035
6731,985,1035
6732,981,1035
6733,977,1036
6734,978,1038
6735,980,1041
6736,978,1044
6737,977,1045
6738,975,1042
6739,975,1041
6740,975,1043
6741,982,1044
6742,987,1043
6743,989,1041
6744,990,1038
6745,986,1036
6746,990,1034
6747,991,1037
6748,995,1040
6749,995,1038
6750,992,1036
6751,989,1035
6752,990,1034
6753,989,1037
6754,992,1037
6755,988,1034
6756,986,1032
6757,984,1034
6758,983,1035
6759,983,1035
6760,986,1039
6761,985,1037
6762,983,1035
6763,982,1034
6764,982,1036
6765,981,1038
6766,986,1040
6767,986,1036
6768,985,1033
6769,984,1032
6770,982,1034
6771,981,1034
6772,984,1037
6773,987,1036
6774,986,1034
6775,985,1032
6776,983,1033
6777,988,1034
6778,991,1039
6779,992,1039
6780,991,1043
6781,989,1043
6782,991,1046
6783,996,1043
6784,1005,1035
6785,1011,1013
6786,1016,988
6787,1017,962
6788,1024,932
6789,1041,901
6790,1064,870
6791,1087,838
6792,1108,807
6793,1129,795
6794,1158,800
6795,1183,815
6796,1205,837
6797,1229,861
6798,1246,894
6799,1248,927
6800,1235,956
6801,1211,982
6802,1182,1003
6803,1143,1010
6804,1104,1009
6805,1069,1006
6806,1038,1007
6807,1019,1012
6808,1007,1023
6809,1004,1025
6810,1003,1027
6811,1000,1025
6812,998,1029
6813,993,1033
6814,989,1037
6815,988,1035
6816,983,1034
6817,979,1034
6818,979,1037
6819,979,1039
6820,979,1041
6821,978,1040
6822,975,1039
6823,972,1037
6824,972,1036
6825,974,1042
6826,976,1046
6827,976,1042
6828,972,1040
6829,972,1037
6830,968,1038
6831,972,1041
6832,975,1040
6833,974,1038
6834,971,1037
6835,968,1036
6836,969,1036
6837,972,1041
6838,972,1040
6839,975,1040
6840,973,1036
6841,972,1036
6842,972,1037
6843,974,1037
6844,975,1042
6845,976,1038
6846,975,1034
6847,973,1032
6848,973,1034
6849,977,1037
6850,981,1038
6851,981,1036
6852,978,1033
6853,978,1031
6854,979,1031
6855,979,1034
6856,984,1036
6857,985,1035
6858,983,1030
6859,981,1026
6860,984,1025
6861,986,1029
6862,988,1029
6863,991,1029
6864,992,1023
6865,988,1023
6866,992,1025
6867,996,1025
6868,1000,1026
6869,1001,1023
6870,1000,1018
6871,1000,1016
6872,1003,1018
6873,1006,1017
6874,1009,1019
6875,1013,1015
6876,1017,1013
6877,1016,1009
6878,1017,1008
6879,1020,1007
6880,1026,1009
6881,1032,1008
6882,1030,1006
6883,1032,1001
6884,1034,1004
6885,1038,1006
6886,1042,1005
6887,1045,1005
6888,1046,1001
6889,1044,1000
6890,1045,1002
6891,1049,1005
6892,1054,1008
6893,1052,1008
6894,1053,1008
6895,1048,1010
6896,1047,1011
6897,1045,1015
6898,1045,1019
6899,1044,1020
6900,1036,1019
6901,1030,1019
6902,1021,1020
6903,1024,1027
6904,1024,1027
6905,1020,1029
6906,1012,1026
6907,1005,1024
6908,1001,1026
6909,1002,1029
6910,1002,1031
6911,999,1031
6912,994,1030
6913,988,1027
6914,985,1030
6915,987,1032
6916,989,1032
6917,987,1034
6918,983,1030
6919,980,1025
6920,980,1029
6921,980,1030
6922,979,1030
6923,978,1030
6924,979,1028
6925,976,1026
6926,974,1028
6927,977,1033
6928,980,1033
6929,980,1033
6930,977,1031
6931,974,1028
6932,974,1028
6933,975,1034
6934,978,1034
6935,975,1032
6936,976,1029
6937,977,1029
6938,978,1031
6939,979,1032
6940,982,1036
6941,978,1033
6942,979,1031
6943,978,1031
6944,979,1031
6945,980,1035
6946,982,1034
6947,981,1032
6948,979,1033
6949,978,1029
6950,974,1032
6951,978,1034
6952,981,1039
6953,979,1036
6954,979,1033
6955,975,1031
6956,978,1032
6957,979,1035
6958,981,1035
6959,982,1036
6960,980,1035
6961,975,1033
6962,976,1035
6963,981,1037
6964,983,1039
6965,983,1036
6966,979,1035
6967,979,1033
6968,978,1033
6969,978,1035
6970,981,1037
6971,984,1034
6972,981,1033
6973,978,1030
6974,979,1032
6975,979,1033
6976,979,1035
6977,980,1033
6978,980,1030
6979,976,1030
6980,974,1030
6981,975,1032
6982,981,1033
6983,979,1033
6984,979,1028
6985,975,1029
6986,975,1030
6987,978,1033
6988,979,1034
6989,978,1034
6990,976,1032
6991,975,1029
6992,974,1032
6993,976,1032
6994,978,1035
6995,977,1034
6996,976,1030
6997,975,1029
6998,974,1030
6999,974,1033
7000,976,1035
7001,979,1035
7002,978,1030
7003,975,1033
7004,974,1033
7005,975,1035
7006,976,1035
7007,977,1033
7008,976,1032
7009,974,1028
7010,974,1028
7011,976,1032
7012,981,1035
7013,979,1033
7014,977,1032
7015,974,1031
7016,972,1032
7017,975,1034
7018,976,1037
7019,978,1034
7020,977,1031
7021,973,1027
7022,972,1029
7023,976,1033
7024,978,1034
7025,980,1035
7026,977,1033
7027,975,1028
7028,975,1030
7029,978,1033
7030,978,1036
7031,979,1034
7032,977,1031
7033,974,1030
7034,977,1033
7035,978,1033
7036,980,1034
7037,980,1034
7038,978,1033
7039,975,1029
7040,975,1031
7041,977,1032
7042,980,1034
7043,981,1033
7044,978,1032
7045,973,1029
7046,976,1032
7047,977,1033
7048,979,1034
7049,980,1032
7050,978,1030
7051,977,1028
7052,977,1031
7053,977,1033
7054,980,1036
7055,979,1033
7056,977,1031
7057,977,1028
7058,975,1030
7059,980,1034
7060,981,1031
7061,980,1034
7062,979,1030
7063,975,1028
7064,975,1031
7065,978,1031
7066,981,1035
7067,982,1031
7068,980,1031
7069,975,1029
7070,978,1031
7071,979,1029
7072,982,1031
7073,979,1031
7074,975,1030
7075,973,1028
7076,974,1028
7077,977,1029
7078,979,1033
7079,979,1030
7080,978,1031
7081,973,1026
7082,973,1028
7083,977,1031
7084,980,1031
7085,980,1030
7086,976,1029
7087,971,1028
7088,973,1029
7089,975,1032
7090,979,1032
7091,979,1032
7092,978,1030
7093,975,1024
7094,975,1027
7095,978,1031
7096,977,1030
7097,980,1032
7098,978,1032
7099,975,1027
7100,975,1029
7101,976,1030
7102,979,1032
7103,979,1030
7104,980,1028
7105,975,1028
7106,973,1028
7107,976,1030
7108,980,1031
7109,978,1028
7110,977,1026
7111,974,1026
7112,975,1028
7113,977,1031
7114,982,1031
7115,981,1026
7116,979,1026
7117,975,1020
7118,976,1022
7119,975,1027
7120,980,1031
7121,980,1029
7122,980,1025
7123,976,1026
7124,977,1029
7125,979,1035
7126,982,1037
7127,982,1036
7128,982,1032
7129,977,1032
7130,974,1038
7131,979,1042
7132,981,1039
7133,981,1036
7134,983,1033
7135,984,1034
7136,984,1032
7137,988,1034
7138,991,1035
7139,994,1035
7140,992,1031
7141,989,1030
7142,989,1032
7143,993,1034
7144,997,1038
7145,997,1035
7146,992,1031
7147,990,1027
7148,989,1030
7149,988,1029
7150,990,1033
7151,992,1033
7152,987,1029
7153,984,1028
7154,984,1031
7155,987,1032
7156,988,1033
7157,991,1033
7158,989,1029
7159,983,1027
7160,983,1028
7161,987,1032
7162,989,1034
7163,990,1033
7164,989,1028
7165,987,1029
7166,987,1030
7167,989,1034
7168,991,1035
7169,995,1033
7170,994,1033
7171,990,1034
7172,994,1039
7173,996,1044
7174,1002,1046
7175,1005,1042
7176,1007,1033
7177,1010,1013
7178,1015,996
7179,1025,972
7180,1037,950
7181,1051,918
7182,1067,887
7183,1088,860
7184,1111,835
7185,1138,826
7186,1165,827
7187,1190,834
7188,1208,848
7189,1228,867
7190,1245,897
7191,1264,930
7192,1262,959
7193,1243,981
7194,1212,998
7195,1170,1010
7196,1134,1016
7197,1101,1019
7198,1071,1016
7199,1044,1014
7200,1021,1015
7201,1008,1017
7202,1003,1023
7203,1004,1027
7204,1010,1032
7205,1006,1030
7206,999,1028
7207,994,1028
7208,987,1029
7209,986,1034
7210,985,1034
7211,985,1034
7212,979,1032
7213,977,1031
7214,976,1033
7215,977,1036
7216,978,1036
7217,976,1035
7218,975,1031
7219,971,1030
7220,969,1030
7221,973,1036
7222,973,1039
7223,972,1036
7224,970,1033
7225,970,1033
7226,969,1035
7227,967,1039
7228,975,1041
7229,974,1037
7230,971,1036
7231,969,1034
7232,969,1035
7233,970,1037
7234,973,1039
7235,973,1041
7236,972,1036
7237,972,1030
7238,969,1036
7239,975,1037
7240,977,1039
7241,977,1036
7242,976,1035
7243,973,1032
7244,976,1035
7245,978,1034
7246,981,1037
7247,981,1033
7248,980,1032
7249,978,1030
7250,975,1033
7251,982,1035
7252,985,1036
7253,984,1032
7254,982,1029
7255,980,1027
7256,982,1029
7257,987,1032
7258,988,1034
7259,992,1032
7260,993,1029
7261,992,1026
7262,995,1029
7263,998,1029
7264,1001,1033
7265,1002,1031
7266,1004,1025
7267,1000,1025
7268,1005,1025
7269,1007,1025
7270,1013,1028
7271,1014,1024
7272,1014,1020
7273,1014,1017
7274,1015,1017
7275,1017,1016
7276,1022,1020
7277,1025,1018
7278,1026,1013
7279,1026,1013
7280,1028,1013
7281,1032,1015
7282,1032,1016
7283,1037,1014
7284,1038,1010
7285,1035,1009
7286,1038,1010
7287,1043,1013
7288,1049,1018
7289,1045,1015
7290,1048,1012
7291,1046,1014
7292,1044,1015
7293,1046,1020
7294,1047,1023
7295,1045,1022
7296,1041,1020
7297,1036,1021
7298,1034,1025
7299,1033,1028
7300,1030,1030
7301,1027,1030
7302,1018,1029
7303,1014,1027
7304,1008,1031
7305,1007,1031
7306,1005,1034
7307,1004,1033
7308,995,1031
7309,993,1032
7310,990,1034
7311,988,1035
7312,988,1036
7313,984,1034
7314,980,1032
7315,975,1031
7316,972,1030
7317,972,1034
7318,973,1036
7319,972,1036
7320,968,1031
7321,966,1033
7322,966,1032
7323,967,1034
7324,970,1034
7325,970,1034
7326,970,1032
7327,966,1030
7328,965,1031
7329,967,1034
7330,965,1036
7331,968,1032
7332,964,1030
7333,964,1029
7334,963,1031
7335,964,1035
7336,967,1036
7337,968,1033
7338,966,1033
7339,966,1032
7340,962,1031
7341,964,1035
7342,967,1034
7343,967,1036
7344,964,1033
7345,962,1032
7346,962,1034
7347,962,1036
7348,966,1037
7349,968,1036
7350,966,1030
7351,963,1031
7352,965,1033
7353,965,1037
7354,972,1038
7355,969,1036
7356,969,1034
7357,967,1032
7358,968,1036
7359,968,1036
7360,971,1037
7361,972,1034
7362,971,1034
7363,966,1030
7364,966,1034
7365,970,1034
7366,973,1037
7367,972,1036
7368,970,1034
7369,968,1033
7370,968,1033
7371,971,1036
7372,976,1039
7373,975,1037
7374,971,1035
7375,971,1033
7376,971,1035
7377,973,1037
7378,973,1039
7379,976,1036
7380,975,1035
7381,971,1030
7382,972,1036
7383,973,1037
7384,973,1039
7385,977,1038
7386,974,1036
7387,968,1034
7388,968,1033
7389,971,1039
7390,974,1039
7391,974,1038
7392,972,1035
7393,969,1035
7394,970,1036
7395,972,1038
7396,972,1039
7397,971,1039
7398,970,1035
7399,968,1032
7400,969,1035
7401,971,1037
7402,973,1037
7403,972,1038
7404,969,1035
7405,965,1033
7406,967,1037
7407,968,1038
7408,970,1041
7409,969,1037
7410,968,1038
7411,967,1033
7412,967,1034
7413,968,1037
7414,970,1040
7415,970,1037
7416,967,1033
7417,967,1032
7418,965,1033
7419,966,1036
7420,967,1039
7421,968,1034
7422,967,1032
7423,966,1032
7424,964,1033
7425,967,1034
7426,968,1036
7427,969,1033
7428,966,1032
7429,964,1034
7430,964,1035
7431,966,1036
7432,969,1036
7433,967,1035
7434,965,1031
7435,963,1033
7436,966,1031
7437,966,1032
7438,968,1034
7439,970,1036
7440,966,1032
7441,966,1032
7442,964,1031
7443,966,1035
7444,971,1036
7445,972,1036
7446,971,1033
7447,967,1029
7448,967,1033
7449,970,1033
7450,972,1035
7451,973,1032
7452,972,1031
7453,968,1028
7454,968,1031
7455,970,1035
7456,975,1035
7457,974,1035
7458,973,1032
7459,970,1031
7460,970,1033
7461,972,1033
7462,973,1034
7463,972,1035
7464,971,1033
7465,969,1029
7466,970,1031
7467,972,1033
7468,974,1035
7469,975,1035
7470,974,1033
7471,972,1030
7472,973,1031
7473,975,1035
7474,975,1034
7475,977,1034
7476,975,1030
7477,973,1028
7478,973,1031
7479,975,1031
7480,976,1033
7481,977,1034
7482,977,1030
7483,972,1027
7484,972,1030
7485,975,1036
7486,977,1034
7487,977,1034
7488,975,1032
7489,975,1031
7490,972,1031
7491,975,1033
7492,979,1035
7493,979,1033
7494,978,1031
7495,974,1029
7496,974,1032
7497,975,1033
7498,976,1035
7499,979,1035
7500,974,1028
7501,972,1029
7502,975,1030
7503,973,1031
7504,976,1034
7505,978,1032
7506,976,1029
7507,971,1027
7508,974,1030
7509,973,1031
7510,976,1032
7511,975,1029
7512,974,1028
7513,973,1029
7514,973,1030
7515,974,1033
7516,978,1036
7517,975,1033
7518,972,1028
7519,973,1026
7520,972,1027
7521,973,1031
7522,975,1033
7523,977,1030
7524,973,1026
7525,973,1027
7526,971,1029
7527,974,1031
7528,977,1034
7529,977,1030
7530,975,1029
7531,974,1025
7532,973,1028
7533,974,1030
7534,975,1029
7535,978,1028
7536,974,1026
7537,972,1023
7538,974,1026
7539,977,1032
7540,979,1035
7541,979,1034
7542,975,1032
7543,972,1033
7544,970,1033
7545,973,1038
7546,974,1038
7547,976,1037
7548,978,1033
7549,977,1030
7550,980,1035
7551,985,1033
7552,989,1035
7553,991,1029
7554,986,1030
7555,986,1028
7556,986,1030
7557,990,1033
7558,991,1032
7559,991,1031
7560,988,1028
7561,985,1025
7562,982,1027
7563,983,1030
7564,984,1030
7565,984,1028
7566,980,1029
7567,977,1025
7568,977,1027
7569,978,1029
7570,980,1031
7571,983,1029
7572,978,1026
7573,976,1023
7574,976,1023
7575,982,1030
7576,983,1031
7577,985,1030
7578,979,1025
7579,980,1024
7580,979,1026
7581,984,1026
7582,988,1031
7583,988,1028
7584,986,1026
7585,985,1024
7586,984,1028
7587,989,1033
7588,992,1038
7589,995,1037
7590,998,1032
7591,997,1025
7592,1004,1019
7593,1012,1003
7594,1016,986
7595,1022,962
7596,1032,937
7597,1044,908
7598,1065,883
7599,1086,859
7600,1113,838
7601,1135,822
7602,1157,816
7603,1178,819
7604,1194,830
7605,1216,848
7606,1240,870
7607,1255,902
7608,1258,926
7609,1240,950
7610,1217,974
7611,1189,996
7612,1160,1008
7613,1124,1011
7614,1091,1008
7615,1064,1005
7616,1036,1006
7617,1021,1012
7618,1013,1018
7619,1012,1019
7620,1007,1024
7621,1001,1023
7622,999,1027
7623,996,1029
7624,997,1033
7625,993,1032
7626,987,1028
7627,979,1028
7628,981,1032
7629,979,1032
7630,978,1036
7631,977,1035
7632,976,1032
7633,972,1031
7634,967,1031
7635,968,1034
7636,972,1035
7637,974,1035
7638,968,1030
7639,966,1031
7640,962,1031
7641,970,1033
7642,972,1036
7643,972,1034
7644,970,1032
7645,967,1030
7646,968,1031
7647,969,1035
7648,970,1037
7649,970,1036
7650,969,1032
7651,966,1032
7652,967,1032
7653,968,1036
7654,970,1039
7655,971,1034
7656,970,1032
7657,969,1033
7658,969,1035
7659,970,1037
7660,974,1038
7661,971,1034
7662,973,1032
7663,970,1028
7664,970,1031
7665,975,1032
7666,977,1035
7667,978,1032
7668,975,1033
7669,971,1030
7670,976,1028
7671,978,1031
7672,982,1033
7673,985,1027
7674,982,1028
7675,979,1025
7676,980,1025
7677,984,1028
7678,987,1026
7679,985,1023
7680,984,1023
7681,987,1020
7682,988,1021
7683,990,1025
7684,995,1023
7685,997,1020
7686,997,1018
7687,997,1016
7688,999,1018
7689,1002,1018
7690,1008,1017
7691,1010,1016
7692,1011,1014
7693,1010,1011
7694,1012,1010
7695,1016,1011
7696,1020,1010
7697,1023,1009
7698,1022,1004
7699,1021,1002
7700,1022,1001
7701,1029,1003
7702,1034,1002
7703,1035,1003
7704,1035,1001
7705,1035,1000
7706,1036,999
7707,1039,1000
7708,1043,1002
7709,1046,999
7710,1044,999
7711,1042,1001
7712,1041,1005
7713,1042,1010
7714,1041,1012
7715,1041,1010
7716,1040,1010
7717,1036,1012
7718,1030,1012
7719,1031,1017
7720,1031,1018
7721,1026,1017
7722,1020,1018
7723,1013,1016
7724,1009,1019
7725,1009,1023
7726,1008,1023
7727,1001,1025
7728,998,1023
7729,993,1022
7730,989,1023
7731,986,1027
7732,986,1028
7733,984,1026
7734,981,1022
7735,976,1022
7736,973,1024
7737,975,1026
7738,974,1027
7739,973,1028
7740,968,1025
7741,966,1023
7742,967,1026
7743,966,1027
7744,969,1029
7745,969,1026
7746,967,1023
7747,967,1024
7748,967,1025
7749,967,1025
7750,967,1028
7751,964,1026
7752,965,1023
7753,963,1021
7754,964,1023
7755,967,1026
7756,969,1026
7757,969,1025
7758,966,1024
7759,963,1024
7760,963,1025
7761,963,1028
7762,967,1029
7763,967,1027
7764,964,1025
7765,961,1024
7766,963,1027
7767,965,1028
7768,966,1033
7769,968,1030
7770,963,1025
7771,963,1025
7772,962,1030
7773,964,1031
7774,967,1030
7775,967,1030
7776,963,1027
7777,964,1028
7778,962,1028
7779,966,1030
7780,970,1029
7781,969,1030
7782,965,1027
7783,963,1028
7784,963,1029
7785,966,1027
7786,969,1030
7787,967,1032
7788,965,1026
7789,960,1026
7790,961,1028
7791,963,1030
7792,965,1031
7793,967,1031
7794,965,1029
7795,962,1027
7796,963,1030
7797,961,1029
7798,966,1033
7799,964,1030
7800,960,1027
7801,962,1025
7802,961,1029
7803,963,1031
7804,965,1033
7805,963,1028
7806,961,1027
7807,961,1028
7808,962,1029
7809,963,1030
7810,964,1034
7811,966,1031
7812,965,1027
7813,962,1025
7814,963,1025
7815,962,1029
7816,962,1032
7817,967,1028
7818,962,1028
7819,960,1026
7820,958,1026
7821,963,1029
7822,966,1030
7823,966,1028
7824,965,1028
7825,962,1026
7826,961,1026
7827,965,1030
7828,965,1031
7829,965,1027
7830,964,1025
7831,961,1025
7832,960,1027
7833,964,1029
7834,965,1029
7835,966,1029
7836,964,1026
7837,961,1024
7838,962,1025
7839,961,1027
7840,966,1029
7841,967,1028
7842,965,1023
7843,960,1024
7844,960,1026
7845,963,1028
7846,966,1028
7847,967,1026
7848,963,1022
7849,964,1021
7850,959,1023
7851,962,1025
7852,965,1027
7853,967,1023
7854,963,1023
7855,960,1022
7856,958,1021
7857,961,1026
7858,966,1028
7859,966,1026
7860,967,1023
7861,963,1022
7862,959,1023
7863,961,1026
7864,964,1029
7865,967,1025
7866,963,1022
7867,963,1019
7868,963,1023
7869,965,1024
7870,966,1025
7871,966,1022
7872,965,1021
7873,962,1021
7874,961,1024
7875,962,1025
7876,966,1026
7877,966,1027
7878,965,1023
7879,962,1021
7880,959,1022
7881,962,1024
7882,964,1025
7883,966,1023
7884,962,1022
7885,964,1020
7886,963,1020
7887,965,1026
7888,968,1026
7889,967,1022
7890,964,1022
7891,965,1019
7892,964,1022
7893,964,1024
7894,967,1025
7895,967,1024
7896,967,1019
7897,964,1019
7898,964,1020
7899,965,1022
7900,968,1024
7901,970,1019
7902,967,1021
7903,964,1016
7904,965,1017
7905,966,1019
7906,970,1023
7907,970,1022
7908,967,1017
7909,965,1014
7910,964,1018
7911,966,1021
7912,970,1023
7913,973,1023
7914,969,1018
7915,967,1015
7916,967,1018
7917,967,1020
7918,971,1020
7919,972,1019
7920,970,1018
7921,968,1016
7922,967,1020
7923,970,1020
7924,971,1022
7925,971,1021
7926,971,1020
7927,965,1018
7928,968,1018
7929,968,1022
7930,971,1022
7931,969,1020
7932,967,1019
7933,966,1017
7934,967,1018
7935,968,1020
7936,974,1022
7937,973,1022
7938,971,1018
7939,967,1018
7940,968,1018
7941,969,1020
7942,972,1021
7943,967,1020
7944,966,1017
7945,965,1017
7946,966,1020
7947,969,1021
7948,973,1024
7949,973,1022
7950,971,1017
7951,968,1015
7952,967,1015
7953,967,1019
7954,970,1021
7955,970,1018
7956,971,1017
7957,966,1017
7958,969,1017
7959,969,1017
7960,970,1019
7961,971,1018
7962,972,1016
7963,969,1015
7964,969,1015
7965,972,1017
7966,974,1018
7967,977,1015
7968,975,1013
7969,973,1015
7970,971,1020
7971,970,1026
7972,976,1026
7973,976,1027
7974,975,1024
7975,967,1024
7976,967,1026
7977,972,1031
7978,974,1030
7979,974,1027
7980,978,1025
7981,977,1023
7982,980,1022
7983,982,1027
7984,986,1024
7985,989,1024
7986,988,1022
7987,985,1020
7988,984,1023
7989,986,1025
7990,987,1024
7991,985,1023
7992,982,1022
7993,985,1018
7994,981,1018
7995,984,1020
7996,985,1021
7997,985,1020
7998,980,1019
7999,974,1018
8000,972,1016
8001,978,1019
8002,981,1022
8003,979,1019
8004,975,1018
8005,975,1015
8006,973,1016
8007,978,1019
8008,979,1021
8009,979,1015
8010,977,1016
8011,975,1013
8012,975,1016
8013,979,1021
8014,983,1019
8015,982,1019
8016,980,1018
8017,980,1013
8018,981,1017
8019,982,1025
8020,984,1027
8021,989,1029
8022,988,1030
8023,989,1029
8024,990,1028
8025,996,1021
8026,1004,1010
8027,1007,988
8028,1013,967
8029,1016,941
8030,1027,918
8031,1047,894
8032,1070,866
8033,1092,838
8034,1117,814
8035,1141,805
8036,1167,807
8037,1195,820
8038,1218,835
8039,1241,854
8040,1262,876
8041,1277,902
8042,1282,932
8043,1275,959
8044,1257,980
8045,1226,998
8046,1188,1006
8047,1148,1009
8048,1112,1010
8049,1081,1007
8050,1052,1006
8051,1028,1007
8052,1010,1007
8053,1000,1011
8054,1000,1015
8055,1004,1019
8056,1007,1023
8057,1004,1022
8058,996,1023
8059,991,1020
8060,987,1023
8061,988,1025
8062,986,1027
8063,982,1026
8064,977,1023
8065,976,1021
8066,975,1025
8067,977,1027
8068,980,1031
8069,977,1027
8070,976,1026
8071,972,1025
8072,973,1028
8073,974,1028
8074,977,1031
8075,975,1029
8076,975,1028
8077,969,1025
8078,973,1027
8079,974,1028
8080,975,1030
8081,979,1031
8082,977,1028
8083,974,1024
8084,975,1027
8085,974,1029
8086,978,1031
8087,977,1027
8088,976,1026
8089,974,1024
8090,974,1025
8091,976,1029
8092,981,1031
8093,981,1030
8094,981,1024
8095,977,1023
8096,977,1025
8097,980,1027
8098,985,1029
8099,984,1029
8100,984,1024
8101,980,1024
8102,982,1025
8103,986,1026
8104,990,1029
8105,991,1026
8106,988,1025
8107,985,1022
8108,986,1022
8109,989,1024
8110,992,1026
8111,995,1024
8112,992,1020
8113,993,1017
8114,994,1019
8115,996,1022
8116,1001,1023
8117,1003,1022
8118,1002,1017
8119,1005,1017
8120,1004,1017
8121,1008,1021
8122,1011,1020
8123,1014,1016
8124,1012,1014
8125,1014,1013
8126,1017,1010
8127,1022,1015
8128,1027,1013
8129,1027,1009
8130,1027,1006
8131,1028,1003
8132,1030,1003
8133,1033,1006
8134,1039,1005
8135,1040,1002
8136,1039,999
8137,1041,999
8138,1041,1000
8139,1045,1003
8140,1050,1001
8141,1048,1002
8142,1049,1000
8143,1048,1001
8144,1047,1003
8145,1049,1007
8146,1052,1010
8147,1053,1008
8148,1050,1006
8149,1046,1009
8150,1042,1011
8151,1043,1015
8152,1041,1017
8153,1036,1014
8154,1033,1016
8155,1024,1014
8156,1021,1017
8157,1017,1021
8158,1017,1022
8159,1014,1020
8160,1008,1020
8161,1004,1017
8162,999,1020
8163,997,1021
8164,997,1023
8165,994,1022
8166,987,1021
8167,984,1021
8168,982,1022
8169,981,1024
8170,982,1026
8171,982,1024
8172,980,1024
8173,977,1023
8174,976,1023
8175,977,1027
8176,980,1028
8177,978,1028
8178,978,1022
8179,974,1022
8180,973,1024
8181,973,1025
8182,977,1028
8183,975,1026
8184,971,1024
8185,968,1025
8186,968,1025
8187,974,1029
8188,975,1030
8189,976,1030
8190,975,1029
8191,971,1027
8192,972,1028
8193,974,1030
8194,973,1032
8195,977,1031
8196,973,1026
8197,973,1023
8198,973,1027
8199,976,1028
8200,980,1032
8201,980,1029
8202,978,1028
8203,977,1024
8204,972,1026
8205,977,1032
8206,976,1031
8207,979,1030
8208,974,1029
8209,971,1027
8210,970,1029
8211,973,1032
8212,979,1033
8213,979,1032
8214,979,1030
8215,975,1028
8216,978,1029
8217,978,1032
8218,981,1032
8219,981,1031
8220,978,1030
8221,977,1028
8222,974,1030
8223,973,1032
8224,979,1032
8225,978,1031
8226,978,1030
8227,973,1028
8228,974,1030
8229,976,1032
8230,978,1032
8231,980,1032
8232,974,1030
8233,975,1028
8234,974,1028
8235,977,1033
8236,979,1035
8237,980,1031
8238,979,1027
8239,975,1027
8240,973,1030
8241,974,1032
8242,977,1031
8243,979,1034
8244,976,1029
8245,974,1028
8246,973,1029
8247,973,1033
8248,976,1032
8249,974,1030
8250,974,1030
8251,972,1029
8252,970,1030
8253,972,1032
8254,969,1031
8255,973,1030
8256,974,1028
8257,969,1028
8258,971,1028
8259,971,1031
8260,976,1031
8261,974,1031
8262,970,1028
8263,969,1029
8264,973,1030
8265,970,1032
8266,973,1035
8267,973,1033
8268,972,1032
8269,969,1029
8270,967,1034
8271,972,1035
8272,972,1035
8273,974,1033
8274,973,1028
8275,967,1027
8276,971,1028
8277,974,1030
8278,975,1031
8279,979,1030
8280,976,1027
8281,972,1026
8282,970,1029
8283,971,1031
8284,974,1033
8285,976,1031
8286,972,1028
8287,970,1028
8288,971,1029
8289,975,1030
8290,976,1033
8291,976,1030
8292,975,1030
8293,973,1028
8294,971,1031
8295,972,1033
8296,977,1033
8297,975,1028
8298,975,1028
8299,974,1028
8300,972,1028
8301,974,1030
8302,978,1031
8303,975,1029
8304,973,1025
8305,974,1025
8306,974,1027
8307,977,1029
8308,976,1031
8309,977,1030
8310,978,1028
8311,974,1026
8312,972,1029
8313,975,1031
8314,979,1031
8315,979,1031
8316,975,1026
8317,975,1025
8318,974,1029
8319,976,1028
8320,981,1030
8321,979,1030
8322,979,1028
8323,974,1024
8324,975,1024
8325,976,1028
8326,978,1029
8327,979,1027
8328,978,1025
8329,972,1024
8330,973,1024
8331,978,1030
8332,980,1030
8333,979,1030
8334,979,1025
8335,978,1024
8336,978,1024
8337,977,1029
8338,981,1031
8339,982,1027
8340,981,1025
8341,974,1024
8342,976,1025
8343,979,1027
8344,984,1029
8345,982,1028
8346,981,1026
8347,977,1025
8348,977,1022
8349,980,1027
8350,983,1028
8351,981,1026
8352,982,1025
8353,982,1023
8354,979,1022
8355,980,1026
8356,984,1028
8357,987,1024
8358,984,1023
8359,979,1023
8360,980,1026
8361,985,1027
8362,982,1028
8363,987,1028
8364,985,1022
8365,984,1025
8366,978,1025
8367,984,1027
8368,985,1027
8369,985,1026
8370,985,1025
8371,981,1024
8372,982,1025
8373,981,1024
8374,986,1027
8375,987,1027
8376,984,1026
8377,983,1024
8378,983,1025
8379,984,1028
8380,985,1028
8381,985,1027
8382,986,1023
8383,984,1023
8384,984,1022
8385,984,1026
8386,985,1025
8387,986,1023
8388,985,1020
8389,982,1020
8390,984,1020
8391,985,1023
8392,988,1023
8393,988,1025
8394,986,1025
8395,982,1023
8396,983,1028
8397,983,1031
8398,986,1034
8399,985,1034
