'sample #','MLII','V1'
0,981,1043
1,981,1043
2,981,1043
3,981,1043
4,981,1043
5,981,1043
6,981,1043
7,981,1043
8,982,1043
9,984,1046
10,986,1044
11,985,1041
12,984,1034
13,984,1036
14,989,1042
15,992,1043
16,992,1043
17,993,1038
18,989,1033
19,992,1035
20,992,1037
21,990,1042
22,993,1042
23,990,1037
24,987,1036
25,991,1035
26,989,1037
27,992,1041
28,995,1041
29,991,1031
30,985,1026
31,977,1015
32,973,1010
33,972,1009
34,974,1001
35,972,989
36,970,977
37,976,971
38,995,974
39,1017,980
40,1043,986
41,1071,988
42,1087,988
43,1092,987
44,1100,994
45,1106,1012
46,1120,1047
47,1142,1099
48,1166,1159
49,1183,1212
50,1187,1240
51,1179,1251
52,1166,1261
53,1155,1269
54,1140,1280
55,1121,1285
56,1098,1285
57,1067,1282
58,1028,1268
59,995,1251
60,971,1231
61,961,1217
62,955,1204
63,954,1203
64,946,1203
65,943,1203
66,931,1205
67,922,1206
68,926,1217
69,935,1226
70,946,1232
71,949,1238
72,955,1238
73,965,1239
74,978,1237
75,988,1229
76,992,1213
77,992,1193
78,984,1169
79,976,1142
80,972,1113
81,969,1097
82,969,1075
83,970,1063
84,968,1053
85,970,1053
86,971,1049
87,971,1045
88,972,1041
89,969,1036
90,967,1033
91,967,1036
92,967,1038
93,968,1038
94,967,1031
95,968,1026
96,964,1026
97,966,1029
98,966,1034
99,966,1032
100,968,1031
101,967,1024
102,964,1023
103,966,1027
104,968,1033
105,972,1033
106,971,1031
107,971,1024
108,968,1021
109,968,1024
110,970,1027
111,972,1032
112,971,1031
113,970,1028
114,968,1022
115,967,1024
116,970,1027
117,974,1033
118,974,1035
119,973,1030
120,972,1024
121,974,1023
122,976,1029
123,977,1034
124,979,1033
125,979,1030
126,976,1026
127,978,1026
128,982,1030
129,986,1031
130,986,1035
131,983,1035
132,981,1029
133,981,1028
134,985,1031
135,985,1039
136,989,1040
137,989,1039
138,988,1033
139,989,1033
140,991,1038
141,991,1044
142,997,1047
143,997,1042
144,996,1042
145,997,1041
146,998,1046
147,1002,1049
148,1006,1052
149,1007,1052
150,1004,1049
151,1005,1050
152,1008,1052
153,1011,1057
154,1011,1060
155,1007,1061
156,1009,1059
157,1010,1060
158,1013,1060
159,1017,1063
160,1017,1067
161,1017,1068
162,1017,1067
163,1018,1067
164,1020,1068
165,1021,1070
166,1024,1073
167,1025,1075
168,1023,1076
169,1026,1076
170,1031,1077
171,1034,1079
172,1034,1083
173,1034,1082
174,1033,1082
175,1032,1083
176,1031,1083
177,1038,1085
178,1038,1087
179,1038,1088
180,1037,1087
181,1039,1088
182,1038,1088
183,1040,1092
184,1044,1094
185,1043,1096
186,1041,1093
187,1040,1092
188,1043,1094
189,1045,1098
190,1049,1099
191,1049,1098
192,1049,1098
193,1046,1100
194,1050,1101
195,1054,1102
196,1053,1105
197,1052,1103
198,1047,1105
199,1046,1106
200,1049,1104
201,1052,1105
202,1053,1108
203,1051,1107
204,1050,1109
205,1049,1110
206,1049,1111
207,1052,1110
208,1052,1112
209,1051,1111
210,1050,1114
211,1052,1116
212,1053,1116
213,1054,1117
214,1052,1116
215,1049,1118
216,1047,1120
217,1047,1122
218,1050,1123
219,1048,1122
220,1047,1122
221,1047,1124
222,1044,1126
223,1042,1129
224,1044,1130
225,1046,1131
226,1045,1132
227,1042,1134
228,1039,1138
229,1040,1137
230,1041,1141
231,1046,1140
232,1045,1140
233,1044,1140
234,1041,1144
235,1042,1146
236,1045,1150
237,1043,1151
238,1043,1147
239,1040,1149
240,1038,1148
241,1036,1154
242,1038,1156
243,1042,1153
244,1042,1151
245,1042,1152
246,1041,1150
247,1039,1155
248,1041,1156
249,1045,1155
250,1047,1153
251,1045,1150
252,1046,1152
253,1046,1153
254,1048,1154
255,1050,1152
256,1053,1145
257,1051,1146
258,1049,1146
259,1049,1150
260,1051,1152
261,1051,1151
262,1054,1149
263,1053,1146
264,1053,1146
265,1053,1151
266,1056,1154
267,1057,1152
268,1059,1150
269,1058,1148
270,1057,1146
271,1059,1149
272,1057,1152
273,1063,1150
274,1063,1149
275,1061,1142
276,1061,1142
277,1062,1145
278,1064,1148
279,1069,1149
280,1068,1145
281,1065,1135
282,1061,1129
283,1060,1127
284,1061,1129
285,1062,1126
286,1062,1119
287,1062,1106
288,1064,1097
289,1066,1099
290,1079,1103
291,1091,1111
292,1102,1114
293,1105,1117
294,1105,1119
295,1103,1122
296,1108,1130
297,1108,1137
298,1105,1137
299,1095,1136
300,1081,1127
301,1064,1128
302,1046,1124
303,1026,1128
304,1010,1131
305,984,1135
306,958,1135
307,931,1132
308,908,1131
309,884,1125
310,866,1115
311,850,1103
312,838,1095
313,829,1086
314,827,1085
315,831,1085
316,838,1088
317,850,1094
318,864,1101
319,883,1108
320,903,1115
321,925,1119
322,935,1115
323,935,1104
324,930,1085
325,919,1064
326,910,1041
327,898,1019
328,882,997
329,864,972
330,847,947
331,836,923
332,833,901
333,829,887
334,829,876
335,829,870
336,827,862
337,824,857
338,826,854
339,827,853
340,826,850
341,823,850
342,825,848
343,823,849
344,823,846
345,825,844
346,826,843
347,822,841
348,820,840
349,819,842
350,819,840
351,820,838
352,823,834
353,819,835
354,818,834
355,818,837
356,821,837
357,821,834
358,823,830
359,821,829
360,820,831
361,818,832
362,821,835
363,828,832
364,826,828
365,826,827
366,824,829
367,823,833
368,825,836
369,827,834
370,822,832
371,822,829
372,825,830
373,824,835
374,827,839
375,831,837
376,832,836
377,831,837
378,829,838
379,832,843
380,836,845
381,840,847
382,842,844
383,842,844
384,836,848
385,835,852
386,841,858
387,845,858
388,845,857
389,843,856
390,847,859
391,849,865
392,855,870
393,860,872
394,862,867
395,862,869
396,860,870
397,862,874
398,864,879
399,864,881
400,866,878
401,864,878
402,866,879
403,869,886
404,874,894
405,876,896
406,879,896
407,880,892
408,879,894
409,880,899
410,884,908
411,884,906
412,884,904
413,884,904
414,881,904
415,882,911
416,889,917
417,891,921
418,894,922
419,894,922
420,893,922
421,895,928
422,898,936
423,902,939
424,904,936
425,903,937
426,903,937
427,904,942
428,910,951
429,914,951
430,916,952
431,912,949
432,914,949
433,916,954
434,919,961
435,924,965
436,924,964
437,923,962
438,924,963
439,925,966
440,930,971
441,933,973
442,934,972
443,934,972
444,933,969
445,933,973
446,937,980
447,941,987
448,943,986
449,944,983
450,941,980
451,944,983
452,942,989
453,945,992
454,950,994
455,948,991
456,947,991
457,947,995
458,949,1001
459,951,1005
460,955,1007
461,957,1004
462,955,1004
463,956,1006
464,960,1014
465,963,1019
466,963,1019
467,964,1019
468,963,1017
469,965,1019
470,968,1024
471,971,1032
472,973,1032
473,972,1031
474,968,1027
475,969,1029
476,970,1033
477,975,1038
478,974,1041
479,969,1037
480,969,1035
481,972,1036
482,974,1039
483,978,1042
484,978,1045
485,977,1044
486,975,1041
487,976,1043
488,980,1042
489,983,1046
490,984,1045
491,983,1046
492,980,1045
493,978,1043
494,981,1044
495,986,1045
496,984,1049
497,985,1049
498,981,1049
499,980,1047
500,980,1046
501,984,1049
502,984,1049
503,983,1050
504,981,1047
505,982,1049
506,982,1048
507,987,1050
508,987,1051
509,986,1051
510,986,1050
511,985,1049
512,989,1048
513,992,1050
514,990,1051
515,989,1051
516,989,1050
517,984,1048
518,988,1049
519,989,1050
520,989,1052
521,989,1053
522,986,1050
523,984,1050
524,989,1050
525,989,1049
526,990,1051
527,988,1051
528,987,1052
529,986,1051
530,987,1050
531,991,1049
532,995,1050
533,991,1049
534,991,1050
535,989,1053
536,990,1053
537,992,1049
538,991,1049
539,990,1051
540,985,1052
541,986,1052
542,985,1051
543,991,1050
544,989,1049
545,988,1052
546,986,1050
547,989,1051
548,990,1049
549,994,1048
550,993,1052
551,991,1050
552,992,1051
553,992,1050
554,994,1046
555,996,1047
556,997,1048
557,995,1051
558,992,1049
559,988,1048
560,992,1048
561,992,1049
562,992,1049
563,993,1052
564,992,1052
565,990,1049
566,992,1049
567,996,1049
568,996,1050
569,994,1050
570,993,1049
571,993,1048
572,996,1050
573,998,1050
574,999,1050
575,995,1051
576,995,1049
577,994,1049
578,995,1049
579,998,1051
580,997,1050
581,995,1052
582,992,1049
583,991,1048
584,994,1050
585,996,1050
586,996,1051
587,997,1050
588,996,1048
589,991,1044
590,995,1047
591,999,1050
592,1000,1051
593,997,1049
594,996,1046
595,996,1046
596,997,1044
597,998,1048
598,997,1050
599,995,1048
600,994,1047
601,992,1048
602,994,1046
603,996,1048
604,997,1049
605,994,1049
606,994,1047
607,993,1042
608,995,1046
609,997,1047
610,999,1049
611,997,1049
612,998,1044
613,997,1041
614,999,1046
615,1003,1049
616,1001,1049
617,998,1044
618,996,1041
619,994,1043
620,998,1046
621,999,1050
622,998,1047
623,998,1045
624,996,1041
625,997,1045
626,999,1048
627,1000,1051
628,1002,1051
629,999,1044
630,993,1042
631,994,1043
632,998,1048
633,1003,1050
634,1001,1047
635,998,1043
636,999,1039
637,1000,1042
638,1000,1048
639,1003,1049
640,1002,1048
641,998,1043
642,997,1039
643,993,1041
644,999,1047
645,999,1048
646,998,1048
647,998,1044
648,997,1039
649,998,1041
650,998,1045
651,1004,1047
652,1003,1047
653,1004,1043
654,1001,1039
655,1002,1041
656,1002,1046
657,1004,1047
658,1004,1047
659,1001,1039
660,1000,1039
661,997,1042
662,998,1045
663,1003,1050
664,1001,1045
665,1000,1038
666,998,1037
667,997,1045
668,1002,1047
669,1004,1048
670,1003,1044
671,1002,1039
672,1000,1036
673,1001,1039
674,1005,1044
675,1006,1047
676,1006,1045
677,1003,1037
678,1003,1036
679,999,1043
680,1003,1046
681,1004,1045
682,1002,1043
683,1000,1036
684,999,1036
685,996,1041
686,1002,1044
687,1003,1044
688,1004,1041
689,1003,1036
690,1000,1035
691,1003,1042
692,1002,1043
693,1005,1041
694,1004,1039
695,1003,1035
696,1002,1034
697,1001,1038
698,1004,1043
699,1007,1043
700,1006,1038
701,1002,1036
702,1001,1035
703,1001,1041
704,1000,1045
705,1004,1043
706,1003,1038
707,1002,1034
708,1001,1036
709,1003,1040
710,1004,1042
711,1008,1040
712,1008,1036
713,1005,1035
714,1005,1034
715,1004,1038
716,1007,1042
717,1008,1040
718,1007,1037
719,1005,1031
720,1002,1032
721,1000,1035
722,1000,1039
723,1005,1037
724,1006,1035
725,1001,1030
726,1001,1033
727,1001,1037
728,1004,1038
729,1003,1039
730,1005,1031
731,1005,1029
732,1004,1034
733,1003,1037
734,1006,1037
735,1009,1037
736,1008,1032
737,1004,1029
738,1004,1034
739,1005,1035
740,1005,1035
741,1005,1034
742,1003,1032
743,1004,1031
744,1000,1032
745,1001,1035
746,1005,1038
747,1008,1037
748,1008,1031
749,1005,1031
750,1000,1031
751,1005,1034
752,1003,1036
753,1008,1035
754,1007,1029
755,1008,1029
756,1005,1029
757,1006,1035
758,1007,1034
759,1008,1033
760,1010,1027
761,1006,1027
762,1003,1031
763,1001,1033
764,1005,1035
765,1005,1032
766,1007,1027
767,1002,1027
768,1002,1031
769,1002,1034
770,1005,1033
771,1009,1034
772,1010,1027
773,1007,1027
774,1005,1030
775,1006,1030
776,1008,1034
777,1011,1034
778,1012,1027
779,1009,1025
780,1006,1028
781,1005,1032
782,1004,1032
783,1007,1030
784,1007,1028
785,1006,1026
786,1007,1026
787,1003,1030
788,1007,1033
789,1008,1031
790,1008,1026
791,1006,1025
792,1006,1026
793,1004,1031
794,1008,1035
795,1009,1033
796,1010,1030
797,1009,1028
798,1007,1032
799,1007,1034
800,1010,1038
801,1011,1037
802,1010,1034
803,1009,1031
804,1008,1031
805,1007,1036
806,1010,1039
807,1010,1037
808,1013,1029
809,1010,1025
810,1011,1026
811,1009,1027
812,1010,1030
813,1013,1029
814,1013,1022
815,1012,1017
816,1005,1015
817,998,1013
818,998,1008
819,1001,1000
820,1003,991
821,1001,978
822,999,972
823,1007,969
824,1021,968
825,1043,971
826,1069,970
827,1087,965
828,1101,967
829,1107,976
830,1117,988
831,1127,1007
832,1147,1051
833,1174,1110
834,1197,1175
835,1204,1218
836,1199,1239
837,1188,1247
838,1174,1251
839,1159,1259
840,1142,1266
841,1115,1270
842,1084,1268
843,1047,1256
844,1012,1233
845,992,1208
846,977,1192
847,974,1187
848,973,1190
849,966,1191
850,963,1188
851,951,1183
852,947,1189
853,956,1203
854,969,1217
855,975,1221
856,986,1221
857,992,1215
858,1004,1211
859,1012,1206
860,1014,1195
861,1018,1175
862,1011,1144
863,1003,1115
864,994,1087
865,990,1068
866,991,1057
867,995,1049
868,993,1038
869,992,1025
870,986,1022
871,990,1022
872,992,1023
873,994,1022
874,994,1020
875,993,1012
876,990,1011
877,989,1012
878,994,1014
879,993,1017
880,995,1016
881,993,1010
882,990,1008
883,992,1009
884,991,1014
885,994,1016
886,993,1014
887,991,1008
888,988,1005
889,990,1006
890,990,1008
891,993,1013
892,993,1011
893,991,1009
894,991,1003
895,988,1004
896,992,1008
897,997,1010
898,997,1014
899,996,1004
900,991,1004
901,995,1004
902,999,1009
903,1001,1013
904,1000,1012
905,999,1010
906,996,1003
907,999,1009
908,1001,1011
909,1005,1015
910,1003,1016
911,1002,1008
912,1001,1008
913,1001,1010
914,1004,1017
915,1008,1019
916,1008,1018
917,1007,1013
918,1009,1010
919,1009,1012
920,1011,1020
921,1017,1021
922,1017,1021
923,1012,1018
924,1011,1018
925,1015,1019
926,1018,1026
927,1021,1031
928,1020,1031
929,1018,1026
930,1016,1024
931,1016,1029
932,1020,1035
933,1022,1037
934,1026,1035
935,1021,1033
936,1024,1032
937,1025,1037
938,1026,1043
939,1032,1048
940,1032,1045
941,1033,1038
942,1032,1038
943,1037,1045
944,1041,1050
945,1044,1053
946,1042,1050
947,1041,1046
948,1039,1047
949,1038,1050
950,1042,1057
951,1041,1060
952,1043,1056
953,1044,1053
954,1045,1053
955,1047,1059
956,1049,1066
957,1051,1066
958,1053,1063
959,1052,1060
960,1048,1061
961,1049,1066
962,1054,1070
963,1059,1070
964,1059,1068
965,1056,1065
966,1055,1067
967,1054,1072
968,1058,1076
969,1060,1076
970,1060,1074
971,1059,1069
972,1055,1073
973,1056,1077
974,1060,1081
975,1063,1081
976,1063,1077
977,1062,1075
978,1059,1077
979,1061,1083
980,1064,1088
981,1066,1085
982,1063,1080
983,1062,1080
984,1063,1083
985,1061,1089
986,1064,1092
987,1064,1091
988,1062,1088
989,1059,1085
990,1058,1091
991,1057,1096
992,1059,1099
993,1060,1096
994,1059,1092
995,1057,1091
996,1055,1096
997,1056,1100
998,1055,1105
999,1057,1101
1000,1056,1101
1001,1055,1107
1002,1050,1112
1003,1057,1117
1004,1056,1114
1005,1058,1112
1006,1053,1112
1007,1051,1116
1008,1050,1120
1009,1051,1123
1010,1053,1121
1011,1051,1120
1012,1050,1117
1013,1050,1121
1014,1051,1126
1015,1051,1128
1016,1054,1124
1017,1052,1121
1018,1049,1120
1019,1050,1124
1020,1052,1127
1021,1055,1126
1022,1057,1124
1023,1058,1121
1024,1057,1122
1025,1054,1122
1026,1057,1125
1027,1057,1126
1028,1059,1124
1029,1058,1120
1030,1054,1121
1031,1057,1122
1032,1056,1125
1033,1059,1127
1034,1063,1122
1035,1065,1121
1036,1063,1118
1037,1062,1121
1038,1065,1127
1039,1066,1126
1040,1069,1123
1041,1070,1122
1042,1070,1121
1043,1068,1123
1044,1072,1127
1045,1075,1127
1046,1079,1123
1047,1078,1122
1048,1075,1121
1049,1071,1119
1050,1068,1118
1051,1072,1117
1052,1070,1112
1053,1066,1103
1054,1056,1098
1055,1054,1095
1056,1056,1094
1057,1056,1094
1058,1061,1094
1059,1059,1093
1060,1053,1093
1061,1050,1089
1062,1050,1088
1063,1052,1088
1064,1055,1088
1065,1054,1093
1066,1044,1094
1067,1031,1095
1068,1009,1091
1069,985,1093
1070,962,1092
1071,941,1095
1072,924,1096
1073,899,1089
1074,867,1070
1075,835,1055
1076,824,1040
1077,813,1028
1078,808,1019
1079,802,1011
1080,795,1004
1081,795,1002
1082,806,1010
1083,823,1023
1084,834,1035
1085,840,1046
1086,845,1051
1087,850,1055
1088,858,1058
1089,863,1058
1090,863,1052
1091,858,1036
1092,855,1018
1093,856,992
1094,856,962
1095,856,931
1096,852,900
1097,847,871
1098,847,851
1099,850,841
1100,856,835
1101,857,832
1102,855,825
1103,852,819
1104,851,818
1105,853,816
1106,853,819
1107,854,819
1108,851,813
1109,847,811
1110,846,809
1111,849,809
1112,853,809
1113,853,810
1114,851,811
1115,848,807
1116,848,806
1117,849,807
1118,854,808
1119,852,808
1120,851,804
1121,851,802
1122,848,802
1123,852,806
1124,858,807
1125,857,806
1126,855,802
1127,852,801
1128,854,801
1129,858,806
1130,862,811
1131,862,810
1132,858,806
1133,860,804
1134,861,808
1135,864,813
1136,869,818
1137,870,815
1138,870,814
1139,870,813
1140,873,817
1141,875,823
1142,880,828
1143,878,828
1144,878,824
1145,880,825
1146,880,829
1147,886,836
1148,887,841
1149,892,839
1150,888,836
1151,889,835
1152,891,844
1153,896,850
1154,901,858
1155,900,856
1156,900,853
1157,899,855
1158,900,862
1159,905,870
1160,908,874
1161,909,870
1162,911,869
1163,910,873
1164,915,879
1165,919,888
1166,924,889
1167,923,889
1168,927,887
1169,929,890
1170,929,897
1171,933,902
1172,937,903
1173,935,900
1174,933,898
1175,937,903
1176,939,912
1177,942,919
1178,947,917
1179,948,917
1180,950,916
1181,951,920
1182,952,928
1183,957,930
1184,962,933
1185,960,929
1186,959,929
1187,957,932
1188,960,939
1189,962,945
1190,962,947
1191,968,943
1192,966,944
1193,967,947
1194,968,955
1195,973,962
1196,977,963
1197,976,958
1198,973,961
1199,972,965
1200,976,971
1201,980,973
1202,985,973
1203,983,971
1204,981,970
1205,980,977
1206,981,980
1207,980,982
1208,982,981
1209,982,978
1210,979,981
1211,979,984
1212,980,989
1213,983,995
1214,983,995
1215,982,988
1216,982,991
1217,979,995
1218,977,998
1219,983,1003
1220,984,1002
1221,986,1001
1222,984,1005
1223,981,1009
1224,982,1013
1225,985,1013
1226,985,1013
1227,984,1012
1228,982,1014
1229,980,1019
1230,981,1023
1231,981,1024
1232,982,1022
1233,984,1022
1234,980,1023
1235,979,1027
1236,978,1031
1237,982,1029
1238,984,1029
1239,984,1028
1240,983,1029
1241,982,1032
1242,984,1035
1243,984,1034
1244,986,1031
1245,986,1032
1246,983,1031
1247,982,1035
1248,980,1038
1249,984,1037
1250,985,1035
1251,984,1033
1252,983,1035
1253,980,1037
1254,981,1037
1255,983,1039
1256,983,1036
1257,984,1034
1258,983,1035
1259,982,1038
1260,983,1040
1261,986,1039
1262,989,1038
1263,988,1039
1264,987,1038
1265,984,1040
1266,985,1042
1267,986,1041
1268,987,1040
1269,984,1040
1270,983,1042
1271,981,1043
1272,980,1042
1273,986,1043
1274,987,1043
1275,989,1047
1276,988,1046
1277,987,1044
1278,985,1044
1279,989,1046
1280,991,1045
1281,991,1048
1282,989,1045
1283,986,1044
1284,987,1045
1285,990,1046
1286,990,1048
1287,988,1050
1288,987,1048
1289,985,1047
1290,985,1048
1291,987,1046
1292,990,1048
1293,990,1050
1294,989,1050
1295,987,1048
1296,987,1048
1297,990,1049
1298,992,1050
1299,988,1051
1300,989,1050
1301,990,1049
1302,989,1047
1303,990,1049
1304,995,1052
1305,994,1053
1306,990,1053
1307,988,1050
1308,989,1050
1309,988,1052
1310,988,1054
1311,991,1056
1312,986,1053
1313,988,1048
1314,985,1050
1315,988,1053
1316,992,1056
1317,989,1057
1318,987,1053
1319,987,1050
1320,988,1050
1321,992,1055
1322,993,1059
1323,990,1056
1324,991,1051
1325,989,1049
1326,990,1052
1327,989,1055
1328,991,1059
1329,991,1058
1330,989,1054
1331,986,1052
1332,989,1054
1333,990,1056
1334,990,1058
1335,989,1058
1336,988,1055
1337,987,1052
1338,987,1054
1339,991,1057
1340,993,1060
1341,992,1057
1342,993,1053
1343,992,1051
1344,992,1054
1345,994,1058
1346,992,1062
1347,993,1061
1348,990,1054
1349,989,1053
1350,987,1057
1351,990,1063
1352,989,1060
1353,989,1057
1354,987,1057
1355,987,1052
1356,989,1059
1357,990,1062
1358,992,1063
1359,990,1060
1360,990,1054
1361,989,1054
1362,987,1060
1363,991,1066
1364,993,1064
1365,988,1060
1366,989,1055
1367,987,1056
1368,988,1059
1369,988,1066
1370,989,1064
1371,990,1061
1372,988,1055
1373,984,1059
1374,985,1063
1375,990,1067
1376,992,1065
1377,991,1064
1378,987,1056
1379,989,1059
1380,992,1065
1381,992,1069
1382,993,1067
1383,994,1062
1384,992,1059
1385,990,1058
1386,991,1064
1387,993,1067
1388,992,1067
1389,993,1063
1390,991,1058
1391,988,1059
1392,987,1066
1393,991,1069
1394,991,1067
1395,993,1062
1396,990,1058
1397,989,1062
1398,991,1067
1399,992,1070
1400,994,1065
1401,995,1063
1402,993,1062
1403,991,1064
1404,991,1070
1405,994,1071
1406,994,1066
1407,991,1065
1408,988,1062
1409,987,1067
1410,988,1070
1411,992,1072
1412,993,1070
1413,994,1065
1414,990,1063
1415,988,1067
1416,989,1071
1417,992,1070
1418,995,1067
1419,993,1063
1420,994,1063
1421,990,1069
1422,992,1070
1423,993,1070
1424,992,1066
1425,993,1065
1426,993,1067
1427,990,1069
1428,989,1071
1429,991,1072
1430,993,1069
1431,991,1065
1432,991,1068
1433,987,1070
1434,986,1070
1435,990,1071
1436,991,1070
1437,991,1067
1438,989,1067
1439,987,1069
1440,986,1072
1441,990,1072
1442,994,1069
1443,996,1066
1444,992,1066
1445,989,1070
1446,991,1072
1447,990,1071
1448,993,1067
1449,991,1068
1450,988,1068
1451,987,1070
1452,987,1073
1453,989,1071
1454,991,1070
1455,991,1067
1456,991,1068
1457,988,1070
1458,989,1073
1459,990,1070
1460,993,1071
1461,994,1068
1462,992,1070
1463,991,1074
1464,992,1074
1465,993,1073
1466,993,1070
1467,993,1069
1468,991,1072
1469,988,1073
1470,987,1073
1471,989,1073
1472,995,1072
1473,993,1070
1474,991,1072
1475,988,1073
1476,989,1075
1477,992,1073
1478,994,1072
1479,992,1069
1480,990,1069
1481,992,1072
1482,993,1077
1483,997,1074
1484,992,1071
1485,993,1069
1486,992,1072
1487,990,1074
1488,990,1076
1489,992,1076
1490,990,1072
1491,991,1071
1492,989,1073
1493,988,1073
1494,987,1076
1495,989,1076
1496,992,1073
1497,993,1073
1498,989,1074
1499,990,1076
1500,990,1077
1501,993,1077
1502,995,1075
1503,993,1072
1504,993,1075
1505,992,1078
1506,994,1076
1507,995,1078
1508,996,1075
1509,994,1073
1510,990,1075
1511,988,1075
1512,988,1076
1513,991,1076
1514,995,1075
1515,993,1074
1516,988,1077
1517,990,1077
1518,991,1078
1519,991,1077
1520,995,1075
1521,992,1075
1522,987,1078
1523,990,1077
1524,993,1077
1525,995,1079
1526,998,1076
1527,997,1076
1528,994,1077
1529,992,1079
1530,993,1081
1531,996,1081
1532,995,1078
1533,995,1079
1534,994,1078
1535,992,1081
1536,993,1081
1537,995,1083
1538,996,1078
1539,993,1078
1540,993,1079
1541,991,1083
1542,994,1085
1543,995,1083
1544,996,1082
1545,994,1082
1546,991,1082
1547,989,1084
1548,991,1086
1549,997,1083
1550,997,1083
1551,995,1082
1552,992,1082
1553,992,1086
1554,993,1084
1555,996,1086
1556,998,1082
1557,997,1078
1558,995,1078
1559,994,1080
1560,993,1086
1561,995,1084
1562,999,1083
1563,1000,1081
1564,998,1081
1565,997,1084
1566,998,1083
1567,1001,1083
1568,1002,1077
1569,999,1075
1570,991,1074
1571,985,1070
1572,979,1062
1573,976,1054
1574,978,1043
1575,976,1036
1576,980,1031
1577,991,1027
1578,1013,1026
1579,1040,1027
1580,1066,1033
1581,1084,1032
1582,1090,1038
1583,1095,1047
1584,1106,1068
1585,1132,1111
1586,1162,1180
1587,1179,1243
1588,1179,1279
1589,1168,1289
1590,1157,1293
1591,1147,1304
1592,1132,1319
1593,1107,1327
1594,1073,1326
1595,1032,1313
1596,1000,1298
1597,980,1280
1598,972,1264
1599,967,1254
1600,957,1251
1601,952,1252
1602,945,1249
1603,939,1251
1604,941,1254
1605,947,1262
1606,952,1274
1607,957,1281
1608,964,1280
1609,975,1280
1610,988,1281
1611,996,1275
1612,997,1267
1613,999,1248
1614,996,1225
1615,988,1198
1616,983,1170
1617,978,1145
1618,974,1123
1619,975,1111
1620,976,1099
1621,978,1093
1622,982,1090
1623,980,1088
1624,978,1083
1625,978,1082
1626,978,1081
1627,980,1078
1628,982,1079
1629,980,1078
1630,979,1078
1631,977,1076
1632,978,1075
1633,979,1077
1634,978,1073
1635,977,1076
1636,975,1077
1637,974,1075
1638,975,1070
1639,980,1073
1640,981,1076
1641,980,1077
1642,979,1074
1643,974,1070
1644,978,1070
1645,983,1072
1646,985,1076
1647,985,1076
1648,982,1071
1649,980,1069
1650,982,1070
1651,986,1077
1652,985,1078
1653,984,1073
1654,981,1069
1655,984,1069
1656,986,1072
1657,987,1078
1658,989,1081
1659,988,1078
1660,984,1071
1661,985,1071
1662,988,1077
1663,992,1083
1664,994,1083
1665,994,1078
1666,994,1075
1667,993,1075
1668,996,1080
1669,999,1086
1670,1000,1085
1671,998,1083
1672,996,1077
1673,995,1078
1674,998,1086
1675,1001,1092
1676,1003,1092
1677,1000,1088
1678,998,1088
1679,1000,1087
1680,1004,1095
1681,1008,1099
1682,1009,1098
1683,1010,1095
1684,1010,1092
1685,1009,1096
1686,1011,1102
1687,1016,1106
1688,1018,1104
1689,1019,1101
1690,1017,1103
1691,1015,1104
1692,1015,1111
1693,1017,1114
1694,1022,1111
1695,1022,1110
1696,1019,1109
1697,1019,1111
1698,1020,1118
1699,1025,1119
1700,1026,1120
1701,1028,1118
1702,1027,1116
1703,1025,1121
1704,1029,1125
1705,1031,1125
1706,1033,1122
1707,1036,1120
1708,1032,1123
1709,1032,1128
1710,1034,1128
1711,1037,1127
1712,1038,1127
1713,1037,1130
1714,1037,1132
1715,1034,1131
1716,1036,1134
1717,1039,1133
1718,1043,1137
1719,1042,1139
1720,1039,1134
1721,1039,1134
1722,1044,1136
1723,1046,1143
1724,1046,1145
1725,1046,1141
1726,1045,1140
1727,1044,1139
1728,1045,1143
1729,1044,1148
1730,1046,1146
1731,1047,1143
1732,1044,1144
1733,1043,1147
1734,1043,1152
1735,1044,1152
1736,1043,1150
1737,1043,1147
1738,1042,1148
1739,1039,1153
1740,1041,1157
1741,1044,1160
1742,1044,1156
1743,1040,1156
1744,1039,1155
1745,1039,1162
1746,1041,1167
1747,1042,1166
1748,1038,1164
1749,1038,1164
1750,1036,1166
1751,1035,1170
1752,1035,1177
1753,1037,1177
1754,1036,1172
1755,1034,1171
1756,1034,1174
1757,1030,1177
1758,1033,1179
1759,1032,1177
1760,1033,1173
1761,1032,1174
1762,1033,1173
1763,1032,1176
1764,1036,1176
1765,1038,1177
1766,1038,1176
1767,1035,1172
1768,1034,1172
1769,1033,1171
1770,1032,1174
1771,1035,1175
1772,1037,1172
1773,1034,1168
1774,1035,1171
1775,1034,1173
1776,1038,1174
1777,1041,1171
1778,1042,1170
1779,1042,1170
1780,1042,1171
1781,1044,1173
1782,1045,1171
1783,1049,1171
1784,1050,1170
1785,1051,1169
1786,1052,1170
1787,1050,1169
1788,1051,1167
1789,1052,1166
1790,1055,1168
1791,1058,1165
1792,1057,1165
1793,1055,1165
1794,1055,1160
1795,1053,1157
1796,1051,1154
1797,1050,1148
1798,1046,1145
1799,1046,1137
1800,1052,1129
1801,1056,1123
1802,1061,1120
1803,1066,1120
1804,1063,1120
1805,1067,1126
1806,1068,1130
1807,1069,1137
1808,1065,1143
1809,1054,1143
1810,1040,1141
1811,1024,1138
1812,1009,1145
1813,987,1156
1814,968,1166
1815,945,1166
1816,920,1161
1817,894,1151
1818,880,1142
1819,860,1132
1820,840,1119
1821,825,1105
1822,817,1091
1823,815,1084
1824,824,1089
1825,834,1098
1826,849,1106
1827,870,1112
1828,885,1113
1829,900,1118
1830,913,1120
1831,924,1121
1832,927,1113
1833,918,1093
1834,905,1061
1835,892,1033
1836,882,1010
1837,874,991
1838,864,967
1839,857,942
1840,852,922
1841,847,904
1842,848,895
1843,851,890
1844,850,884
1845,845,875
1846,845,871
1847,843,867
1848,843,867
1849,845,869
1850,844,868
1851,843,863
1852,841,857
1853,842,855
1854,842,855
1855,845,859
1856,844,858
1857,843,855
1858,841,848
1859,841,846
1860,842,850
1861,842,852
1862,844,854
1863,845,849
1864,842,844
1865,841,842
1866,842,845
1867,845,849
1868,847,848
1869,844,844
1870,844,839
1871,842,838
1872,847,841
1873,849,845
1874,851,845
1875,850,840
1876,846,836
1877,848,836
1878,852,841
1879,856,846
1880,859,848
1881,855,845
1882,858,839
1883,857,840
1884,861,847
1885,862,851
1886,863,854
1887,864,852
1888,862,847
1889,860,846
1890,863,853
1891,867,858
1892,867,861
1893,866,859
1894,863,858
1895,865,856
1896,869,863
1897,875,867
1898,880,872
1899,880,872
1900,881,867
1901,881,868
1902,883,872
1903,889,876
1904,889,881
1905,893,878
1906,887,879
1907,889,878
1908,891,882
1909,895,890
1910,897,894
1911,895,894
1912,895,891
1913,898,891
1914,899,893
1915,903,898
1916,903,903
1917,905,901
1918,900,903
1919,902,902
1920,904,903
1921,910,908
1922,913,913
1923,913,911
1924,910,916
1925,910,915
1926,914,918
1927,920,922
1928,922,927
1929,922,929
1930,922,929
1931,921,930
1932,923,932
1933,927,938
1934,930,944
1935,931,944
1936,927,942
1937,930,942
1938,934,944
1939,938,950
1940,941,951
1941,940,953
1942,940,950
1943,940,950
1944,944,951
1945,947,956
1946,949,962
1947,951,961
1948,949,959
1949,950,959
1950,951,960
1951,954,965
1952,953,969
1953,952,968
1954,947,966
1955,950,968
1956,952,966
1957,956,973
1958,960,976
1959,958,977
1960,957,974
1961,956,974
1962,958,978
1963,963,979
1964,965,986
1965,963,987
1966,964,986
1967,964,984
1968,964,988
1969,969,990
1970,971,996
1971,970,997
1972,967,995
1973,967,996
1974,970,997
1975,972,1000
1976,974,1002
1977,974,1005
1978,973,1004
1979,971,1003
1980,972,1003
1981,975,1009
1982,976,1010
1983,978,1010
1984,975,1008
1985,976,1009
1986,976,1007
1987,980,1009
1988,980,1012
1989,980,1011
1990,978,1010
1991,979,1009
1992,980,1013
1993,978,1009
1994,980,1013
1995,978,1012
1996,975,1010
1997,975,1012
1998,978,1011
1999,981,1013
2000,981,1010
2001,982,1011
2002,979,1012
2003,978,1008
2004,980,1010
2005,981,1010
2006,985,1011
2007,984,1011
2008,982,1007
2009,981,1007
2010,983,1009
2011,981,1010
2012,984,1010
2013,983,1012
2014,980,1008
2015,980,1005
2016,981,1006
2017,983,1008
2018,982,1011
2019,982,1009
2020,981,1007
2021,979,1006
2022,979,1006
2023,983,1006
2024,988,1011
2025,987,1011
2026,984,1006
2027,986,1005
2028,984,1005
2029,989,1006
2030,992,1009
2031,987,1008
2032,985,1005
2033,983,1002
2034,984,1003
2035,983,1006
2036,985,1006
2037,985,1006
2038,984,1002
2039,982,1000
2040,983,1003
2041,987,1006
2042,987,1007
2043,985,1004
2044,986,1000
2045,983,999
2046,986,1000
2047,989,1003
2048,991,1007
2049,989,1003
2050,987,999
2051,987,999
2052,984,1002
2053,987,1004
2054,989,1004
2055,987,1001
2056,983,995
2057,982,995
2058,985,999
2059,988,1004
2060,986,1005
2061,986,997
2062,983,992
2063,984,994
2064,987,997
2065,988,1004
2066,990,1000
2067,989,996
2068,986,991
2069,985,992
2070,988,998
2071,989,1001
2072,990,1000
2073,989,995
2074,986,991
2075,984,991
2076,985,995
2077,988,999
2078,987,998
2079,989,990
2080,985,988
2081,985,992
2082,987,997
2083,989,999
2084,989,995
2085,988,992
2086,988,988
2087,987,990
2088,989,994
2089,990,997
2090,991,993
2091,990,989
2092,987,985
2093,987,989
2094,988,995
2095,991,995
2096,989,992
2097,988,987
2098,984,985
2099,984,989
2100,987,991
2101,989,993
2102,990,990
2103,989,985
2104,986,983
2105,984,986
2106,990,992
2107,993,990
2108,995,988
2109,992,986
2110,990,981
2111,989,986
2112,989,991
2113,989,990
2114,992,987
2115,990,983
2116,988,985
2117,986,986
2118,990,989
2119,987,987
2120,991,984
2121,991,981
2122,989,981
2123,987,985
2124,991,987
2125,994,987
2126,994,982
2127,993,980
2128,992,982
2129,989,983
2130,991,987
2131,994,984
2132,991,983
2133,990,978
2134,989,981
2135,988,983
2136,989,985
2137,993,985
2138,991,980
2139,989,980
2140,990,979
2141,986,981
2142,987,983
2143,990,983
2144,992,978
2145,991,979
2146,989,980
2147,989,983
2148,994,982
2149,994,983
2150,994,979
2151,993,977
2152,991,980
2153,988,982
2154,988,982
2155,991,982
2156,990,978
2157,991,978
2158,989,978
2159,987,981
2160,989,979
2161,991,981
2162,991,975
2163,987,978
2164,987,975
2165,989,980
2166,993,978
2167,995,979
2168,992,978
2169,990,975
2170,992,975
2171,990,978
2172,990,981
2173,993,978
2174,993,978
2175,992,973
2176,991,973
2177,987,975
2178,988,982
2179,991,979
2180,990,976
2181,987,976
2182,989,976
2183,989,975
2184,989,980
2185,990,979
2186,991,977
2187,990,976
2188,990,971
2189,989,976
2190,994,980
2191,994,979
2192,994,976
2193,991,971
2194,989,972
2195,985,977
2196,991,980
2197,991,981
2198,993,976
2199,991,973
2200,987,973
2201,989,975
2202,991,979
2203,993,979
2204,993,977
2205,992,973
2206,992,972
2207,989,973
2208,992,978
2209,994,978
2210,995,979
2211,995,974
2212,993,970
2213,993,972
2214,993,977
2215,994,981
2216,995,977
2217,990,972
2218,989,969
2219,987,974
2220,989,977
2221,992,979
2222,994,977
2223,990,972
2224,989,970
2225,990,972
2226,992,975
2227,994,982
2228,995,978
2229,994,973
2230,991,968
2231,991,973
2232,991,976
2233,995,979
2234,996,978
2235,993,972
2236,990,970
2237,989,971
2238,993,976
2239,993,980
2240,993,977
2241,992,974
2242,992,969
2243,991,973
2244,992,974
2245,995,978
2246,994,979
2247,993,973
2248,988,970
2249,991,971
2250,994,975
2251,996,979
2252,995,976
2253,995,974
2254,994,969
2255,991,972
2256,990,974
2257,995,979
2258,996,978
2259,995,975
2260,990,970
2261,992,970
2262,993,973
2263,994,976
2264,996,979
2265,990,977
2266,988,971
2267,989,970
2268,990,973
2269,994,977
2270,995,978
2271,990,975
2272,989,973
2273,990,972
2274,995,973
2275,997,977
2276,997,979
2277,996,979
2278,994,975
2279,991,972
2280,990,974
2281,991,975
2282,994,979
2283,991,978
2284,990,975
2285,989,974
2286,991,974
2287,994,976
2288,995,977
2289,993,977
2290,991,975
2291,990,974
2292,993,975
2293,996,977
2294,997,979
2295,994,978
2296,994,975
2297,993,972
2298,996,975
2299,997,978
2300,997,980
2301,994,980
2302,991,977
2303,989,975
2304,991,979
2305,995,980
2306,994,983
2307,990,982
2308,990,981
2309,992,982
2310,996,980
2311,998,983
2312,1001,987
2313,1000,986
2314,999,984
2315,997,983
2316,1001,978
2317,1005,982
2318,1004,979
2319,999,979
2320,997,977
2321,998,973
2322,997,973
2323,996,973
2324,995,969
2325,987,964
2326,979,956
2327,978,945
2328,977,938
2329,980,932
2330,985,924
2331,991,922
2332,1008,917
2333,1031,916
2334,1056,921
2335,1076,923
2336,1088,926
2337,1096,932
2338,1100,943
2339,1115,968
2340,1144,1020
2341,1168,1083
2342,1178,1139
2343,1171,1167
2344,1156,1176
2345,1144,1182
2346,1133,1191
2347,1118,1207
2348,1094,1214
2349,1055,1208
2350,1015,1194
2351,987,1175
2352,975,1159
2353,972,1148
2354,966,1141
2355,963,1138
2356,952,1134
2357,943,1133
2358,941,1135
2359,947,1144
2360,954,1156
2361,960,1161
2362,962,1162
2363,970,1162
2364,981,1164
2365,995,1165
2366,1000,1156
2367,1000,1141
2368,995,1116
2369,986,1089
2370,983,1063
2371,980,1041
2372,979,1021
2373,977,1007
2374,976,995
2375,979,984
2376,979,981
2377,982,980
2378,983,981
2379,983,976
2380,980,972
2381,981,968
2382,982,968
2383,982,972
2384,981,972
2385,979,971
2386,975,965
2387,977,964
2388,980,965
2389,981,969
2390,980,969
2391,980,969
2392,979,964
2393,980,961
2394,983,963
2395,982,967
2396,986,968
2397,984,968
2398,982,962
2399,984,960
2400,985,964
2401,989,969
2402,986,971
2403,985,968
2404,983,963
2405,983,961
2406,986,964
2407,989,969
2408,991,970
2409,989,967
2410,987,963
2411,986,962
2412,991,967
2413,994,972
2414,995,973
2415,994,970
2416,994,967
2417,993,965
2418,995,967
2419,999,972
2420,999,974
2421,997,973
2422,995,972
2423,998,969
2424,995,972
2425,1001,978
2426,1002,977
2427,1000,977
2428,997,974
2429,1000,973
2430,1002,976
2431,1005,983
2432,1005,985
2433,1005,983
2434,1003,981
2435,1004,980
2436,1009,981
2437,1012,988
2438,1013,989
2439,1009,990
2440,1010,983
2441,1014,984
2442,1015,989
2443,1018,994
2444,1016,997
2445,1016,996
2446,1012,991
2447,1014,991
2448,1017,997
2449,1021,1001
2450,1020,1003
2451,1019,1001
2452,1021,998
2453,1017,1000
2454,1023,1001
2455,1026,1004
2456,1028,1008
2457,1023,1008
2458,1026,1006
2459,1024,1004
2460,1027,1007
2461,1032,1011
2462,1033,1014
2463,1033,1015
2464,1032,1014
2465,1034,1013
2466,1035,1010
2467,1037,1013
2468,1035,1016
2469,1036,1018
2470,1034,1016
2471,1032,1016
2472,1036,1014
2473,1039,1017
2474,1039,1018
2475,1039,1020
2476,1039,1021
2477,1037,1021
2478,1042,1020
2479,1044,1023
2480,1044,1024
2481,1046,1024
2482,1041,1024
2483,1041,1026
2484,1045,1025
2485,1048,1027
2486,1049,1027
2487,1046,1029
2488,1043,1031
2489,1044,1030
2490,1043,1031
2491,1044,1030
2492,1044,1031
2493,1043,1032
2494,1041,1034
2495,1040,1036
2496,1042,1039
2497,1041,1038
2498,1042,1037
2499,1040,1035
2500,1040,1040
2501,1040,1042
2502,1038,1045
2503,1045,1042
2504,1044,1042
2505,1042,1041
2506,1038,1043
2507,1039,1049
2508,1039,1053
2509,1041,1053
2510,1042,1049
2511,1038,1047
2512,1033,1051
2513,1031,1056
2514,1035,1062
2515,1038,1061
2516,1038,1059
2517,1034,1059
2518,1030,1058
2519,1031,1066
2520,1033,1069
2521,1036,1067
2522,1036,1066
2523,1036,1061
2524,1030,1064
2525,1034,1069
2526,1036,1072
2527,1039,1072
2528,1039,1070
2529,1038,1064
2530,1036,1065
2531,1037,1071
2532,1037,1072
2533,1037,1073
2534,1040,1067
2535,1037,1064
2536,1037,1063
2537,1037,1067
2538,1038,1070
2539,1037,1071
2540,1041,1067
2541,1040,1065
2542,1038,1063
2543,1040,1068
2544,1042,1069
2545,1045,1071
2546,1046,1067
2547,1046,1061
2548,1043,1060
2549,1045,1066
2550,1050,1068
2551,1050,1072
2552,1053,1068
2553,1053,1063
2554,1050,1061
2555,1050,1063
2556,1055,1068
2557,1055,1070
2558,1061,1068
2559,1060,1063
2560,1058,1061
2561,1059,1059
2562,1061,1063
2563,1064,1064
2564,1061,1061
2565,1057,1054
2566,1053,1048
2567,1055,1045
2568,1057,1047
2569,1062,1041
2570,1062,1035
2571,1059,1024
2572,1057,1011
2573,1058,1008
2574,1059,1009
2575,1061,1014
2576,1057,1017
2577,1051,1014
2578,1048,1013
2579,1040,1015
2580,1034,1020
2581,1025,1021
2582,1014,1016
2583,999,1011
2584,975,1007
2585,952,1010
2586,927,1017
2587,911,1019
2588,901,1020
2589,882,1014
2590,850,1005
2591,822,997
2592,806,992
2593,803,983
2594,804,974
2595,805,964
2596,800,961
2597,802,963
2598,812,975
2599,829,987
2600,846,1001
2601,858,1007
2602,866,1009
2603,874,1013
2604,883,1016
2605,882,1018
2606,880,1008
2607,875,996
2608,869,980
2609,866,966
2610,861,953
2611,863,936
2612,860,907
2613,854,876
2614,849,844
2615,845,823
2616,846,808
2617,845,803
2618,848,796
2619,845,786
2620,845,778
2621,843,775
2622,844,773
2623,847,774
2624,846,773
2625,842,770
2626,842,764
2627,842,762
2628,844,761
2629,848,765
2630,846,767
2631,844,762
2632,842,760
2633,842,756
2634,843,759
2635,846,760
2636,845,760
2637,847,758
2638,844,754
2639,845,753
2640,847,754
2641,851,757
2642,851,757
2643,851,755
2644,850,752
2645,850,751
2646,852,752
2647,854,753
2648,856,759
2649,856,757
2650,856,756
2651,855,755
2652,859,757
2653,862,762
2654,866,763
2655,866,763
2656,863,762
2657,863,762
2658,866,764
2659,870,769
2660,871,771
2661,871,771
2662,870,772
2663,870,771
2664,873,775
2665,879,780
2666,880,784
2667,881,784
2668,877,785
2669,879,784
2670,883,788
2671,885,794
2672,890,797
2673,893,799
2674,893,797
2675,893,799
2676,896,802
2677,897,807
2678,899,811
2679,900,813
2680,897,812
2681,897,814
2682,901,815
2683,904,823
2684,907,825
2685,908,826
2686,907,828
2687,907,829
2688,914,832
2689,917,837
2690,917,842
2691,919,845
2692,919,845
2693,921,845
2694,923,849
2695,928,852
2696,930,858
2697,930,858
2698,930,860
2699,931,859
2700,934,865
2701,938,870
2702,941,874
2703,940,878
2704,942,876
2705,943,879
2706,947,881
2707,954,890
2708,958,893
2709,957,892
2710,954,891
2711,956,895
2712,958,897
2713,964,904
2714,963,907
2715,965,905
2716,967,904
2717,969,904
2718,973,904
2719,973,911
2720,975,911
2721,972,911
2722,969,910
2723,969,910
2724,971,912
2725,973,920
2726,973,922
2727,974,917
2728,975,916
2729,973,917
2730,975,923
2731,982,927
2732,979,929
2733,976,926
2734,975,922
2735,975,925
2736,977,930
2737,977,936
2738,978,938
2739,980,936
2740,976,933
2741,974,940
2742,974,948
2743,977,951
2744,978,954
2745,976,949
2746,976,947
2747,976,951
2748,978,959
2749,980,964
2750,980,966
2751,980,963
2752,978,959
2753,978,963
2754,976,969
2755,983,975
2756,985,971
2757,981,969
2758,979,966
2759,979,970
2760,981,975
2761,983,979
2762,982,979
2763,978,975
2764,977,973
2765,976,974
2766,982,979
2767,982,984
2768,984,982
2769,979,977
2770,979,975
2771,979,977
2772,982,986
2773,985,987
2774,987,983
2775,985,979
2776,982,978
2777,982,983
2778,983,987
2779,985,987
2780,985,983
2781,984,978
2782,982,980
2783,981,986
2784,982,987
2785,981,988
2786,986,985
2787,984,981
2788,983,981
2789,981,986
2790,983,990
2791,985,986
2792,985,985
2793,983,983
2794,984,982
2795,984,986
2796,985,989
2797,986,991
2798,988,985
2799,985,983
2800,986,982
2801,983,987
2802,982,991
2803,985,989
2804,986,986
2805,985,982
2806,982,984
2807,982,987
2808,986,990
2809,986,990
2810,988,987
2811,986,985
2812,984,986
2813,985,989
2814,986,991
2815,991,987
2816,993,987
2817,989,986
2818,985,988
2819,983,989
2820,987,991
2821,986,991
2822,986,988
2823,986,987
2824,982,988
2825,982,991
2826,986,992
2827,987,990
2828,989,988
2829,986,989
2830,984,992
2831,984,992
2832,985,993
2833,989,989
2834,990,989
2835,988,986
2836,988,987
2837,986,991
2838,989,992
2839,990,990
2840,991,988
2841,986,987
2842,987,987
2843,985,991
2844,987,993
2845,990,990
2846,991,987
2847,989,986
2848,986,988
2849,984,991
2850,986,992
2851,990,989
2852,991,991
2853,989,988
2854,990,988
2855,988,993
2856,988,993
2857,993,993
2858,992,990
2859,990,988
2860,986,989
2861,988,992
2862,989,992
2863,990,990
2864,992,987
2865,989,988
2866,989,989
2867,984,991
2868,988,994
2869,992,992
2870,989,989
2871,989,986
2872,986,992
2873,986,992
2874,989,991
2875,993,991
2876,994,987
2877,990,989
2878,989,990
2879,986,991
2880,989,990
2881,988,988
2882,989,988
2883,987,987
2884,985,989
2885,984,990
2886,985,991
2887,989,990
2888,986,988
2889,986,989
2890,983,989
2891,984,990
2892,988,990
2893,990,990
2894,989,989
2895,989,987
2896,987,987
2897,983,990
2898,986,989
2899,990,985
2900,991,987
2901,989,984
2902,987,988
2903,984,988
2904,988,989
2905,989,987
2906,989,984
2907,987,986
2908,985,989
2909,986,990
2910,987,990
2911,988,987
2912,987,986
2913,986,985
2914,985,989
2915,985,990
2916,986,990
2917,990,988
2918,989,987
2919,990,983
2920,987,987
2921,984,989
2922,990,989
2923,990,987
2924,992,984
2925,985,985
2926,987,983
2927,986,988
2928,987,990
2929,989,987
2930,990,985
2931,987,986
2932,988,986
2933,987,990
2934,988,990
2935,990,988
2936,993,987
2937,990,983
2938,988,985
2939,988,989
2940,991,991
2941,989,988
2942,991,987
2943,991,983
2944,988,986
2945,987,988
2946,986,989
2947,989,987
2948,989,984
2949,987,983
2950,988,986
2951,986,988
2952,989,991
2953,988,987
2954,988,987
2955,990,983
2956,987,986
2957,988,987
2958,990,988
2959,993,987
2960,993,986
2961,991,985
2962,991,986
2963,990,988
2964,991,990
2965,993,987
2966,993,985
2967,989,985
2968,986,984
2969,987,988
2970,989,988
2971,990,985
2972,990,982
2973,989,983
2974,988,985
2975,989,988
2976,990,989
2977,992,989
2978,991,985
2979,990,985
2980,989,983
2981,990,988
2982,992,988
2983,993,987
2984,991,985
2985,988,983
2986,986,984
2987,986,987
2988,987,988
2989,988,986
2990,990,982
2991,990,981
2992,985,983
2993,986,986
2994,990,988
2995,990,986
2996,991,984
2997,988,983
2998,985,982
2999,988,985
3000,990,988
3001,993,986
3002,992,984
3003,990,981
3004,990,983
3005,988,985
3006,992,988
3007,992,988
3008,989,982
3009,989,982
3010,986,984
3011,986,988
3012,986,989
3013,989,986
3014,989,984
3015,987,982
3016,987,983
3017,988,988
3018,990,986
3019,991,987
3020,991,981
3021,990,980
3022,990,983
3023,991,985
3024,991,987
3025,993,983
3026,995,982
3027,992,983
3028,985,982
3029,986,985
3030,989,988
3031,992,983
3032,991,982
3033,990,981
3034,989,982
3035,989,985
3036,990,985
3037,993,981
3038,991,981
3039,990,980
3040,991,983
3041,988,984
3042,992,984
3043,995,982
3044,995,982
3045,992,981
3046,991,985
3047,987,985
3048,988,985
3049,989,983
3050,991,984
3051,993,984
3052,987,984
3053,987,986
3054,989,983
3055,993,982
3056,992,982
3057,987,983
3058,985,983
3059,987,985
3060,991,985
3061,993,983
3062,994,983
3063,992,985
3064,987,987
3065,990,987
3066,993,984
3067,993,985
3068,990,988
3069,989,987
3070,988,985
3071,988,984
3072,990,984
3073,992,985
3074,992,988
3075,991,988
3076,989,984
3077,984,985
3078,992,986
3079,993,986
3080,994,989
3081,993,989
3082,992,985
3083,994,982
3084,998,988
3085,999,988
3086,1000,990
3087,998,987
3088,997,987
3089,996,985
3090,998,987
3091,1003,992
3092,1003,992
3093,998,988
3094,991,980
3095,985,976
3096,984,969
3097,988,966
3098,992,960
3099,990,949
3100,997,939
3101,1013,933
3102,1039,937
3103,1064,941
3104,1084,945
3105,1092,942
3106,1094,942
3107,1099,953
3108,1116,981
3109,1142,1031
3110,1167,1095
3111,1174,1145
3112,1169,1169
3113,1156,1183
3114,1146,1196
3115,1137,1210
3116,1120,1217
3117,1090,1215
3118,1053,1207
3119,1014,1196
3120,989,1182
3121,980,1166
3122,976,1148
3123,971,1136
3124,963,1136
3125,957,1137
3126,951,1140
3127,948,1142
3128,948,1149
3129,950,1153
3130,956,1159
3131,962,1167
3132,972,1174
3133,985,1176
3134,993,1171
3135,997,1156
3136,993,1141
3137,987,1120
3138,984,1102
3139,979,1073
3140,977,1045
3141,975,1022
3142,973,1008
3143,975,1003
3144,977,1000
3145,979,999
3146,979,989
3147,975,986
3148,972,981
3149,972,984
3150,974,987
3151,975,987
3152,977,983
3153,974,977
3154,971,973
3155,971,978
3156,972,984
3157,977,982
3158,976,980
3159,973,976
3160,975,971
3161,975,974
3162,979,982
3163,981,982
3164,980,979
3165,979,974
3166,977,973
3167,974,974
3168,974,979
3169,977,982
3170,980,977
3171,978,971
3172,975,971
3173,976,975
3174,979,980
3175,983,980
3176,981,978
3177,979,974
3178,980,973
3179,981,975
3180,984,981
3181,985,979
3182,988,978
3183,988,975
3184,987,975
3185,988,979
3186,989,984
3187,992,984
3188,992,983
3189,990,979
3190,987,976
3191,989,980
3192,992,986
3193,995,987
3194,995,984
3195,993,984
3196,993,982
3197,992,983
3198,997,992
3199,1001,992
3200,1001,991
3201,998,988
3202,998,985
3203,997,989
3204,1000,997
3205,1006,999
3206,1007,997
3207,1003,995
3208,1005,993
3209,1004,995
3210,1010,1000
3211,1012,1004
3212,1010,1006
3213,1010,1000
3214,1007,1001
3215,1007,1004
3216,1013,1010
3217,1017,1012
3218,1016,1011
3219,1015,1009
3220,1014,1008
3221,1016,1010
3222,1018,1016
3223,1022,1019
3224,1022,1018
3225,1024,1014
3226,1022,1013
3227,1020,1016
3228,1023,1021
3229,1028,1025
3230,1028,1026
3231,1025,1022
3232,1025,1020
3233,1024,1023
3234,1026,1026
3235,1031,1031
3236,1032,1032
3237,1031,1026
3238,1031,1026
3239,1030,1027
3240,1034,1032
3241,1035,1036
3242,1037,1034
3243,1036,1033
3244,1034,1029
3245,1037,1032
3246,1039,1038
3247,1044,1042
3248,1039,1040
3249,1041,1035
3250,1041,1033
3251,1040,1036
3252,1042,1043
3253,1044,1045
3254,1043,1046
3255,1040,1044
3256,1039,1041
3257,1038,1042
3258,1042,1048
3259,1045,1050
3260,1043,1052
3261,1039,1047
3262,1040,1047
3263,1038,1049
3264,1042,1057
3265,1046,1060
3266,1044,1057
3267,1042,1051
3268,1040,1054
3269,1039,1058
3270,1040,1061
3271,1042,1069
3272,1039,1063
3273,1036,1061
3274,1034,1063
3275,1034,1067
3276,1035,1073
3277,1036,1077
3278,1038,1073
3279,1036,1073
3280,1034,1070
3281,1035,1074
3282,1036,1082
3283,1036,1084
3284,1039,1083
3285,1036,1079
3286,1036,1076
3287,1035,1080
3288,1036,1086
3289,1042,1087
3290,1042,1086
3291,1038,1081
3292,1031,1081
3293,1035,1086
3294,1038,1088
3295,1041,1090
3296,1042,1087
3297,1039,1082
3298,1036,1082
3299,1039,1084
3300,1041,1090
3301,1045,1093
3302,1045,1087
3303,1044,1083
3304,1042,1081
3305,1044,1081
3306,1045,1088
3307,1050,1090
3308,1050,1086
3309,1050,1082
3310,1048,1079
3311,1048,1083
3312,1053,1089
3313,1055,1089
3314,1056,1085
3315,1053,1080
3316,1054,1083
3317,1055,1086
3318,1058,1090
3319,1062,1088
3320,1063,1084
3321,1063,1080
3322,1061,1083
3323,1062,1087
3324,1068,1091
3325,1069,1088
3326,1073,1084
3327,1067,1077
3328,1065,1075
3329,1064,1076
3330,1062,1077
3331,1061,1074
3332,1059,1066
3333,1054,1056
3334,1053,1052
3335,1051,1050
3336,1055,1045
3337,1056,1041
3338,1054,1035
3339,1050,1035
3340,1041,1038
3341,1034,1042
3342,1028,1044
3343,1025,1037
3344,1016,1032
3345,1008,1026
3346,1001,1025
3347,994,1027
3348,982,1032
3349,962,1037
3350,937,1041
3351,913,1041
3352,899,1051
3353,889,1058
3354,872,1055
3355,848,1042
3356,829,1027
3357,818,1014
3358,814,1010
3359,816,1014
3360,819,1019
3361,825,1022
3362,836,1020
3363,850,1023
3364,865,1032
3365,874,1046
3366,878,1051
3367,880,1047
3368,880,1036
3369,879,1028
3370,875,1023
3371,871,1019
3372,865,1006
3373,863,984
3374,858,961
3375,853,933
3376,852,908
3377,851,885
3378,850,864
3379,853,841
3380,854,822
3381,851,806
3382,849,804
3383,850,803
3384,851,805
3385,853,800
3386,853,793
3387,851,790
3388,851,793
3389,849,794
3390,852,794
3391,854,791
3392,854,785
3393,849,784
3394,846,782
3395,847,789
3396,849,787
3397,854,781
3398,855,780
3399,848,777
3400,849,781
3401,852,785
3402,854,785
3403,856,782
3404,860,777
3405,858,778
3406,858,782
3407,860,786
3408,863,785
3409,864,781
3410,864,780
3411,865,779
3412,863,783
3413,862,786
3414,863,787
3415,867,786
3416,870,784
3417,868,784
3418,866,790
3419,869,796
3420,873,794
3421,879,797
3422,881,795
3423,877,796
3424,878,799
3425,881,805
3426,884,804
3427,888,806
3428,891,807
3429,892,810
3430,890,815
3431,891,816
3432,895,817
3433,900,819
3434,900,825
3435,901,824
3436,900,829
3437,903,832
3438,904,830
3439,910,835
3440,909,838
3441,911,842
3442,911,844
3443,913,845
3444,916,848
3445,920,852
3446,922,856
3447,924,857
3448,924,862
3449,927,864
3450,929,866
3451,933,868
3452,933,872
3453,934,873
3454,932,876
3455,932,878
3456,937,880
3457,941,885
3458,942,886
3459,943,889
3460,944,890
3461,946,892
3462,950,896
3463,954,899
3464,956,905
3465,956,905
3466,958,908
3467,960,909
3468,965,913
3469,970,917
3470,972,921
3471,969,921
3472,968,917
3473,970,919
3474,972,925
3475,975,932
3476,979,932
3477,979,932
3478,979,928
3479,981,931
3480,983,937
3481,988,938
3482,987,938
3483,985,937
3484,984,932
3485,987,935
3486,989,943
3487,994,947
3488,992,947
3489,993,943
3490,991,945
3491,991,948
3492,994,956
3493,996,958
3494,998,957
3495,994,952
3496,992,953
3497,989,958
3498,991,966
3499,995,968
3500,994,968
3501,991,963
3502,990,969
3503,994,976
3504,995,985
3505,1001,985
3506,1001,983
3507,996,981
3508,994,982
3509,996,991
3510,997,994
3511,998,995
3512,997,994
3513,992,989
3514,992,991
3515,993,1000
3516,998,1003
3517,997,1004
3518,996,999
3519,996,996
3520,995,998
3521,994,1004
3522,997,1008
3523,1000,1006
3524,999,1002
3525,997,1000
3526,997,1002
3527,998,1007
3528,1000,1009
3529,1002,1006
3530,1002,1002
3531,1000,1001
3532,996,1003
3533,995,1009
3534,996,1010
3535,997,1009
3536,1000,1005
3537,996,1003
3538,993,1007
3539,995,1010
3540,995,1011
3541,1003,1009
3542,1001,1006
3543,998,1006
3544,997,1009
3545,998,1011
3546,1002,1013
3547,1003,1011
3548,1002,1008
3549,1000,1008
3550,998,1008
3551,999,1012
3552,998,1010
3553,1000,1008
3554,998,1007
3555,999,1008
3556,996,1010
3557,998,1011
3558,996,1011
3559,1001,1007
3560,1002,1010
3561,999,1011
3562,995,1014
3563,998,1011
3564,1001,1011
3565,1004,1010
3566,1004,1011
3567,1002,1011
3568,1001,1010
3569,1000,1014
3570,1002,1014
3571,1004,1012
3572,1000,1010
3573,1000,1011
3574,998,1013
3575,999,1011
3576,1002,1010
3577,1004,1012
3578,1005,1012
3579,1002,1012
3580,997,1013
3581,998,1012
3582,1001,1012
3583,1002,1012
3584,1004,1013
3585,1002,1014
3586,1002,1013
3587,1003,1009
3588,1004,1012
3589,1008,1013
3590,1007,1017
3591,1003,1014
3592,1000,1013
3593,997,1014
3594,1003,1013
3595,1004,1013
3596,1001,1014
3597,1004,1015
3598,999,1014
3599,1000,1013
3600,1003,1011
3601,1005,1013
3602,1005,1014
3603,1003,1016
3604,1002,1012
3605,1004,1011
3606,1006,1013
3607,1009,1013
3608,1008,1016
3609,1005,1014
3610,1003,1011
3611,1003,1011
3612,1005,1012
3613,1007,1014
3614,1005,1016
3615,1004,1014
3616,1000,1009
3617,1001,1009
3618,1005,1012
3619,1005,1015
3620,1003,1018
3621,1002,1013
3622,999,1010
3623,1001,1010
3624,1005,1013
3625,1009,1016
3626,1009,1017
3627,1004,1014
3628,1005,1009
3629,1005,1008
3630,1007,1011
3631,1009,1014
3632,1006,1015
3633,1003,1011
3634,1002,1010
3635,1002,1008
3636,1005,1013
3637,1007,1013
3638,1006,1014
3639,1003,1012
3640,1001,1008
3641,1002,1010
3642,1007,1010
3643,1004,1013
3644,1005,1015
3645,1007,1013
3646,1005,1009
3647,1006,1009
3648,1009,1011
3649,1010,1014
3650,1009,1015
3651,1005,1011
3652,1004,1008
3653,1005,1009
3654,1005,1013
3655,1006,1015
3656,1006,1015
3657,1004,1009
3658,1002,1006
3659,1003,1008
3660,1004,1012
3661,1008,1014
3662,1006,1015
3663,1007,1009
3664,1004,1004
3665,1005,1008
3666,1008,1012
3667,1009,1016
3668,1008,1014
3669,1007,1005
3670,1004,1006
3671,1006,1007
3672,1006,1011
3673,1008,1013
3674,1007,1012
3675,1004,1008
3676,1003,1004
3677,1002,1008
3678,1005,1010
3679,1006,1014
3680,1005,1012
3681,1002,1006
3682,1001,1004
3683,1000,1006
3684,1002,1012
3685,1006,1014
3686,1008,1012
3687,1005,1006
3688,1003,1004
3689,1003,1007
3690,1005,1010
3691,1006,1014
3692,1004,1010
3693,1003,1003
3694,1000,1003
3695,999,1007
3696,1004,1014
3697,1005,1013
3698,1000,1009
3699,1002,1004
3700,1000,1002
3701,1001,1009
3702,1002,1013
3703,1005,1013
3704,1004,1009
3705,1002,1004
3706,1002,1003
3707,1002,1010
3708,1005,1012
3709,1007,1014
3710,1005,1009
3711,1003,1004
3712,1002,1003
3713,1000,1008
3714,1002,1014
3715,1006,1011
3716,1006,1009
3717,1002,1004
3718,1001,1003
3719,1003,1011
3720,1001,1014
3721,1005,1012
3722,1004,1005
3723,1001,1004
3724,1001,1006
3725,1002,1010
3726,1006,1011
3727,1006,1011
3728,1006,1007
3729,1003,1005
3730,1002,1007
3731,1001,1013
3732,1005,1014
3733,1004,1010
3734,1004,1003
3735,1002,1006
3736,1002,1009
3737,1001,1009
3738,1001,1012
3739,1003,1010
3740,1005,1007
3741,1003,1005
3742,1003,1009
3743,1003,1011
3744,1005,1011
3745,1007,1009
3746,1007,1005
3747,1004,1007
3748,1002,1007
3749,1003,1010
3750,1003,1011
3751,1004,1008
3752,1005,1007
3753,999,1008
3754,998,1007
3755,1000,1010
3756,999,1008
3757,1002,1009
3758,1003,1008
3759,1001,1009
3760,999,1007
3761,1001,1006
3762,1001,1008
3763,1005,1009
3764,1005,1009
3765,1003,1010
3766,999,1008
3767,1002,1007
3768,1002,1008
3769,1004,1012
3770,1002,1011
3771,1000,1010
3772,999,1007
3773,997,1006
3774,1000,1009
3775,1006,1012
3776,1003,1012
3777,1001,1008
3778,999,1007
3779,1000,1007
3780,1004,1010
3781,1004,1015
3782,1004,1011
3783,1002,1009
3784,1001,1005
3785,1001,1009
3786,1005,1011
3787,1006,1014
3788,1003,1012
3789,999,1010
3790,998,1005
3791,999,1008
3792,1005,1013
3793,1004,1014
3794,1003,1014
3795,1000,1007
3796,1000,1006
3797,1002,1012
3798,1004,1015
3799,1003,1014
3800,1001,1012
3801,1002,1005
3802,1002,1008
3803,1003,1011
3804,1007,1017
3805,1008,1012
3806,1005,1010
3807,1002,1006
3808,1001,1011
3809,1003,1016
3810,1003,1016
3811,1004,1015
3812,1003,1010
3813,1002,1008
3814,999,1008
3815,1001,1015
3816,1004,1015
3817,1005,1014
3818,1004,1009
3819,1002,1008
3820,998,1011
3821,1002,1014
3822,1004,1015
3823,1008,1011
3824,1006,1011
3825,1004,1009
3826,1002,1013
3827,1001,1016
3828,1004,1014
3829,1005,1011
3830,1004,1011
3831,1004,1012
3832,1001,1011
3833,1000,1013
3834,1002,1013
3835,1006,1013
3836,1004,1013
3837,1001,1015
3838,1000,1013
3839,1003,1011
3840,1005,1012
3841,1005,1010
3842,999,1004
3843,994,998
3844,992,990
3845,994,984
3846,996,977
3847,1003,974
3848,1014,973
3849,1034,969
3850,1058,967
3851,1081,973
3852,1097,976
3853,1102,980
3854,1109,990
3855,1128,1016
3856,1156,1073
3857,1177,1153
3858,1181,1203
3859,1174,1221
3860,1156,1222
3861,1141,1229
3862,1116,1238
3863,1084,1246
3864,1042,1234
3865,1008,1205
3866,993,1175
3867,984,1159
3868,979,1158
3869,970,1154
3870,962,1159
3871,966,1166
3872,978,1182
3873,984,1188
3874,993,1189
3875,1005,1190
3876,1013,1190
3877,1015,1181
3878,1009,1156
3879,998,1126
3880,989,1093
3881,985,1070
3882,985,1056
3883,988,1043
3884,990,1031
3885,986,1021
3886,986,1016
3887,985,1015
3888,989,1019
3889,991,1017
3890,989,1012
3891,989,1005
3892,987,1005
3893,990,1009
3894,990,1014
3895,992,1010
3896,991,1008
3897,988,1003
3898,989,1004
3899,989,1010
3900,987,1014
3901,992,1010
3902,990,1005
3903,990,1002
3904,988,1005
3905,988,1007
3906,990,1010
3907,992,1005
3908,992,1004
3909,990,1002
3910,988,1005
3911,991,1008
3912,994,1010
3913,995,1006
3914,995,1005
3915,994,1005
3916,992,1008
3917,991,1009
3918,994,1008
3919,995,1007
3920,995,1006
3921,995,1008
3922,994,1010
3923,994,1012
3924,1000,1012
3925,1000,1010
3926,1000,1010
3927,998,1011
3928,997,1011
3929,1000,1014
3930,1004,1012
3931,1007,1012
3932,1007,1016
3933,1006,1016
3934,1006,1015
3935,1008,1020
3936,1007,1018
3937,1012,1021
3938,1010,1023
3939,1006,1024
3940,1006,1021
3941,1008,1023
3942,1012,1027
3943,1014,1027
3944,1015,1029
3945,1013,1029
3946,1013,1028
3947,1014,1029
3948,1019,1034
3949,1019,1036
3950,1020,1037
3951,1023,1037
3952,1019,1037
3953,1020,1036
3954,1025,1039
3955,1028,1046
3956,1028,1045
3957,1023,1045
3958,1021,1042
3959,1025,1043
3960,1027,1048
3961,1030,1049
3962,1029,1052
3963,1027,1049
3964,1026,1049
3965,1029,1049
3966,1032,1055
3967,1033,1056
3968,1036,1057
3969,1036,1055
3970,1033,1052
3971,1036,1056
3972,1037,1059
3973,1040,1064
3974,1040,1061
3975,1038,1058
3976,1036,1057
3977,1037,1060
3978,1040,1066
3979,1041,1070
3980,1043,1066
3981,1039,1062
3982,1038,1063
3983,1042,1068
3984,1041,1073
3985,1045,1074
3986,1044,1071
3987,1042,1067
3988,1043,1066
3989,1043,1072
3990,1044,1077
3991,1048,1077
3992,1047,1073
3993,1044,1072
3994,1045,1072
3995,1044,1077
3996,1045,1084
3997,1047,1085
3998,1045,1080
3999,1042,1076
4000,1041,1079
4001,1042,1082
4002,1045,1089
4003,1045,1089
4004,1046,1087
4005,1042,1082
4006,1040,1084
4007,1041,1090
4008,1043,1098
4009,1044,1096
4010,1046,1095
4011,1044,1091
4012,1042,1096
4013,1041,1100
4014,1041,1107
4015,1044,1103
4016,1041,1100
4017,1039,1098
4018,1038,1099
4019,1038,1107
4020,1042,1110
4021,1042,1108
4022,1040,1102
4023,1037,1103
4024,1039,1104
4025,1040,1108
4026,1043,1111
4027,1045,1108
4028,1045,1103
4029,1044,1104
4030,1044,1108
4031,1046,1110
4032,1048,1113
4033,1049,1110
4034,1047,1108
4035,1046,1104
4036,1046,1106
4037,1045,1112
4038,1048,1115
4039,1051,1111
4040,1052,1106
4041,1051,1107
4042,1048,1107
4043,1050,1113
4044,1055,1117
4045,1057,1112
4046,1057,1110
4047,1058,1109
4048,1057,1111
4049,1058,1114
4050,1065,1118
4051,1065,1116
4052,1064,1111
4053,1062,1111
4054,1063,1116
4055,1068,1117
4056,1072,1119
4057,1072,1119
4058,1071,1113
4059,1073,1111
4060,1071,1114
4061,1072,1114
4062,1068,1113
4063,1066,1107
4064,1061,1100
4065,1056,1097
4066,1055,1097
4067,1056,1099
4068,1052,1094
4069,1055,1087
4070,1051,1078
4071,1047,1079
4072,1045,1079
4073,1044,1081
4074,1043,1080
4075,1037,1075
4076,1031,1071
4077,1027,1070
4078,1024,1073
4079,1020,1073
4080,1017,1074
4081,1003,1070
4082,979,1067
4083,960,1072
4084,947,1085
4085,933,1100
4086,915,1106
4087,893,1104
4088,870,1087
4089,851,1076
4090,839,1065
4091,828,1058
4092,825,1052
4093,822,1042
4094,826,1036
4095,826,1041
4096,834,1048
4097,848,1059
4098,861,1067
4099,870,1068
4100,873,1066
4101,877,1066
4102,877,1068
4103,877,1065
4104,876,1061
4105,877,1050
4106,872,1036
4107,867,1020
4108,863,1006
4109,862,986
4110,864,960
4111,863,927
4112,861,895
4113,858,870
4114,860,858
4115,863,851
4116,865,846
4117,863,838
4118,862,831
4119,859,827
4120,858,825
4121,857,830
4122,858,829
4123,862,826
4124,861,821
4125,860,818
4126,858,816
4127,861,820
4128,862,823
4129,862,821
4130,862,817
4131,860,811
4132,856,811
4133,860,816
4134,864,819
4135,864,819
4136,865,812
4137,864,808
4138,860,808
4139,861,814
4140,865,817
4141,869,816
4142,868,812
4143,866,808
4144,865,807
4145,868,814
4146,874,819
4147,873,818
4148,876,815
4149,875,813
4150,875,814
4151,880,819
4152,882,824
4153,885,824
4154,886,822
4155,887,818
4156,883,819
4157,887,826
4158,887,834
4159,890,834
4160,890,831
4161,887,829
4162,891,830
4163,892,834
4164,896,843
4165,896,845
4166,899,843
4167,901,841
4168,900,841
4169,901,847
4170,903,854
4171,908,859
4172,909,855
4173,908,855
4174,907,855
4175,912,860
4176,916,866
4177,921,870
4178,923,870
4179,917,868
4180,919,869
4181,919,870
4182,922,878
4183,925,882
4184,927,883
4185,926,884
4186,927,885
4187,930,886
4188,931,893
4189,937,894
4190,937,900
4191,939,899
4192,937,898
4193,941,902
4194,944,908
4195,948,910
4196,949,914
4197,950,914
4198,949,915
4199,953,917
4200,958,921
4201,959,925
4202,959,929
4203,958,928
4204,959,929
4205,963,931
4206,965,936
4207,970,939
4208,968,942
4209,967,944
4210,969,944
4211,972,944
4212,975,950
4213,976,953
4214,977,956
4215,976,955
4216,978,953
4217,980,954
4218,988,959
4219,987,963
4220,992,965
4221,993,964
4222,993,962
4223,994,963
4224,997,967
4225,997,968
4226,995,969
4227,992,970
4228,991,970
4229,994,972
4230,997,974
4231,999,976
4232,998,978
4233,999,978
4234,997,980
4235,998,982
4236,1000,982
4237,1004,983
4238,1001,982
4239,1000,987
4240,998,986
4241,1000,989
4242,1001,991
4243,1002,989
4244,999,994
4245,996,994
4246,996,1001
4247,997,1003
4248,999,1006
4249,999,1007
4250,1002,1007
4251,998,1007
4252,998,1014
4253,996,1018
4254,999,1021
4255,1001,1018
4256,999,1016
4257,998,1018
4258,999,1021
4259,999,1027
4260,1003,1026
4261,1003,1028
4262,1003,1023
4263,1002,1025
4264,998,1029
4265,998,1032
4266,1002,1035
4267,1003,1031
4268,1001,1028
4269,999,1029
4270,998,1032
4271,998,1037
4272,1002,1038
4273,1002,1033
4274,1001,1031
4275,999,1031
4276,998,1034
4277,1000,1040
4278,1000,1040
4279,1002,1038
4280,1002,1033
4281,1001,1032
4282,1001,1030
4283,1002,1037
4284,1003,1042
4285,1003,1039
4286,1003,1034
4287,1001,1033
4288,1000,1032
4289,1000,1037
4290,1001,1040
4291,1002,1039
4292,1001,1037
4293,998,1034
4294,997,1034
4295,1002,1036
4296,1001,1045
4297,1002,1042
4298,999,1039
4299,1000,1034
4300,1000,1033
4301,1001,1036
4302,1003,1041
4303,1005,1040
4304,1002,1039
4305,1004,1036
4306,1004,1034
4307,1004,1037
4308,1007,1044
4309,1005,1042
4310,1006,1040
4311,1003,1038
4312,1000,1033
4313,1001,1038
4314,1005,1042
4315,1002,1043
4316,1004,1042
4317,1004,1038
4318,1001,1034
4319,1002,1039
4320,1004,1041
4321,1005,1043
4322,1004,1042
4323,1006,1037
4324,1004,1035
4325,1006,1036
4326,1006,1038
4327,1010,1041
4328,1009,1042
4329,1006,1039
4330,1003,1040
4331,1006,1036
4332,1006,1038
4333,1007,1040
4334,1006,1040
4335,1002,1040
4336,1003,1037
4337,1004,1039
4338,1005,1038
4339,1005,1038
4340,1009,1039
4341,1006,1038
4342,1005,1037
4343,1005,1037
4344,1006,1039
4345,1009,1039
4346,1008,1039
4347,1008,1039
4348,1007,1038
4349,1007,1037
4350,1009,1036
4351,1010,1039
4352,1009,1037
4353,1007,1039
4354,1005,1040
4355,1005,1039
4356,1008,1038
4357,1008,1037
4358,1007,1038
4359,1007,1037
4360,1005,1038
4361,1005,1043
4362,1007,1040
4363,1009,1038
4364,1008,1036
4365,1006,1035
4366,1006,1037
4367,1005,1042
4368,1009,1043
4369,1010,1038
4370,1009,1035
4371,1007,1033
4372,1007,1035
4373,1007,1039
4374,1010,1043
4375,1010,1039
4376,1006,1034
4377,1004,1031
4378,1005,1036
4379,1008,1037
4380,1009,1041
4381,1007,1041
4382,1006,1036
4383,1006,1032
4384,1006,1034
4385,1007,1039
4386,1010,1044
4387,1010,1040
4388,1009,1038
4389,1006,1033
4390,1006,1033
4391,1009,1039
4392,1011,1042
4393,1011,1042
4394,1010,1038
4395,1006,1035
4396,1004,1033
4397,1008,1035
4398,1009,1041
4399,1010,1040
4400,1008,1039
4401,1005,1032
4402,1005,1033
4403,1006,1033
4404,1005,1038
4405,1007,1041
4406,1008,1038
4407,1006,1034
4408,1003,1032
4409,1006,1033
4410,1008,1035
4411,1009,1037
4412,1008,1039
4413,1009,1034
4414,1007,1031
4415,1007,1033
4416,1010,1035
4417,1010,1037
4418,1010,1039
4419,1008,1033
4420,1005,1033
4421,1006,1032
4422,1007,1033
4423,1008,1036
4424,1008,1035
4425,1004,1034
4426,1003,1032
4427,1007,1030
4428,1008,1032
4429,1009,1034
4430,1008,1034
4431,1001,1034
4432,1004,1034
4433,1007,1032
4434,1010,1032
4435,1011,1033
4436,1010,1034
4437,1007,1032
4438,1007,1035
4439,1008,1035
4440,1011,1034
4441,1010,1035
4442,1010,1033
4443,1005,1031
4444,1006,1034
4445,1008,1033
4446,1008,1034
4447,1010,1030
4448,1008,1030
4449,1005,1031
4450,1006,1035
4451,1006,1034
4452,1008,1036
4453,1008,1033
4454,1008,1029
4455,1007,1031
4456,1005,1032
4457,1003,1036
4458,1011,1034
4459,1012,1032
4460,1010,1029
4461,1007,1031
4462,1007,1033
4463,1009,1035
4464,1009,1032
4465,1011,1030
4466,1005,1028
4467,1005,1031
4468,1004,1030
4469,1005,1035
4470,1010,1034
4471,1010,1033
4472,1007,1028
4473,1008,1029
4474,1005,1030
4475,1006,1033
4476,1011,1038
4477,1011,1034
4478,1010,1031
4479,1009,1026
4480,1006,1029
4481,1009,1035
4482,1011,1038
4483,1010,1035
4484,1009,1030
4485,1005,1026
4486,1003,1029
4487,1006,1034
4488,1007,1037
4489,1008,1036
4490,1007,1032
4491,1005,1027
4492,1005,1030
4493,1007,1035
4494,1007,1039
4495,1008,1037
4496,1004,1031
4497,1005,1026
4498,1005,1027
4499,1006,1033
4500,1008,1037
4501,1009,1034
4502,1010,1031
4503,1005,1027
4504,1004,1030
4505,1006,1032
4506,1008,1036
4507,1007,1034
4508,1006,1032
4509,1006,1027
4510,1005,1029
4511,1006,1031
4512,1008,1037
4513,1005,1038
4514,1007,1031
4515,1005,1026
4516,1005,1027
4517,1006,1031
4518,1009,1037
4519,1011,1036
4520,1009,1031
4521,1006,1029
4522,1007,1026
4523,1009,1030
4524,1010,1034
4525,1010,1037
4526,1010,1032
4527,1007,1025
4528,1006,1025
4529,1004,1030
4530,1008,1034
4531,1008,1034
4532,1006,1031
4533,1002,1030
4534,1005,1027
4535,1007,1029
4536,1009,1032
4537,1012,1036
4538,1011,1034
4539,1008,1028
4540,1008,1029
4541,1009,1029
4542,1012,1033
4543,1014,1034
4544,1012,1032
4545,1006,1028
4546,1007,1027
4547,1008,1028
4548,1010,1033
4549,1011,1035
4550,1009,1033
4551,1007,1028
4552,1007,1028
4553,1008,1029
4554,1010,1033
4555,1012,1033
4556,1008,1032
4557,1006,1029
4558,1007,1029
4559,1009,1030
4560,1009,1034
4561,1011,1033
4562,1011,1034
4563,1012,1030
4564,1007,1029
4565,1010,1029
4566,1012,1032
4567,1011,1034
4568,1008,1034
4569,1007,1030
4570,1006,1029
4571,1009,1029
4572,1009,1035
4573,1010,1036
4574,1008,1034
4575,1004,1032
4576,1005,1029
4577,1008,1029
4578,1010,1033
4579,1009,1035
4580,1008,1034
4581,1009,1031
4582,1009,1027
4583,1011,1029
4584,1010,1032
4585,1012,1035
4586,1011,1033
4587,1009,1031
4588,1007,1028
4589,1007,1031
4590,1012,1035
4591,1010,1036
4592,1007,1033
4593,1008,1030
4594,1007,1028
4595,1008,1029
4596,1011,1034
4597,1011,1035
4598,1012,1036
4599,1008,1030
4600,1006,1032
4601,1009,1032
4602,1012,1034
4603,1013,1037
4604,1013,1035
4605,1010,1029
4606,1010,1030
4607,1012,1032
4608,1017,1033
4609,1015,1037
4610,1013,1035
4611,1009,1033
4612,1006,1032
4613,1010,1032
4614,1014,1035
4615,1013,1037
4616,1013,1036
4617,1009,1034
4618,1010,1029
4619,1009,1027
4620,1005,1026
4621,1004,1023
4622,1002,1017
4623,1001,1007
4624,1004,1000
4625,1009,994
4626,1022,992
4627,1038,991
4628,1056,993
4629,1075,994
4630,1090,992
4631,1103,995
4632,1109,999
4633,1113,1009
4634,1132,1029
4635,1158,1070
4636,1178,1132
4637,1188,1188
4638,1185,1220
4639,1173,1232
4640,1160,1236
4641,1146,1239
4642,1134,1247
4643,1117,1252
4644,1093,1255
4645,1059,1253
4646,1028,1237
4647,1012,1214
4648,1003,1194
4649,997,1180
4650,994,1173
4651,990,1173
4652,984,1172
4653,974,1165
4654,969,1167
4655,974,1175
4656,983,1185
4657,992,1195
4658,997,1199
4659,1002,1200
4660,1009,1202
4661,1018,1201
4662,1024,1201
4663,1023,1192
4664,1014,1175
4665,1009,1155
4666,1002,1131
4667,1002,1105
4668,1000,1086
4669,999,1067
4670,998,1054
4671,998,1048
4672,990,1040
4673,994,1035
4674,998,1033
4675,996,1033
4676,997,1030
4677,992,1027
4678,994,1026
4679,995,1025
4680,996,1024
4681,997,1027
4682,996,1026
4683,994,1025
4684,993,1024
4685,995,1022
4686,996,1023
4687,997,1023
4688,998,1024
4689,995,1022
4690,997,1021
4691,998,1021
4692,999,1021
4693,999,1023
4694,999,1022
4695,994,1020
4696,993,1023
4697,997,1022
4698,997,1021
4699,999,1021
4700,998,1023
4701,995,1021
4702,994,1024
4703,999,1021
4704,1001,1022
4705,1003,1023
4706,1003,1023
4707,997,1022
4708,998,1021
4709,1003,1022
4710,1005,1021
4711,1006,1024
4712,1006,1024
4713,1005,1023
4714,1005,1024
4715,1004,1024
4716,1008,1024
4717,1007,1025
4718,1008,1024
4719,1007,1024
4720,1005,1028
4721,1009,1029
4722,1012,1029
4723,1010,1027
4724,1011,1029
4725,1009,1030
4726,1011,1030
4727,1012,1031
4728,1019,1034
4729,1017,1031
4730,1018,1031
4731,1016,1033
4732,1019,1034
4733,1021,1036
4734,1021,1036
4735,1021,1036
4736,1021,1038
4737,1021,1038
4738,1022,1041
4739,1023,1042
4740,1026,1044
4741,1027,1044
4742,1028,1044
4743,1025,1045
4744,1024,1050
4745,1028,1050
4746,1028,1051
4747,1033,1048
4748,1032,1051
4749,1034,1051
4750,1033,1056
4751,1035,1055
4752,1038,1054
4753,1037,1057
4754,1037,1055
4755,1035,1057
4756,1035,1060
4757,1037,1063
4758,1038,1063
4759,1040,1060
4760,1036,1060
4761,1041,1061
4762,1037,1064
4763,1042,1069
4764,1044,1067
4765,1045,1065
4766,1045,1061
4767,1041,1063
4768,1043,1069
4769,1046,1073
4770,1049,1074
4771,1051,1071
4772,1051,1070
4773,1051,1068
4774,1050,1072
4775,1051,1076
4776,1051,1077
4777,1050,1075
4778,1048,1074
4779,1048,1075
4780,1047,1078
4781,1051,1081
4782,1053,1082
4783,1053,1079
4784,1051,1078
4785,1051,1077
4786,1050,1080
4787,1050,1086
4788,1052,1085
4789,1054,1083
4790,1052,1082
4791,1048,1082
4792,1051,1087
4793,1052,1091
4794,1055,1090
4795,1052,1089
4796,1052,1086
4797,1050,1087
4798,1049,1093
4799,1048,1093
4800,1049,1097
4801,1050,1094
4802,1048,1092
4803,1044,1092
4804,1041,1097
4805,1043,1103
4806,1043,1103
4807,1047,1101
4808,1044,1098
4809,1044,1098
4810,1045,1106
4811,1046,1108
4812,1050,1109
4813,1051,1106
4814,1049,1102
4815,1046,1103
4816,1042,1106
4817,1044,1111
4818,1048,1112
4819,1048,1111
4820,1045,1105
4821,1045,1104
4822,1045,1108
4823,1046,1114
4824,1048,1114
4825,1048,1110
4826,1048,1108
4827,1043,1104
4828,1045,1107
4829,1049,1112
4830,1054,1114
4831,1053,1111
4832,1052,1108
4833,1053,1103
4834,1051,1106
4835,1057,1112
4836,1058,1117
4837,1061,1113
4838,1060,1107
4839,1061,1104
4840,1060,1108
4841,1062,1113
4842,1063,1117
4843,1059,1113
4844,1061,1109
4845,1062,1104
4846,1064,1106
4847,1064,1112
4848,1067,1115
4849,1067,1118
4850,1068,1110
4851,1067,1109
4852,1067,1109
4853,1072,1112
4854,1074,1118
4855,1076,1118
4856,1077,1114
4857,1075,1108
4858,1074,1109
4859,1073,1111
4860,1072,1113
4861,1069,1109
4862,1064,1101
4863,1058,1096
4864,1057,1094
4865,1055,1095
4866,1054,1092
4867,1052,1086
4868,1050,1078
4869,1045,1072
4870,1044,1073
4871,1040,1077
4872,1036,1076
4873,1034,1074
4874,1032,1068
4875,1028,1064
4876,1029,1065
4877,1028,1070
4878,1021,1072
4879,1004,1073
4880,982,1072
4881,967,1078
4882,949,1093
4883,935,1104
4884,923,1115
4885,900,1115
4886,878,1104
4887,858,1087
4888,842,1077
4889,832,1069
4890,830,1063
4891,829,1056
4892,834,1050
4893,839,1049
4894,845,1052
4895,860,1056
4896,872,1065
4897,882,1067
4898,884,1065
4899,884,1059
4900,884,1061
4901,886,1060
4902,882,1058
4903,879,1045
4904,871,1025
4905,864,1008
4906,862,991
4907,863,973
4908,862,952
4909,860,925
4910,859,895
4911,856,872
4912,856,859
4913,858,850
4914,862,849
4915,863,840
4916,861,835
4917,860,829
4918,860,828
4919,861,830
4920,858,834
4921,859,832
4922,858,823
4923,856,818
4924,854,821
4925,856,823
4926,860,822
4927,860,820
4928,860,816
4929,859,810
4930,859,814
4931,861,818
4932,863,820
4933,864,814
4934,864,811
4935,863,809
4936,865,815
4937,865,816
4938,868,818
4939,870,814
4940,867,809
4941,865,811
4942,864,813
4943,868,818
4944,869,819
4945,872,815
4946,872,813
4947,872,814
4948,870,819
4949,876,823
4950,879,825
4951,880,824
4952,881,821
4953,881,825
4954,880,830
4955,886,833
4956,890,832
4957,890,831
4958,891,830
4959,890,835
4960,889,838
4961,893,843
4962,896,845
4963,899,843
4964,901,843
4965,897,847
4966,899,854
4967,903,855
4968,907,858
4969,908,859
4970,910,860
4971,908,864
4972,910,868
4973,913,871
4974,916,872
4975,919,872
4976,920,875
4977,920,878
4978,921,879
4979,925,881
4980,929,883
4981,931,886
4982,931,888
4983,927,892
4984,928,894
4985,933,895
4986,937,896
4987,938,899
4988,939,904
4989,940,906
4990,940,908
4991,944,907
4992,951,914
4993,951,918
4994,954,919
4995,954,921
4996,954,922
4997,958,926
4998,962,931
4999,965,934
5000,965,935
5001,963,933
5002,966,935
5003,968,939
5004,970,945
5005,970,948
5006,967,947
5007,967,945
5008,971,947
5009,973,953
5010,978,956
5011,980,958
5012,983,955
5013,984,956
5014,987,953
5015,988,959
5016,993,964
5017,994,966
5018,992,965
5019,989,961
5020,987,964
5021,988,967
5022,992,974
5023,993,975
5024,994,974
5025,992,972
5026,989,975
5027,995,977
5028,997,984
5029,997,986
5030,995,983
5031,993,982
5032,992,982
5033,994,988
5034,997,992
5035,999,998
5036,997,995
5037,997,995
5038,994,998
5039,997,1004
5040,999,1011
5041,998,1014
5042,995,1011
5043,992,1010
5044,991,1009
5045,995,1017
5046,996,1021
5047,998,1022
5048,995,1019
5049,994,1016
5050,995,1019
5051,997,1026
5052,1000,1029
5053,1001,1029
5054,1001,1022
5055,998,1020
5056,999,1024
5057,1001,1027
5058,1001,1030
5059,1001,1031
5060,997,1025
5061,992,1024
5062,993,1028
5063,992,1030
5064,996,1034
5065,999,1034
5066,996,1029
5067,995,1026
5068,994,1028
5069,998,1032
5070,999,1038
5071,1000,1035
5072,997,1031
5073,997,1027
5074,997,1029
5075,1000,1033
5076,1001,1037
5077,1004,1034
5078,999,1030
5079,999,1028
5080,997,1031
5081,1001,1035
5082,1002,1039
5083,1000,1037
5084,1001,1028
5085,995,1031
5086,996,1032
5087,1001,1037
5088,1003,1041
5089,1001,1038
5090,1000,1033
5091,999,1030
5092,999,1032
5093,1001,1039
5094,1002,1041
5095,1001,1038
5096,1000,1032
5097,1003,1031
5098,1000,1033
5099,1001,1038
5100,1004,1041
5101,1004,1037
5102,1000,1033
5103,999,1031
5104,998,1032
5105,1000,1036
5106,999,1040
5107,1005,1039
5108,1004,1035
5109,1002,1030
5110,1000,1032
5111,1003,1038
5112,1006,1040
5113,1006,1040
5114,1004,1034
5115,1004,1033
5116,1002,1033
5117,1006,1035
5118,1008,1041
5119,1007,1040
5120,1005,1036
5121,1002,1032
5122,1002,1034
5123,1004,1039
5124,1006,1040
5125,1006,1042
5126,1003,1038
5127,1005,1032
5128,1003,1035
5129,1004,1037
5130,1005,1041
5131,1007,1042
5132,1004,1038
5133,1005,1034
5134,1002,1034
5135,1006,1037
5136,1008,1039
5137,1009,1043
5138,1004,1039
5139,1004,1034
5140,1000,1030
5141,1004,1035
5142,1008,1041
5143,1007,1043
5144,1005,1039
5145,1003,1035
5146,1001,1033
5147,1004,1034
5148,1008,1040
5149,1008,1039
5150,1007,1038
5151,1005,1035
5152,1005,1031
5153,1006,1032
5154,1009,1039
5155,1008,1038
5156,1003,1039
5157,1006,1034
5158,1006,1032
5159,1009,1034
5160,1013,1039
5161,1013,1038
5162,1010,1037
5163,1009,1032
5164,1006,1031
5165,1008,1034
5166,1010,1036
5167,1007,1038
5168,1009,1037
5169,1005,1033
5170,1004,1031
5171,1005,1033
5172,1007,1034
5173,1010,1038
5174,1007,1035
5175,1006,1033
5176,1003,1030
5177,1006,1034
5178,1009,1037
5179,1011,1039
5180,1009,1035
5181,1008,1031
5182,1008,1030
5183,1008,1032
5184,1011,1035
5185,1009,1038
5186,1008,1035
5187,1005,1031
5188,1007,1029
5189,1008,1034
5190,1009,1034
5191,1010,1038
5192,1006,1035
5193,1008,1034
5194,1007,1030
5195,1008,1031
5196,1012,1035
5197,1010,1037
5198,1008,1035
5199,1007,1031
5200,1008,1030
5201,1008,1031
5202,1013,1031
5203,1013,1037
5204,1010,1034
5205,1008,1033
5206,1004,1030
5207,1008,1032
5208,1010,1034
5209,1009,1034
5210,1006,1032
5211,1005,1031
5212,1002,1029
5213,1005,1028
5214,1010,1032
5215,1011,1034
5216,1007,1033
5217,1006,1033
5218,1004,1031
5219,1009,1030
5220,1011,1034
5221,1011,1035
5222,1009,1032
5223,1009,1029
5224,1008,1029
5225,1007,1030
5226,1010,1034
5227,1010,1032
5228,1007,1032
5229,1004,1027
5230,1005,1026
5231,1006,1031
5232,1008,1035
5233,1008,1036
5234,1007,1030
5235,1006,1025
5236,1003,1026
5237,1006,1030
5238,1007,1035
5239,1009,1034
5240,1006,1028
5241,1006,1027
5242,1004,1025
5243,1007,1032
5244,1012,1032
5245,1011,1032
5246,1006,1030
5247,1007,1025
5248,1004,1026
5249,1007,1030
5250,1012,1033
5251,1010,1033
5252,1008,1029
5253,1006,1026
5254,1005,1027
5255,1009,1032
5256,1010,1034
5257,1010,1035
5258,1010,1029
5259,1007,1024
5260,1009,1025
5261,1010,1030
5262,1010,1033
5263,1013,1031
5264,1009,1027
5265,1009,1022
5266,1004,1027
5267,1007,1031
5268,1010,1032
5269,1008,1028
5270,1006,1025
5271,1006,1022
5272,1007,1026
5273,1007,1031
5274,1010,1031
5275,1009,1029
5276,1004,1025
5277,1007,1022
5278,1006,1027
5279,1009,1030
5280,1010,1034
5281,1011,1029
5282,1012,1024
5283,1011,1023
5284,1008,1025
5285,1012,1031
5286,1012,1029
5287,1010,1026
5288,1008,1022
5289,1007,1024
5290,1002,1029
5291,1008,1030
5292,1011,1032
5293,1008,1026
5294,1006,1025
5295,1008,1024
5296,1005,1029
5297,1006,1031
5298,1011,1029
5299,1011,1025
5300,1011,1022
5301,1010,1024
5302,1009,1029
5303,1012,1028
5304,1013,1031
5305,1012,1024
5306,1009,1025
5307,1009,1026
5308,1006,1028
5309,1009,1029
5310,1011,1026
5311,1012,1024
5312,1009,1022
5313,1007,1025
5314,1006,1028
5315,1009,1029
5316,1012,1027
5317,1011,1024
5318,1008,1022
5319,1010,1023
5320,1010,1028
5321,1012,1031
5322,1016,1028
5323,1014,1023
5324,1011,1023
5325,1010,1024
5326,1009,1027
5327,1011,1029
5328,1011,1028
5329,1012,1025
5330,1012,1024
5331,1006,1026
5332,1008,1027
5333,1010,1029
5334,1013,1028
5335,1014,1022
5336,1011,1023
5337,1011,1025
5338,1010,1028
5339,1011,1029
5340,1015,1028
5341,1015,1024
5342,1014,1024
5343,1014,1026
5344,1013,1027
5345,1014,1027
5346,1016,1026
5347,1013,1023
5348,1013,1023
5349,1009,1024
5350,1009,1028
5351,1010,1027
5352,1009,1025
5353,1010,1023
5354,1009,1022
5355,1009,1024
5356,1009,1027
5357,1010,1028
5358,1013,1024
5359,1013,1025
5360,1012,1022
5361,1007,1024
5362,1009,1025
5363,1012,1027
5364,1014,1022
5365,1014,1022
5366,1011,1022
5367,1009,1024
5368,1008,1027
5369,1007,1025
5370,1011,1024
5371,1012,1024
5372,1008,1023
5373,1006,1024
5374,1006,1026
5375,1011,1024
5376,1014,1023
5377,1012,1024
5378,1011,1022
5379,1011,1022
5380,1009,1025
5381,1011,1025
5382,1013,1024
5383,1015,1022
5384,1014,1022
5385,1013,1022
5386,1008,1027
5387,1010,1026
5388,1016,1023
5389,1013,1023
5390,1010,1018
5391,1008,1020
5392,1002,1017
5393,1001,1014
5394,1005,1006
5395,1007,998
5396,1006,990
5397,1006,988
5398,1014,985
5399,1037,984
5400,1060,984
5401,1081,979
5402,1094,981
5403,1101,981
5404,1106,987
5405,1119,998
5406,1143,1024
5407,1173,1077
5408,1185,1139
5409,1184,1188
5410,1175,1210
5411,1165,1219
5412,1156,1223
5413,1143,1234
5414,1121,1243
5415,1094,1246
5416,1059,1243
5417,1029,1225
5418,1012,1207
5419,1004,1187
5420,996,1171
5421,992,1165
5422,986,1164
5423,981,1162
5424,977,1158
5425,974,1158
5426,977,1167
5427,981,1178
5428,985,1187
5429,996,1192
5430,1006,1193
5431,1015,1194
5432,1020,1192
5433,1019,1187
5434,1015,1173
5435,1011,1149
5436,1005,1127
5437,1002,1100
5438,998,1076
5439,993,1058
5440,992,1050
5441,1000,1038
5442,1002,1032
5443,1004,1027
5444,1000,1026
5445,998,1024
5446,995,1022
5447,998,1019
5448,1001,1017
5449,999,1018
5450,995,1019
5451,995,1017
5452,996,1018
5453,997,1015
5454,999,1014
5455,999,1016
5456,997,1015
5457,992,1014
5458,992,1012
5459,997,1012
5460,998,1014
5461,1000,1012
5462,999,1013
5463,999,1012
5464,995,1013
5465,999,1012
5466,1001,1012
5467,1000,1014
5468,1000,1014
5469,996,1010
5470,995,1013
5471,997,1012
5472,1000,1013
5473,1002,1014
5474,1002,1014
5475,998,1013
5476,996,1013
5477,1001,1012
5478,1005,1013
5479,1006,1016
5480,1004,1018
5481,1002,1014
5482,1002,1014
5483,1006,1016
5484,1009,1018
5485,1009,1019
5486,1006,1019
5487,1008,1015
5488,1007,1015
5489,1008,1014
5490,1011,1018
5491,1013,1020
5492,1012,1020
5493,1009,1020
5494,1009,1020
5495,1011,1020
5496,1016,1023
5497,1018,1026
5498,1013,1025
5499,1016,1024
5500,1015,1024
5501,1016,1025
5502,1021,1028
5503,1021,1032
5504,1022,1030
5505,1020,1028
5506,1020,1029
5507,1021,1031
5508,1025,1034
5509,1028,1038
5510,1024,1034
5511,1023,1038
5512,1022,1035
5513,1026,1038
5514,1029,1042
5515,1030,1044
5516,1028,1043
5517,1027,1041
5518,1030,1041
5519,1034,1046
5520,1036,1051
5521,1037,1051
5522,1034,1050
5523,1035,1047
5524,1036,1049
5525,1039,1054
5526,1044,1057
5527,1041,1057
5528,1042,1055
5529,1040,1052
5530,1039,1053
5531,1041,1060
5532,1044,1062
5533,1043,1063
5534,1043,1061
5535,1043,1055
5536,1041,1058
5537,1044,1062
5538,1047,1068
5539,1048,1067
5540,1043,1062
5541,1041,1061
5542,1044,1063
5543,1048,1069
5544,1052,1071
5545,1051,1071
5546,1051,1068
5547,1047,1063
5548,1045,1068
5549,1051,1073
5550,1049,1075
5551,1050,1073
5552,1048,1070
5553,1044,1066
5554,1046,1071
5555,1048,1076
5556,1049,1082
5557,1048,1078
5558,1046,1073
5559,1043,1075
5560,1044,1079
5561,1048,1084
5562,1048,1087
5563,1049,1085
5564,1048,1079
5565,1046,1080
5566,1046,1085
5567,1046,1091
5568,1049,1093
5569,1047,1089
5570,1044,1086
5571,1041,1087
5572,1039,1094
5573,1043,1097
5574,1047,1097
5575,1044,1094
5576,1043,1092
5577,1043,1092
5578,1042,1097
5579,1046,1102
5580,1048,1100
5581,1047,1098
5582,1046,1094
5583,1045,1098
5584,1045,1101
5585,1047,1105
5586,1049,1102
5587,1050,1099
5588,1048,1097
5589,1044,1099
5590,1044,1102
5591,1049,1102
5592,1050,1100
5593,1051,1099
5594,1051,1099
5595,1052,1100
5596,1051,1104
5597,1056,1103
5598,1058,1101
5599,1058,1103
5600,1059,1104
5601,1057,1106
5602,1057,1107
5603,1061,1105
5604,1064,1103
5605,1063,1107
5606,1065,1107
5607,1062,1109
5608,1064,1107
5609,1068,1108
5610,1070,1107
5611,1069,1109
5612,1067,1111
5613,1068,1110
5614,1068,1109
5615,1072,1111
5616,1076,1114
5617,1075,1114
5618,1076,1112
5619,1073,1109
5620,1069,1107
5621,1069,1104
5622,1068,1104
5623,1065,1103
5624,1061,1101
5625,1053,1092
5626,1052,1082
5627,1050,1077
5628,1052,1075
5629,1049,1076
5630,1040,1073
5631,1035,1067
5632,1031,1065
5633,1036,1068
5634,1039,1074
5635,1036,1075
5636,1032,1071
5637,1022,1070
5638,1006,1076
5639,990,1087
5640,977,1104
5641,961,1113
5642,945,1117
5643,923,1114
5644,899,1111
5645,881,1107
5646,867,1099
5647,855,1085
5648,849,1071
5649,851,1059
5650,853,1062
5651,858,1062
5652,866,1058
5653,875,1050
5654,884,1047
5655,890,1052
5656,896,1058
5657,901,1060
5658,902,1057
5659,896,1047
5660,889,1031
5661,883,1013
5662,875,993
5663,874,974
5664,872,943
5665,869,908
5666,864,880
5667,857,860
5668,858,849
5669,859,842
5670,860,829
5671,860,822
5672,859,818
5673,858,817
5674,858,816
5675,859,816
5676,863,815
5677,861,807
5678,859,807
5679,859,809
5680,858,811
5681,862,810
5682,865,808
5683,866,803
5684,861,800
5685,861,802
5686,861,806
5687,862,804
5688,864,802
5689,865,798
5690,864,797
5691,862,801
5692,864,801
5693,866,804
5694,869,800
5695,869,797
5696,869,801
5697,869,801
5698,869,804
5699,873,804
5700,878,803
5701,880,799
5702,878,802
5703,873,805
5704,872,807
5705,879,807
5706,881,807
5707,882,809
5708,882,810
5709,881,814
5710,879,815
5711,886,818
5712,888,817
5713,891,821
5714,892,821
5715,888,825
5716,890,827
5717,894,827
5718,897,829
5719,898,833
5720,898,835
5721,899,838
5722,899,837
5723,904,844
5724,909,844
5725,910,846
5726,904,849
5727,907,852
5728,908,853
5729,911,856
5730,915,858
5731,916,863
5732,917,864
5733,916,864
5734,921,866
5735,921,870
5736,928,873
5737,927,875
5738,926,880
5739,928,879
5740,932,881
5741,935,884
5742,941,888
5743,941,890
5744,938,893
5745,939,893
5746,940,891
5747,944,898
5748,948,902
5749,948,903
5750,949,905
5751,949,907
5752,949,910
5753,954,909
5754,959,915
5755,962,919
5756,961,920
5757,960,920
5758,961,921
5759,964,925
5760,968,929
5761,969,931
5762,966,932
5763,966,932
5764,971,936
5765,976,936
5766,981,940
5767,980,942
5768,980,941
5769,981,940
5770,981,944
5771,985,947
5772,987,948
5773,989,951
5774,986,949
5775,983,950
5776,983,950
5777,987,954
5778,992,960
5779,992,961
5780,995,962
5781,992,963
5782,991,962
5783,995,965
5784,997,969
5785,998,970
5786,993,970
5787,989,970
5788,990,971
5789,992,973
5790,995,979
5791,994,982
5792,993,984
5793,991,984
5794,993,989
5795,995,991
5796,999,996
5797,996,996
5798,994,1000
5799,992,998
5800,994,999
5801,996,1003
5802,1001,1008
5803,1002,1010
5804,999,1011
5805,998,1011
5806,999,1010
5807,1000,1013
5808,1000,1015
5809,999,1019
5810,999,1016
5811,996,1013
5812,998,1016
5813,1000,1018
5814,1001,1020
5815,1001,1021
5816,998,1022
5817,998,1018
5818,998,1018
5819,1000,1019
5820,1001,1023
5821,1006,1025
5822,1002,1021
5823,1003,1021
5824,1002,1019
5825,1006,1022
5826,1007,1024
5827,1007,1025
5828,1003,1023
5829,1001,1022
5830,999,1021
5831,1002,1023
5832,1006,1027
5833,1004,1028
5834,1000,1024
5835,997,1023
5836,1000,1022
5837,1002,1026
5838,1004,1029
5839,1002,1029
5840,1003,1024
5841,1001,1021
5842,1002,1021
5843,1004,1027
5844,1007,1031
5845,1007,1030
5846,1004,1026
5847,1000,1023
5848,1000,1023
5849,1004,1029
5850,1008,1028
5851,1003,1030
5852,1002,1025
5853,1000,1024
5854,1002,1026
5855,1004,1028
5856,1006,1030
5857,1005,1029
5858,1003,1026
5859,1003,1025
5860,1003,1025
5861,1005,1027
5862,1009,1028
5863,1008,1030
5864,1007,1028
5865,1006,1025
5866,1006,1025
5867,1007,1028
5868,1007,1032
5869,1007,1030
5870,1007,1027
5871,1005,1023
5872,1003,1025
5873,1005,1031
5874,1011,1030
5875,1008,1031
5876,1007,1027
5877,1006,1024
5878,1003,1024
5879,1006,1033
5880,1008,1033
5881,1009,1029
5882,1008,1026
5883,1005,1024
5884,1008,1027
5885,1010,1033
5886,1013,1035
5887,1010,1031
5888,1009,1023
5889,1007,1023
5890,1004,1026
5891,1004,1034
5892,1009,1035
5893,1007,1032
5894,1007,1026
5895,1004,1023
5896,1004,1029
5897,1008,1033
5898,1010,1033
5899,1009,1029
5900,1008,1025
5901,1005,1026
5902,1005,1030
5903,1008,1033
5904,1011,1034
5905,1010,1029
5906,1008,1026
5907,1006,1029
5908,1006,1032
5909,1009,1037
5910,1011,1032
5911,1009,1030
5912,1006,1026
5913,1006,1028
5914,1007,1033
5915,1009,1034
5916,1010,1033
5917,1010,1028
5918,1008,1027
5919,1006,1030
5920,1008,1033
5921,1009,1034
5922,1012,1029
5923,1011,1029
5924,1010,1027
5925,1008,1031
5926,1009,1032
5927,1009,1036
5928,1012,1030
5929,1010,1029
5930,1008,1027
5931,1006,1031
5932,1006,1033
5933,1010,1036
5934,1012,1030
5935,1012,1028
5936,1010,1025
5937,1008,1030
5938,1007,1033
5939,1009,1033
5940,1013,1029
5941,1013,1028
5942,1010,1029
5943,1005,1029
5944,1007,1033
5945,1010,1030
5946,1012,1029
5947,1010,1026
5948,1006,1028
5949,1006,1031
5950,1006,1030
5951,1008,1029
5952,1012,1026
5953,1010,1028
5954,1007,1029
5955,1003,1028
5956,1004,1028
5957,1006,1028
5958,1008,1027
5959,1009,1027
5960,1009,1027
5961,1006,1030
5962,1008,1028
5963,1010,1029
5964,1013,1027
5965,1009,1027
5966,1009,1030
5967,1006,1029
5968,1007,1029
5969,1007,1027
5970,1009,1029
5971,1007,1028
5972,1005,1029
5973,1004,1027
5974,1003,1025
5975,1009,1027
5976,1010,1026
5977,1009,1027
5978,1006,1025
5979,1005,1026
5980,1007,1027
5981,1008,1026
5982,1014,1026
5983,1010,1027
5984,1009,1027
5985,1005,1026
5986,1006,1027
5987,1007,1029
5988,1010,1030
5989,1009,1028
5990,1009,1027
5991,1006,1025
5992,1009,1024
5993,1009,1025
5994,1010,1027
5995,1011,1029
5996,1010,1028
5997,1005,1024
5998,1009,1026
5999,1010,1027
6000,1014,1029
6001,1013,1031
6002,1010,1028
6003,1009,1025
6004,1010,1026
6005,1013,1027
6006,1016,1030
6007,1012,1029
6008,1011,1028
6009,1004,1025
6010,1006,1023
6011,1010,1026
6012,1011,1032
6013,1011,1031
6014,1009,1027
6015,1005,1023
6016,1006,1026
6017,1007,1029
6018,1008,1032
6019,1010,1028
6020,1010,1021
6021,1008,1022
6022,1006,1028
6023,1011,1033
6024,1013,1030
6025,1011,1023
6026,1008,1023
6027,1003,1025
6028,1004,1028
6029,1008,1025
6030,1010,1025
6031,1009,1024
6032,1006,1027
6033,1005,1027
6034,1005,1024
6035,1007,1025
6036,1010,1028
6037,1011,1030
6038,1010,1027
6039,1008,1024
6040,1009,1023
6041,1011,1026
6042,1012,1029
6043,1013,1027
6044,1009,1023
6045,1008,1023
6046,1008,1024
6047,1009,1028
6048,1012,1029
6049,1010,1027
6050,1010,1024
6051,1008,1023
6052,1008,1022
6053,1010,1024
6054,1010,1027
6055,1011,1027
6056,1010,1021
6057,1009,1020
6058,1011,1021
6059,1012,1026
6060,1013,1029
6061,1015,1027
6062,1010,1023
6063,1007,1021
6064,1007,1024
6065,1010,1027
6066,1012,1027
6067,1010,1025
6068,1009,1021
6069,1006,1020
6070,1005,1022
6071,1008,1027
6072,1010,1027
6073,1013,1027
6074,1009,1021
6075,1008,1019
6076,1009,1023
6077,1013,1025
6078,1015,1029
6079,1015,1024
6080,1011,1022
6081,1011,1019
6082,1009,1020
6083,1013,1025
6084,1012,1028
6085,1007,1027
6086,1008,1020
6087,1007,1019
6088,1008,1020
6089,1012,1026
6090,1014,1029
6091,1009,1025
6092,1010,1021
6093,1009,1019
6094,1009,1023
6095,1010,1029
6096,1011,1029
6097,1012,1024
6098,1010,1021
6099,1009,1018
6100,1010,1024
6101,1012,1026
6102,1013,1028
6103,1013,1026
6104,1010,1019
6105,1008,1021
6106,1009,1024
6107,1011,1026
6108,1011,1031
6109,1011,1024
6110,1010,1021
6111,1007,1021
6112,1008,1024
6113,1012,1028
6114,1011,1029
6115,1012,1027
6116,1009,1023
6117,1009,1018
6118,1011,1023
6119,1014,1028
6120,1013,1030
6121,1014,1026
6122,1009,1021
6123,1009,1022
6124,1010,1023
6125,1012,1028
6126,1011,1028
6127,1010,1027
6128,1010,1022
6129,1008,1020
6130,1007,1022
6131,1011,1027
6132,1013,1030
6133,1015,1026
6134,1014,1022
6135,1013,1021
6136,1015,1024
6137,1016,1029
6138,1021,1029
6139,1017,1026
6140,1013,1022
6141,1010,1018
6142,1004,1020
6143,1002,1018
6144,1001,1011
6145,1002,1001
6146,1000,990
6147,1000,980
6148,1012,978
6149,1029,978
6150,1050,978
6151,1072,977
6152,1087,973
6153,1095,973
6154,1103,979
6155,1111,984
6156,1122,999
6157,1142,1023
6158,1165,1063
6159,1183,1118
6160,1187,1166
6161,1182,1196
6162,1175,1207
6163,1163,1212
6164,1151,1215
6165,1131,1223
6166,1109,1228
6167,1076,1231
6168,1041,1222
6169,1011,1204
6170,995,1178
6171,988,1160
6172,986,1153
6173,986,1158
6174,984,1158
6175,976,1158
6176,969,1153
6177,971,1158
6178,978,1173
6179,984,1183
6180,995,1188
6181,999,1187
6182,1010,1185
6183,1016,1178
6184,1020,1177
6185,1019,1170
6186,1014,1152
6187,1005,1128
6188,999,1099
6189,992,1075
6190,993,1059
6191,994,1050
6192,997,1041
6193,997,1031
6194,993,1025
6195,994,1021
6196,996,1020
6197,999,1023
6198,996,1023
6199,996,1019
6200,995,1012
6201,996,1011
6202,997,1013
6203,1000,1017
6204,1002,1017
6205,1001,1013
6206,998,1009
6207,992,1008
6208,996,1010
6209,998,1015
6210,1000,1014
6211,997,1013
6212,998,1006
6213,996,1005
6214,996,1009
6215,999,1013
6216,999,1012
6217,1000,1008
6218,997,1005
6219,998,1003
6220,1001,1007
6221,1003,1010
6222,1005,1010
6223,1004,1009
6224,1000,1007
6225,1001,1003
6226,1002,1006
6227,1005,1011
6228,1005,1014
6229,1004,1011
6230,1001,1007
6231,1003,1005
6232,1004,1007
6233,1007,1013
6234,1005,1015
6235,1007,1012
6236,1005,1009
6237,1006,1008
6238,1007,1010
6239,1011,1018
6240,1013,1016
6241,1014,1013
6242,1012,1012
6243,1013,1010
6244,1012,1013
6245,1018,1019
6246,1017,1021
6247,1018,1018
6248,1018,1015
6249,1015,1014
6250,1017,1018
6251,1018,1024
6252,1022,1025
6253,1022,1021
6254,1020,1018
6255,1020,1018
6256,1022,1025
6257,1025,1031
6258,1026,1030
6259,1029,1024
6260,1027,1024
6261,1028,1023
6262,1027,1031
6263,1029,1036
6264,1032,1034
6265,1031,1033
6266,1029,1032
6267,1027,1031
6268,1032,1037
6269,1031,1039
6270,1035,1042
6271,1037,1040
6272,1033,1036
6273,1035,1036
6274,1035,1040
6275,1037,1046
6276,1038,1046
6277,1042,1044
6278,1041,1041
6279,1039,1041
6280,1041,1047
6281,1044,1051
6282,1048,1053
6283,1045,1049
6284,1044,1046
6285,1044,1045
6286,1046,1054
6287,1048,1057
6288,1049,1057
6289,1046,1052
6290,1044,1051
6291,1045,1052
6292,1043,1057
6293,1045,1061
6294,1050,1061
6295,1051,1057
6296,1048,1055
6297,1049,1057
6298,1050,1061
6299,1050,1065
6300,1051,1066
6301,1052,1061
6302,1051,1058
6303,1053,1059
6304,1052,1062
6305,1054,1067
6306,1057,1069
6307,1055,1065
6308,1051,1062
6309,1049,1063
6310,1050,1068
6311,1051,1072
6312,1052,1072
6313,1052,1070
6314,1048,1066
6315,1047,1069
6316,1048,1073
6317,1049,1079
6318,1051,1077
6319,1050,1075
6320,1049,1073
6321,1047,1075
6322,1047,1081
6323,1047,1086
6324,1049,1084
6325,1049,1080
6326,1046,1079
6327,1044,1082
6328,1046,1088
6329,1046,1090
6330,1045,1090
6331,1045,1085
6332,1044,1084
6333,1043,1089
6334,1044,1092
6335,1044,1095
6336,1049,1093
6337,1048,1089
6338,1045,1085
6339,1044,1089
6340,1045,1092
6341,1048,1096
6342,1052,1094
6343,1052,1090
6344,1049,1085
6345,1049,1085
6346,1051,1091
6347,1050,1093
6348,1052,1094
6349,1050,1087
6350,1048,1087
6351,1050,1084
6352,1051,1091
6353,1053,1094
6354,1055,1094
6355,1058,1090
6356,1056,1084
6357,1056,1087
6358,1058,1093
6359,1061,1097
6360,1065,1092
6361,1064,1090
6362,1064,1088
6363,1063,1091
6364,1065,1095
6365,1068,1101
6366,1071,1097
6367,1071,1092
6368,1068,1090
6369,1065,1094
6370,1067,1096
6371,1072,1100
6372,1074,1098
6373,1076,1096
6374,1074,1095
6375,1076,1093
6376,1075,1096
6377,1079,1099
6378,1079,1092
6379,1076,1087
6380,1072,1082
6381,1066,1084
6382,1066,1087
6383,1063,1083
6384,1062,1074
6385,1062,1061
6386,1064,1055
6387,1066,1051
6388,1065,1056
6389,1061,1060
6390,1057,1055
6391,1051,1054
6392,1054,1054
6393,1052,1057
6394,1049,1064
6395,1044,1067
6396,1038,1066
6397,1024,1064
6398,1006,1067
6399,989,1077
6400,975,1086
6401,959,1095
6402,946,1094
6403,923,1086
6404,896,1078
6405,878,1071
6406,866,1068
6407,865,1062
6408,861,1057
6409,858,1053
6410,856,1047
6411,855,1043
6412,859,1044
6413,867,1045
6414,878,1043
6415,888,1041
6416,895,1042
6417,901,1044
6418,905,1051
6419,905,1051
6420,901,1042
6421,894,1031
6422,884,1017
6423,880,1005
6424,873,991
6425,870,978
6426,865,951
6427,861,919
6428,856,895
6429,857,874
6430,858,864
6431,860,852
6432,862,841
6433,860,830
6434,856,819
6435,854,818
6436,855,819
6437,857,822
6438,858,816
6439,857,812
6440,854,806
6441,853,808
6442,855,813
6443,857,811
6444,860,810
6445,858,806
6446,856,800
6447,855,802
6448,856,806
6449,861,809
6450,861,808
6451,859,803
6452,858,798
6453,859,797
6454,861,799
6455,863,806
6456,863,801
6457,863,800
6458,860,796
6459,860,796
6460,863,801
6461,865,805
6462,868,806
6463,868,801
6464,865,797
6465,867,798
6466,870,803
6467,870,808
6468,873,808
6469,872,807
6470,869,805
6471,872,807
6472,877,810
6473,881,814
6474,882,818
6475,882,815
6476,879,814
6477,879,812
6478,882,818
6479,886,823
6480,886,828
6481,890,824
6482,888,826
6483,892,827
6484,895,831
6485,901,839
6486,903,843
6487,905,843
6488,901,840
6489,902,842
6490,907,847
6491,912,851
6492,915,854
6493,914,856
6494,914,855
6495,911,855
6496,917,857
6497,918,863
6498,921,864
6499,922,866
6500,923,866
6501,921,865
6502,922,867
6503,922,871
6504,923,874
6505,924,876
6506,926,875
6507,926,874
6508,931,878
6509,935,883
6510,937,886
6511,941,889
6512,939,887
6513,940,888
6514,939,889
6515,944,892
6516,944,894
6517,943,896
6518,942,896
6519,944,898
6520,947,902
6521,949,904
6522,950,907
6523,950,908
6524,948,910
6525,947,911
6526,953,914
6527,958,917
6528,961,916
6529,962,920
6530,961,921
6531,962,921
6532,964,925
6533,964,928
6534,968,928
6535,969,930
6536,970,930
6537,969,931
6538,970,934
6539,975,936
6540,978,937
6541,978,939
6542,975,940
6543,975,942
6544,975,946
6545,977,946
6546,980,947
6547,981,950
6548,981,951
6549,979,955
6550,983,956
6551,987,959
6552,988,961
6553,990,962
6554,986,965
6555,984,967
6556,988,972
6557,990,974
6558,991,977
6559,993,977
6560,993,980
6561,990,984
6562,993,986
6563,994,988
6564,997,988
6565,995,990
6566,995,993
6567,994,997
6568,996,1000
6569,999,1002
6570,998,1002
6571,999,1000
6572,999,1002
6573,995,1005
6574,999,1009
6575,1002,1009
6576,1006,1009
6577,1003,1007
6578,1001,1010
6579,1000,1012
6580,1003,1016
6581,1003,1017
6582,1004,1014
6583,1002,1014
6584,1004,1013
6585,1001,1017
6586,1001,1019
6587,1005,1019
6588,1004,1018
6589,1003,1014
6590,1002,1014
6591,1004,1017
6592,1005,1020
6593,1006,1025
6594,1009,1021
6595,1008,1018
6596,1005,1016
6597,1005,1016
6598,1007,1022
6599,1009,1025
6600,1010,1023
6601,1010,1020
6602,1007,1016
6603,1007,1021
6604,1004,1021
6605,1005,1025
6606,1006,1023
6607,1008,1020
6608,1004,1017
6609,1004,1022
6610,1006,1024
6611,1008,1027
6612,1009,1025
6613,1009,1023
6614,1009,1020
6615,1007,1022
6616,1006,1025
6617,1008,1029
6618,1010,1026
6619,1012,1021
6620,1008,1020
6621,1006,1022
6622,1008,1027
6623,1010,1030
6624,1011,1027
6625,1010,1026
6626,1010,1020
6627,1006,1025
6628,1007,1028
6629,1008,1031
6630,1009,1026
6631,1008,1023
6632,1007,1022
6633,1007,1025
6634,1008,1027
6635,1011,1031
6636,1012,1029
6637,1011,1024
6638,1011,1022
6639,1009,1025
6640,1012,1027
6641,1013,1032
6642,1013,1029
6643,1013,1026
6644,1012,1022
6645,1008,1024
6646,1011,1029
6647,1012,1031
6648,1012,1031
6649,1008,1025
6650,1009,1023
6651,1007,1024
6652,1010,1030
6653,1011,1032
6654,1011,1031
6655,1010,1026
6656,1009,1023
6657,1010,1027
6658,1012,1028
6659,1013,1031
6660,1013,1032
6661,1014,1028
6662,1010,1024
6663,1009,1025
6664,1010,1030
6665,1013,1033
6666,1012,1031
6667,1012,1028
6668,1010,1024
6669,1008,1025
6670,1007,1027
6671,1012,1034
6672,1012,1032
6673,1010,1026
6674,1009,1024
6675,1007,1025
6676,1009,1028
6677,1013,1033
6678,1014,1034
6679,1013,1029
6680,1012,1024
6681,1009,1024
6682,1011,1029
6683,1012,1033
6684,1013,1031
6685,1012,1028
6686,1012,1023
6687,1011,1023
6688,1011,1027
6689,1013,1031
6690,1013,1034
6691,1009,1026
6692,1010,1025
6693,1009,1023
6694,1007,1028
6695,1011,1031
6696,1013,1033
6697,1014,1027
6698,1013,1024
6699,1011,1025
6700,1014,1027
6701,1016,1031
6702,1016,1031
6703,1016,1028
6704,1014,1025
6705,1012,1023
6706,1014,1026
6707,1015,1031
6708,1017,1031
6709,1015,1031
6710,1014,1027
6711,1012,1024
6712,1010,1027
6713,1013,1031
6714,1013,1031
6715,1010,1031
6716,1012,1024
6717,1010,1025
6718,1011,1026
6719,1015,1030
6720,1017,1033
6721,1014,1029
6722,1013,1025
6723,1013,1024
6724,1010,1027
6725,1013,1034
6726,1015,1032
6727,1013,1028
6728,1013,1024
6729,1009,1024
6730,1013,1027
6731,1012,1033
6732,1013,1032
6733,1011,1030
6734,1010,1028
6735,1008,1023
6736,1009,1026
6737,1012,1032
6738,1014,1032
6739,1013,1030
6740,1011,1027
6741,1008,1025
6742,1011,1026
6743,1014,1031
6744,1015,1032
6745,1014,1030
6746,1011,1025
6747,1009,1023
6748,1013,1027
6749,1016,1030
6750,1016,1032
6751,1015,1030
6752,1012,1026
6753,1008,1025
6754,1013,1027
6755,1011,1031
6756,1013,1033
6757,1011,1032
6758,1011,1027
6759,1011,1025
6760,1011,1024
6761,1012,1032
6762,1016,1032
6763,1015,1029
6764,1014,1022
6765,1013,1024
6766,1013,1027
6767,1017,1030
6768,1018,1031
6769,1015,1031
6770,1012,1026
6771,1009,1023
6772,1014,1028
6773,1015,1031
6774,1016,1033
6775,1013,1029
6776,1011,1026
6777,1011,1025
6778,1013,1027
6779,1016,1029
6780,1017,1033
6781,1016,1029
6782,1015,1025
6783,1012,1024
6784,1014,1026
6785,1017,1029
6786,1018,1030
6787,1017,1028
6788,1015,1025
6789,1015,1026
6790,1015,1025
6791,1019,1027
6792,1018,1031
6793,1017,1028
6794,1013,1025
6795,1011,1023
6796,1012,1024
6797,1016,1029
6798,1017,1030
6799,1016,1029
6800,1012,1026
6801,1011,1025
6802,1016,1028
6803,1018,1029
6804,1019,1031
6805,1017,1028
6806,1016,1029
6807,1012,1025
6808,1015,1024
6809,1018,1029
6810,1017,1030
6811,1017,1029
6812,1015,1027
6813,1016,1025
6814,1016,1025
6815,1016,1027
6816,1019,1030
6817,1013,1031
6818,1014,1028
6819,1013,1024
6820,1014,1024
6821,1016,1026
6822,1017,1028
6823,1016,1029
6824,1013,1024
6825,1014,1023
6826,1016,1024
6827,1020,1025
6828,1020,1029
6829,1016,1028
6830,1017,1026
6831,1014,1025
6832,1016,1023
6833,1019,1026
6834,1020,1027
6835,1017,1029
6836,1013,1026
6837,1014,1024
6838,1015,1024
6839,1015,1024
6840,1017,1027
6841,1016,1027
6842,1015,1028
6843,1012,1024
6844,1017,1025
6845,1020,1026
6846,1020,1028
6847,1020,1025
6848,1017,1026
6849,1016,1022
6850,1020,1023
6851,1019,1025
6852,1021,1024
6853,1017,1025
6854,1019,1025
6855,1016,1024
6856,1018,1025
6857,1019,1024
6858,1018,1025
6859,1019,1024
6860,1015,1026
6861,1015,1023
6862,1015,1022
6863,1017,1023
6864,1019,1025
6865,1018,1025
6866,1019,1023
6867,1018,1021
6868,1019,1022
6869,1021,1023
6870,1023,1023
6871,1019,1022
6872,1016,1025
6873,1015,1024
6874,1016,1023
6875,1017,1021
6876,1020,1023
6877,1018,1023
6878,1015,1023
6879,1013,1026
6880,1013,1023
6881,1017,1024
6882,1019,1024
6883,1019,1024
6884,1018,1023
6885,1014,1024
6886,1016,1024
6887,1016,1023
6888,1021,1022
6889,1020,1021
6890,1017,1023
6891,1015,1023
6892,1018,1023
6893,1020,1023
6894,1022,1023
6895,1021,1023
6896,1018,1023
6897,1016,1022
6898,1019,1022
6899,1018,1023
6900,1021,1024
6901,1019,1025
6902,1013,1025
6903,1013,1026
6904,1011,1024
6905,1018,1027
6906,1017,1026
6907,1016,1027
6908,1019,1027
6909,1019,1027
6910,1022,1026
6911,1025,1026
6912,1025,1024
6913,1025,1025
6914,1023,1023
6915,1023,1022
6916,1023,1020
6917,1023,1018
6918,1024,1019
6919,1018,1017
6920,1013,1016
6921,1008,1013
6922,1007,1005
6923,1010,1001
6924,1010,995
6925,1009,986
6926,1009,982
6927,1018,975
6928,1035,971
6929,1055,968
6930,1073,970
6931,1089,970
6932,1102,973
6933,1106,978
6934,1111,982
6935,1124,991
6936,1146,1013
6937,1170,1051
6938,1189,1109
6939,1190,1161
6940,1184,1192
6941,1177,1201
6942,1165,1203
6943,1152,1210
6944,1134,1221
6945,1112,1230
6946,1084,1232
6947,1050,1226
6948,1021,1208
6949,1004,1187
6950,992,1172
6951,992,1163
6952,992,1160
6953,991,1159
6954,983,1157
6955,975,1156
6956,971,1159
6957,976,1166
6958,986,1178
6959,992,1183
6960,998,1184
6961,1008,1184
6962,1016,1183
6963,1018,1183
6964,1024,1180
6965,1023,1168
6966,1020,1147
6967,1009,1121
6968,1005,1099
6969,1001,1077
6970,1004,1061
6971,1005,1049
6972,1008,1037
6973,1007,1026
6974,1005,1020
6975,1004,1023
6976,1005,1023
6977,1006,1022
6978,1009,1013
6979,1006,1012
6980,1006,1010
6981,1002,1014
6982,1005,1016
6983,1007,1013
6984,1007,1009
6985,1005,1006
6986,1003,1005
6987,1002,1008
6988,1004,1011
6989,1009,1012
6990,1008,1007
6991,1008,1004
6992,1005,1002
6993,1005,1006
6994,1006,1008
6995,1009,1009
6996,1009,1007
6997,1007,1001
6998,1007,998
6999,1005,1005
7000,1008,1007
7001,1010,1009
7002,1012,1009
7003,1009,1002
7004,1008,998
7005,1007,1003
7006,1006,1006
7007,1008,1009
7008,1010,1006
7009,1012,1004
7010,1008,999
7011,1008,1002
7012,1013,1007
7013,1016,1011
7014,1016,1006
7015,1017,1003
7016,1016,1001
7017,1016,1003
7018,1018,1009
7019,1020,1013
7020,1020,1011
7021,1020,1005
7022,1019,1005
7023,1019,1004
7024,1021,1010
7025,1024,1017
7026,1026,1013
7027,1022,1007
7028,1020,1006
7029,1022,1009
7030,1021,1012
7031,1027,1016
7032,1028,1019
7033,1028,1013
7034,1029,1011
7035,1028,1013
7036,1032,1017
7037,1035,1022
7038,1035,1023
7039,1037,1020
7040,1033,1017
7041,1034,1018
7042,1037,1023
7043,1040,1028
7044,1040,1027
7045,1037,1023
7046,1036,1022
7047,1034,1022
7048,1038,1027
7049,1039,1033
7050,1037,1032
7051,1040,1029
7052,1039,1026
7053,1037,1031
7054,1042,1034
7055,1045,1038
7056,1048,1038
7057,1048,1035
7058,1045,1033
7059,1045,1035
7060,1048,1037
7061,1048,1045
7062,1052,1045
7063,1051,1040
7064,1049,1038
7065,1050,1036
7066,1052,1041
7067,1054,1048
7068,1052,1048
7069,1051,1046
7070,1051,1042
7071,1050,1043
7072,1054,1046
7073,1057,1051
7074,1057,1053
7075,1055,1049
7076,1054,1046
7077,1059,1046
7078,1059,1049
7079,1060,1054
7080,1060,1056
7081,1061,1052
7082,1058,1050
7083,1058,1050
7084,1060,1055
7085,1063,1058
7086,1063,1060
7087,1062,1056
7088,1059,1053
7089,1057,1054
7090,1058,1057
7091,1059,1062
7092,1061,1063
7093,1058,1061
7094,1060,1059
7095,1058,1055
7096,1058,1063
7097,1063,1067
7098,1064,1067
7099,1062,1065
7100,1058,1061
7101,1055,1060
7102,1060,1065
7103,1059,1071
7104,1062,1073
7105,1060,1071
7106,1055,1066
7107,1053,1067
7108,1055,1071
7109,1058,1078
7110,1057,1079
7111,1055,1079
7112,1054,1077
7113,1051,1076
7114,1053,1081
7115,1055,1086
7116,1058,1086
7117,1058,1083
7118,1057,1081
7119,1054,1081
7120,1054,1082
7121,1056,1089
7122,1055,1091
7123,1053,1085
7124,1052,1082
7125,1055,1083
7126,1056,1085
7127,1059,1090
7128,1060,1087
7129,1059,1085
7130,1055,1079
7131,1055,1080
7132,1057,1083
7133,1060,1086
7134,1062,1088
7135,1060,1083
7136,1059,1080
7137,1059,1079
7138,1064,1082
7139,1067,1087
7140,1068,1087
7141,1068,1082
7142,1063,1079
7143,1064,1079
7144,1070,1086
7145,1072,1089
7146,1074,1089
7147,1071,1085
7148,1072,1081
7149,1072,1079
7150,1074,1086
7151,1075,1090
7152,1076,1090
7153,1075,1088
7154,1074,1083
7155,1078,1082
7156,1079,1088
7157,1085,1093
7158,1088,1089
7159,1084,1086
7160,1081,1078
7161,1084,1077
7162,1080,1080
7163,1078,1081
7164,1074,1078
7165,1074,1069
7166,1069,1060
7167,1067,1056
7168,1076,1053
7169,1082,1050
7170,1084,1047
7171,1080,1042
7172,1079,1039
7173,1074,1043
7174,1076,1049
7175,1078,1055
7176,1074,1057
7177,1069,1058
7178,1059,1053
7179,1050,1052
7180,1037,1055
7181,1025,1057
7182,1006,1052
7183,982,1050
7184,962,1048
7185,942,1045
7186,923,1050
7187,908,1050
7188,890,1048
7189,876,1039
7190,864,1027
7191,853,1020
7192,847,1017
7193,849,1014
7194,856,1014
7195,858,1010
7196,864,1010
7197,876,1012
7198,892,1024
7199,905,1039
7200,916,1046
7201,921,1043
7202,924,1039
7203,925,1035
7204,926,1035
7205,924,1033
7206,924,1028
7207,919,1014
7208,909,991
7209,900,969
7210,895,947
7211,893,923
7212,892,902
7213,886,878
7214,879,858
7215,880,842
7216,882,835
7217,883,833
7218,885,830
7219,885,827
7220,882,821
7221,882,818
7222,882,816
7223,883,821
7224,882,819
7225,882,816
7226,880,812
7227,879,810
7228,881,809
7229,887,813
7230,886,812
7231,885,810
7232,881,804
7233,883,805
7234,885,807
7235,885,807
7236,886,807
7237,884,807
7238,883,803
7239,883,804
7240,884,801
7241,890,805
7242,892,806
7243,891,806
7244,888,802
7245,889,799
7246,892,804
7247,896,807
7248,896,808
7249,897,806
7250,895,807
7251,896,805
7252,898,808
7253,901,812
7254,902,815
7255,903,813
7256,900,814
7257,900,816
7258,900,816
7259,906,818
7260,908,822
7261,910,825
7262,909,824
7263,907,824
7264,912,826
7265,918,829
7266,916,833
7267,915,835
7268,916,836
7269,919,836
7270,922,837
7271,925,841
7272,928,844
7273,927,847
7274,928,848
7275,926,850
7276,929,852
7277,933,855
7278,933,861
7279,932,861
7280,929,862
7281,932,864
7282,935,866
7283,939,871
7284,941,871
7285,943,875
7286,945,875
7287,948,878
7288,953,880
7289,957,883
7290,957,885
7291,957,887
7292,957,887
7293,957,888
7294,960,890
7295,965,890
7296,967,894
7297,963,896
7298,965,898
7299,965,900
7300,967,900
7301,972,903
7302,977,908
7303,978,911
7304,977,910
7305,977,911
7306,979,915
7307,980,913
7308,983,915
7309,982,918
7310,980,920
7311,981,919
7312,987,920
7313,988,925
7314,991,926
7315,990,926
7316,988,931
7317,990,931
7318,992,932
7319,994,935
7320,995,936
7321,995,938
7322,995,938
7323,994,940
7324,999,941
7325,1003,945
7326,1003,945
7327,1004,949
7328,999,950
7329,1000,950
7330,1000,951
7331,1006,955
7332,1008,957
7333,1005,958
7334,1004,961
7335,1004,960
7336,1005,963
7337,1010,963
7338,1008,968
7339,1006,971
7340,1004,975
7341,1002,971
7342,1005,975
7343,1010,979
7344,1010,984
7345,1010,984
7346,1009,985
7347,1009,987
7348,1013,987
7349,1016,993
7350,1015,995
7351,1014,994
7352,1013,995
7353,1013,997
7354,1015,996
7355,1018,1002
7356,1019,1002
7357,1017,1002
7358,1014,1001
7359,1011,1000
7360,1014,1002
7361,1016,1004
7362,1016,1009
7363,1016,1007
7364,1014,1007
7365,1014,1002
7366,1016,1005
7367,1020,1010
7368,1021,1012
7369,1020,1011
7370,1018,1008
7371,1015,1005
7372,1019,1006
7373,1021,1012
7374,1018,1012
7375,1016,1012
7376,1018,1008
7377,1017,1006
7378,1020,1010
7379,1020,1016
7380,1020,1018
7381,1018,1015
7382,1013,1011
7383,1014,1008
7384,1020,1012
7385,1023,1017
7386,1023,1018
7387,1020,1015
7388,1018,1011
7389,1019,1011
7390,1021,1016
7391,1025,1016
7392,1024,1019
7393,1021,1017
7394,1017,1012
7395,1019,1011
7396,1022,1015
7397,1022,1019
7398,1022,1020
7399,1022,1017
7400,1018,1012
7401,1019,1013
7402,1023,1018
7403,1026,1019
7404,1027,1020
7405,1024,1016
7406,1022,1012
7407,1023,1015
7408,1027,1022
7409,1027,1024
7410,1027,1020
7411,1027,1015
7412,1024,1015
7413,1023,1016
7414,1027,1021
7415,1028,1023
7416,1025,1023
7417,1024,1016
7418,1023,1013
7419,1024,1016
7420,1024,1023
7421,1024,1023
7422,1026,1021
7423,1024,1014
7424,1025,1015
7425,1022,1016
7426,1028,1023
7427,1030,1023
7428,1030,1021
7429,1030,1017
7430,1024,1017
7431,1027,1021
7432,1030,1022
7433,1031,1026
7434,1031,1020
7435,1027,1015
7436,1025,1016
7437,1024,1019
7438,1027,1026
7439,1027,1026
7440,1025,1022
7441,1027,1018
7442,1025,1019
7443,1026,1020
7444,1027,1023
7445,1028,1024
7446,1027,1024
7447,1028,1020
7448,1027,1018
7449,1025,1023
7450,1028,1024
7451,1032,1027
7452,1031,1023
7453,1030,1018
7454,1027,1020
7455,1026,1023
7456,1029,1024
7457,1029,1021
7458,1029,1020
7459,1027,1019
7460,1026,1018
7461,1025,1022
7462,1027,1023
7463,1029,1022
7464,1030,1020
7465,1029,1017
7466,1028,1018
7467,1027,1022
7468,1029,1023
7469,1034,1020
7470,1030,1018
7471,1029,1017
7472,1026,1019
7473,1024,1022
7474,1027,1024
7475,1030,1022
7476,1031,1017
7477,1029,1018
7478,1025,1020
7479,1026,1024
7480,1028,1024
7481,1028,1021
7482,1029,1021
7483,1027,1015
7484,1027,1018
7485,1028,1023
7486,1030,1023
7487,1034,1022
7488,1031,1022
7489,1031,1021
7490,1028,1023
7491,1028,1021
7492,1028,1022
7493,1032,1021
7494,1032,1021
7495,1030,1020
7496,1024,1024
7497,1024,1021
7498,1028,1023
7499,1029,1024
7500,1028,1022
7501,1027,1025
7502,1023,1022
7503,1020,1021
7504,1023,1021
7505,1029,1023
7506,1030,1023
7507,1028,1021
7508,1028,1021
7509,1027,1021
7510,1031,1021
7511,1033,1023
7512,1031,1025
7513,1030,1024
7514,1027,1023
7515,1029,1018
7516,1030,1022
7517,1031,1023
7518,1031,1027
7519,1027,1027
7520,1026,1022
7521,1026,1020
7522,1026,1023
7523,1029,1024
7524,1030,1026
7525,1028,1024
7526,1026,1021
7527,1026,1018
7528,1028,1023
7529,1031,1025
7530,1031,1025
7531,1028,1023
7532,1027,1019
7533,1026,1020
7534,1029,1023
7535,1029,1024
7536,1027,1025
7537,1027,1024
7538,1024,1022
7539,1025,1019
7540,1027,1023
7541,1030,1025
7542,1028,1026
7543,1025,1022
7544,1025,1021
7545,1023,1019
7546,1027,1022
7547,1032,1028
7548,1034,1029
7549,1031,1022
7550,1030,1020
7551,1032,1019
7552,1030,1023
7553,1034,1029
7554,1034,1028
7555,1030,1023
7556,1028,1019
7557,1027,1019
7558,1027,1023
7559,1030,1028
7560,1029,1024
7561,1030,1023
7562,1026,1019
7563,1028,1018
7564,1030,1023
7565,1033,1027
7566,1033,1027
7567,1030,1022
7568,1029,1021
7569,1028,1023
7570,1029,1023
7571,1032,1028
7572,1034,1027
7573,1032,1024
7574,1029,1018
7575,1030,1019
7576,1033,1023
7577,1033,1028
7578,1031,1028
7579,1028,1023
7580,1026,1018
7581,1026,1022
7582,1027,1024
7583,1033,1029
7584,1033,1028
7585,1029,1022
7586,1029,1021
7587,1030,1020
7588,1032,1024
7589,1034,1029
7590,1031,1028
7591,1028,1022
7592,1031,1019
7593,1029,1020
7594,1029,1025
7595,1034,1029
7596,1032,1025
7597,1030,1023
7598,1028,1018
7599,1029,1022
7600,1029,1022
7601,1031,1029
7602,1031,1028
7603,1029,1023
7604,1026,1019
7605,1028,1020
7606,1032,1023
7607,1035,1029
7608,1034,1026
7609,1033,1024
7610,1031,1017
7611,1031,1018
7612,1034,1023
7613,1034,1028
7614,1032,1028
7615,1033,1023
7616,1030,1019
7617,1031,1020
7618,1033,1024
7619,1033,1026
7620,1033,1027
7621,1031,1022
7622,1028,1019
7623,1028,1020
7624,1029,1024
7625,1033,1026
7626,1032,1026
7627,1032,1025
7628,1030,1020
7629,1030,1020
7630,1034,1025
7631,1037,1027
7632,1036,1027
7633,1033,1021
7634,1031,1018
7635,1027,1021
7636,1031,1025
7637,1033,1029
7638,1032,1024
7639,1030,1021
7640,1028,1017
7641,1029,1022
7642,1031,1026
7643,1033,1027
7644,1031,1025
7645,1030,1021
7646,1029,1018
7647,1030,1022
7648,1030,1026
7649,1036,1028
7650,1034,1024
7651,1032,1020
7652,1031,1020
7653,1030,1021
7654,1034,1028
7655,1035,1028
7656,1035,1027
7657,1033,1024
7658,1031,1020
7659,1031,1022
7660,1032,1027
7661,1036,1030
7662,1031,1028
7663,1032,1023
7664,1028,1021
7665,1026,1023
7666,1029,1027
7667,1033,1030
7668,1034,1027
7669,1031,1022
7670,1030,1020
7671,1031,1022
7672,1034,1028
7673,1034,1031
7674,1033,1029
7675,1031,1025
7676,1031,1023
7677,1031,1027
7678,1033,1032
7679,1039,1033
7680,1036,1029
7681,1036,1024
7682,1032,1023
7683,1025,1024
7684,1024,1021
7685,1026,1013
7686,1027,1003
7687,1025,992
7688,1028,986
7689,1035,984
7690,1054,982
7691,1079,984
7692,1097,982
7693,1113,976
7694,1118,980
7695,1122,984
7696,1134,992
7697,1150,1010
7698,1174,1042
7699,1189,1094
7700,1194,1152
7701,1188,1193
7702,1180,1211
7703,1172,1214
7704,1161,1217
7705,1141,1223
7706,1116,1230
7707,1082,1235
7708,1050,1232
7709,1028,1213
7710,1015,1191
7711,1014,1172
7712,1010,1164
7713,1007,1167
7714,1007,1170
7715,1000,1169
7716,996,1165
7717,993,1167
7718,998,1175
7719,1003,1186
7720,1008,1194
7721,1019,1194
7722,1027,1191
7723,1032,1186
7724,1034,1182
7725,1034,1172
7726,1032,1155
7727,1029,1131
7728,1024,1103
7729,1018,1077
7730,1013,1059
7731,1015,1049
7732,1015,1042
7733,1017,1031
7734,1016,1025
7735,1012,1019
7736,1012,1019
7737,1011,1019
7738,1014,1020
7739,1018,1017
7740,1014,1013
7741,1013,1009
7742,1010,1010
7743,1011,1013
7744,1015,1012
7745,1015,1011
7746,1017,1007
7747,1015,1004
7748,1015,1009
7749,1015,1011
7750,1018,1009
7751,1020,1008
7752,1020,1006
7753,1017,1009
7754,1016,1009
7755,1015,1010
7756,1017,1008
7757,1018,1005
7758,1018,1003
7759,1017,1006
7760,1016,1007
7761,1012,1009
7762,1015,1009
7763,1019,1008
7764,1020,1005
7765,1018,1007
7766,1016,1004
7767,1018,1008
7768,1019,1008
7769,1022,1007
7770,1023,1007
7771,1021,1008
7772,1021,1008
7773,1022,1009
7774,1024,1008
7775,1028,1008
7776,1027,1010
7777,1024,1010
7778,1022,1009
7779,1022,1008
7780,1022,1010
7781,1029,1012
7782,1027,1014
7783,1026,1014
7784,1027,1011
7785,1027,1011
7786,1032,1015
7787,1034,1019
7788,1034,1022
7789,1035,1017
7790,1033,1017
7791,1034,1016
7792,1039,1019
7793,1039,1027
7794,1043,1027
7795,1041,1025
7796,1041,1020
7797,1040,1023
7798,1043,1029
7799,1045,1032
7800,1046,1034
7801,1042,1030
7802,1043,1027
7803,1043,1031
7804,1046,1036
7805,1049,1039
7806,1052,1038
7807,1051,1036
7808,1050,1034
7809,1049,1038
7810,1054,1045
7811,1059,1046
7812,1059,1045
7813,1057,1040
7814,1057,1042
7815,1057,1048
7816,1059,1049
7817,1061,1053
7818,1062,1049
7819,1058,1048
7820,1057,1050
7821,1058,1053
7822,1062,1056
7823,1065,1057
7824,1063,1056
7825,1061,1055
7826,1063,1056
7827,1066,1061
7828,1068,1061
7829,1069,1060
7830,1067,1061
7831,1065,1058
7832,1065,1063
7833,1066,1063
7834,1067,1065
7835,1070,1064
7836,1070,1063
7837,1065,1061
7838,1065,1065
7839,1062,1069
7840,1065,1069
7841,1067,1067
7842,1066,1067
7843,1064,1066
7844,1064,1068
7845,1062,1071
7846,1065,1075
7847,1064,1074
7848,1066,1075
7849,1065,1073
7850,1064,1075
7851,1063,1076
7852,1066,1076
7853,1069,1079
7854,1068,1079
7855,1064,1082
7856,1060,1082
7857,1059,1080
7858,1061,1082
7859,1065,1089
7860,1065,1091
7861,1057,1087
7862,1057,1085
7863,1058,1088
7864,1061,1091
7865,1065,1094
7866,1065,1095
7867,1063,1092
7868,1060,1091
7869,1059,1089
7870,1063,1096
7871,1066,1098
7872,1067,1098
7873,1061,1093
7874,1062,1092
7875,1065,1094
7876,1065,1096
7877,1070,1099
7878,1069,1097
7879,1066,1093
7880,1066,1089
7881,1070,1092
7882,1073,1097
7883,1074,1100
7884,1073,1095
7885,1074,1091
7886,1072,1091
7887,1076,1094
7888,1078,1097
7889,1081,1099
7890,1081,1095
7891,1080,1091
7892,1081,1091
7893,1080,1094
7894,1083,1099
7895,1086,1097
7896,1085,1095
7897,1082,1090
7898,1081,1092
7899,1081,1095
7900,1086,1100
7901,1086,1097
7902,1091,1097
7903,1090,1091
7904,1093,1092
7905,1092,1097
7906,1094,1099
7907,1097,1096
7908,1099,1092
7909,1094,1084
7910,1092,1081
7911,1091,1082
7912,1089,1081
7913,1091,1081
7914,1095,1072
7915,1091,1062
7916,1087,1060
7917,1087,1059
7918,1087,1064
7919,1083,1062
7920,1078,1055
7921,1070,1052
7922,1067,1052
7923,1066,1056
7924,1063,1059
7925,1055,1059
7926,1041,1055
7927,1025,1053
7928,1007,1057
7929,989,1064
7930,975,1073
7931,968,1080
7932,954,1082
7933,936,1084
7934,913,1086
7935,894,1090
7936,885,1093
7937,885,1090
7938,888,1083
7939,884,1076
7940,886,1070
7941,895,1065
7942,902,1062
7943,906,1060
7944,909,1054
7945,911,1052
7946,913,1052
7947,922,1054
7948,927,1050
7949,935,1045
7950,934,1039
7951,931,1032
7952,921,1027
7953,916,1015
7954,906,1002
7955,902,984
7956,896,960
7957,891,933
7958,884,911
7959,882,892
7960,881,874
7961,882,859
7962,881,841
7963,880,830
7964,878,825
7965,878,827
7966,881,826
7967,882,821
7968,881,816
7969,879,812
7970,876,815
7971,877,817
7972,876,818
7973,880,813
7974,880,812
7975,879,808
7976,876,809
7977,877,811
7978,877,811
7979,881,809
7980,881,807
7981,880,806
7982,880,804
7983,880,807
7984,884,807
7985,886,805
7986,887,804
7987,885,802
7988,884,807
7989,882,809
7990,888,812
7991,891,809
7992,891,807
7993,891,807
7994,891,809
7995,891,812
7996,895,812
7997,896,813
7998,898,813
7999,895,813
8000,895,817
8001,896,819
8002,901,821
8003,905,820
8004,907,822
8005,905,825
8006,904,828
8007,904,829
8008,911,830
8009,912,831
8010,915,834
8011,915,836
8012,912,838
8013,911,841
8014,917,842
8015,919,844
8016,922,845
8017,919,850
8018,919,851
8019,921,853
8020,924,855
8021,929,859
8022,929,861
8023,928,863
8024,926,865
8025,929,867
8026,933,869
8027,937,871
8028,940,873
8029,938,875
8030,938,878
8031,939,880
8032,942,883
8033,945,887
8034,946,888
8035,946,894
8036,945,893
8037,948,895
8038,948,897
8039,955,899
8040,955,904
8041,954,906
8042,953,907
8043,955,910
8044,961,912
8045,966,916
8046,967,919
8047,967,921
8048,966,919
8049,969,918
8050,973,925
8051,976,930
8052,974,933
8053,976,930
8054,976,931
8055,974,930
8056,976,936
8057,979,944
8058,979,943
8059,979,943
8060,979,943
8061,982,943
8062,985,952
8063,989,956
8064,992,957
8065,991,956
8066,990,953
8067,992,958
8068,995,965
8069,997,967
8070,998,965
8071,996,961
8072,995,961
8073,995,969
8074,999,973
8075,997,977
8076,995,973
8077,995,970
8078,991,970
8079,993,976
8080,997,984
8081,998,985
8082,999,984
8083,997,982
8084,997,986
8085,999,992
8086,999,999
8087,1004,999
8088,1007,1000
8089,1005,998
8090,1003,1003
8091,1003,1008
8092,1004,1016
8093,1007,1014
8094,1005,1011
8095,1003,1009
8096,1003,1013
8097,1002,1022
8098,1004,1021
8099,1004,1020
8100,1006,1018
8101,1008,1016
8102,1003,1022
8103,1006,1026
8104,1007,1027
8105,1010,1027
8106,1010,1023
8107,1009,1022
8108,1008,1025
8109,1005,1028
8110,1008,1029
8111,1010,1028
8112,1009,1025
8113,1008,1027
8114,1005,1030
8115,1003,1030
8116,1007,1031
8117,1009,1030
8118,1009,1031
8119,1008,1032
8120,1006,1031
8121,1008,1030
8122,1009,1029
8123,1011,1028
8124,1010,1033
8125,1010,1031
8126,1008,1031
8127,1010,1031
8128,1013,1030
8129,1014,1032
8130,1014,1034
8131,1011,1034
8132,1009,1031
8133,1010,1030
8134,1011,1033
8135,1013,1035
8136,1013,1035
8137,1011,1033
8138,1009,1029
8139,1009,1028
8140,1011,1033
8141,1013,1037
8142,1015,1037
8143,1014,1036
8144,1010,1031
8145,1012,1033
8146,1014,1036
8147,1014,1038
8148,1017,1037
8149,1012,1034
8150,1011,1031
8151,1008,1035
8152,1012,1038
8153,1013,1040
8154,1013,1038
8155,1011,1035
8156,1008,1031
8157,1009,1035
8158,1012,1041
8159,1016,1042
8160,1015,1038
8161,1013,1033
8162,1011,1033
8163,1013,1036
8164,1013,1043
8165,1016,1041
8166,1015,1038
8167,1012,1034
8168,1009,1036
8169,1010,1041
8170,1016,1043
8171,1015,1041
8172,1015,1036
8173,1012,1036
8174,1012,1038
8175,1011,1041
8176,1013,1043
8177,1017,1038
8178,1017,1037
8179,1015,1041
8180,1013,1040
8181,1015,1038
8182,1015,1042
8183,1019,1044
8184,1018,1042
8185,1018,1037
8186,1015,1036
8187,1013,1039
8188,1014,1045
8189,1019,1045
8190,1015,1040
8191,1013,1039
8192,1012,1040
8193,1014,1042
8194,1016,1045
8195,1018,1042
8196,1017,1042
8197,1015,1041
8198,1015,1041
8199,1017,1044
8200,1019,1044
8201,1020,1044
8202,1018,1041
8203,1016,1042
8204,1014,1043
8205,1015,1044
8206,1015,1046
8207,1017,1043
8208,1017,1043
8209,1014,1043
8210,1014,1043
8211,1012,1046
8212,1016,1046
8213,1017,1043
8214,1017,1043
8215,1014,1042
8216,1015,1043
8217,1015,1041
8218,1017,1043
8219,1019,1045
8220,1016,1044
8221,1017,1042
8222,1013,1044
8223,1012,1043
8224,1016,1043
8225,1017,1043
8226,1015,1045
8227,1012,1044
8228,1009,1042
8229,1012,1042
8230,1016,1043
8231,1016,1045
8232,1016,1045
8233,1013,1044
8234,1014,1043
8235,1013,1041
8236,1013,1043
8237,1017,1043
8238,1015,1045
8239,1013,1044
8240,1013,1043
8241,1013,1041
8242,1018,1044
8243,1016,1046
8244,1017,1046
8245,1015,1044
8246,1012,1045
8247,1013,1044
8248,1015,1043
8249,1016,1044
8250,1017,1045
8251,1016,1044
8252,1013,1043
8253,1013,1042
8254,1016,1043
8255,1017,1044
8256,1019,1048
8257,1017,1047
8258,1016,1044
8259,1014,1042
8260,1017,1045
8261,1017,1046
8262,1018,1047
8263,1014,1046
8264,1018,1044
8265,1017,1043
8266,1019,1044
8267,1019,1047
8268,1021,1048
8269,1017,1044
8270,1016,1044
8271,1014,1041
8272,1016,1042
8273,1019,1044
8274,1019,1045
8275,1019,1046
8276,1017,1044
8277,1018,1043
8278,1020,1044
8279,1022,1046
8280,1022,1047
8281,1017,1045
8282,1018,1043
8283,1015,1042
8284,1020,1044
8285,1020,1046
8286,1021,1044
8287,1018,1046
8288,1016,1042
8289,1016,1042
8290,1018,1044
8291,1019,1044
8292,1020,1045
8293,1014,1046
8294,1014,1043
8295,1016,1043
8296,1021,1045
8297,1023,1049
8298,1020,1046
8299,1018,1045
8300,1018,1044
8301,1019,1042
8302,1022,1044
8303,1024,1046
8304,1023,1046
8305,1020,1044
8306,1019,1043
8307,1017,1041
8308,1018,1046
8309,1019,1046
8310,1018,1046
8311,1018,1044
8312,1016,1042
8313,1016,1039
8314,1019,1044
8315,1023,1044
8316,1024,1045
8317,1020,1045
8318,1019,1042
8319,1021,1041
8320,1021,1043
8321,1025,1044
8322,1023,1046
8323,1021,1042
8324,1020,1042
8325,1020,1041
8326,1023,1044
8327,1025,1044
8328,1024,1046
8329,1022,1042
8330,1019,1039
8331,1018,1042
8332,1021,1043
8333,1023,1046
8334,1024,1046
8335,1022,1044
8336,1021,1041
8337,1023,1042
8338,1025,1043
8339,1023,1043
8340,1025,1044
8341,1023,1042
8342,1021,1040
8343,1021,1040
8344,1024,1042
8345,1028,1041
8346,1027,1046
8347,1022,1043
8348,1021,1040
8349,1020,1039
8350,1020,1041
8351,1023,1045
8352,1023,1043
8353,1020,1039
8354,1019,1038
8355,1023,1041
8356,1023,1041
8357,1024,1044
8358,1024,1044
8359,1023,1039
8360,1024,1037
8361,1025,1039
8362,1027,1041
8363,1028,1043
8364,1026,1043
8365,1027,1040
8366,1025,1037
8367,1023,1039
8368,1025,1040
8369,1026,1043
8370,1025,1040
8371,1021,1036
8372,1019,1036
8373,1023,1038
8374,1026,1040
8375,1028,1042
8376,1026,1041
8377,1022,1037
8378,1023,1035
8379,1026,1037
8380,1028,1041
8381,1030,1042
8382,1030,1039
8383,1025,1036
8384,1023,1036
8385,1024,1035
8386,1027,1040
8387,1030,1040
8388,1027,1038
8389,1026,1036
8390,1023,1034
8391,1023,1035
8392,1022,1035
8393,1027,1040
8394,1026,1038
8395,1026,1035
8396,1024,1033
8397,1027,1035
8398,1030,1038
8399,1031,1040
8400,1030,1039
8401,1027,1035
8402,1028,1031
8403,1028,1035
8404,1030,1038
8405,1032,1038
8406,1029,1037
8407,1026,1034
8408,1025,1033
8409,1027,1033
8410,1030,1037
8411,1030,1038
8412,1030,1036
8413,1026,1032
8414,1027,1029
8415,1025,1031
8416,1028,1034
8417,1030,1035
8418,1028,1036
8419,1021,1028
8420,1018,1022
8421,1016,1020
8422,1018,1015
8423,1020,1012
8424,1020,1005
8425,1023,997
8426,1036,991
8427,1055,990
8428,1084,994
8429,1102,999
8430,1116,1003
8431,1120,1001
8432,1125,1000
8433,1132,1014
8434,1154,1040
8435,1178,1085
8436,1198,1138
8437,1197,1182
8438,1191,1201
8439,1181,1210
8440,1173,1219
8441,1164,1228
8442,1147,1236
8443,1119,1233
8444,1085,1228
8445,1052,1217
8446,1034,1206
8447,1029,1194
8448,1025,1175
8449,1020,1163
8450,1015,1157
8451,1008,1159
8452,1003,1162
8453,1003,1163
8454,1009,1167
8455,1013,1170
8456,1016,1174
8457,1021,1178
8458,1031,1183
8459,1038,1186
8460,1045,1181
8461,1046,1173
8462,1040,1162
8463,1036,1142
8464,1034,1131
8465,1031,1111
8466,1025,1087
8467,1022,1063
8468,1018,1048
8469,1020,1039
8470,1022,1037
8471,1024,1036
8472,1020,1032
8473,1017,1024
8474,1014,1018
8475,1014,1021
8476,1014,1024
8477,1019,1022
8478,1022,1020
8479,1018,1014
8480,1017,1014
