'sample #','MLII','V1'
0,1020,1056
1,1020,1056
2,1020,1056
3,1020,1056
4,1020,1056
5,1020,1056
6,1020,1056
7,1020,1056
8,1020,1056
9,1025,1052
10,1028,1052
11,1029,1055
12,1032,1053
13,1032,1056
14,1033,1059
15,1039,1055
16,1042,1051
17,1042,1050
18,1043,1050
19,1042,1055
20,1046,1059
21,1050,1058
22,1050,1056
23,1052,1053
24,1050,1048
25,1048,1050
26,1049,1051
27,1050,1057
28,1054,1059
29,1052,1063
30,1048,1064
31,1051,1058
32,1051,1058
33,1055,1057
34,1057,1055
35,1057,1050
36,1051,1047
37,1049,1051
38,1050,1053
39,1049,1056
40,1046,1060
41,1044,1061
42,1040,1059
43,1036,1055
44,1039,1056
45,1041,1055
46,1042,1050
47,1038,1045
48,1033,1044
49,1028,1044
50,1026,1049
51,1025,1052
52,1022,1052
53,1015,1046
54,1011,1043
55,1010,1044
56,1008,1046
57,1010,1050
58,1013,1049
59,1008,1053
60,1001,1052
61,998,1055
62,1003,1052
63,1008,1050
64,1010,1048
65,1007,1045
66,1002,1045
67,1000,1047
68,1000,1052
69,1003,1049
70,1006,1047
71,1004,1043
72,1002,1042
73,999,1045
74,999,1046
75,1003,1049
76,1000,1046
77,1007,1042
78,1004,1034
79,1004,1033
80,1003,1035
81,1003,1041
82,1001,1046
83,1001,1044
84,1002,1046
85,997,1043
86,997,1042
87,1000,1044
88,1000,1047
89,1000,1045
90,1001,1045
91,999,1045
92,999,1048
93,1000,1052
94,1004,1048
95,1004,1046
96,1002,1043
97,1000,1042
98,1001,1042
99,1001,1041
100,1003,1039
101,1005,1039
102,999,1037
103,996,1038
104,999,1042
105,1002,1045
106,1006,1048
107,1004,1045
108,1000,1045
109,998,1053
110,996,1059
111,996,1062
112,1001,1059
113,1004,1052
114,1002,1044
115,1002,1042
116,1007,1045
117,1011,1048
118,1016,1046
119,1017,1043
120,1013,1037
121,1009,1039
122,1013,1045
123,1018,1052
124,1024,1051
125,1020,1049
126,1015,1046
127,1012,1046
128,1015,1047
129,1018,1045
130,1019,1039
131,1020,1034
132,1019,1028
133,1012,1032
134,1010,1036
135,1014,1042
136,1015,1042
137,1013,1037
138,1006,1036
139,1003,1035
140,1002,1034
141,1002,1035
142,1006,1034
143,1005,1033
144,1006,1036
145,1006,1040
146,1010,1043
147,1012,1042
148,1011,1039
149,1008,1036
150,1004,1031
151,1001,1034
152,999,1035
153,998,1035
154,996,1035
155,992,1034
156,992,1035
157,991,1036
158,987,1039
159,989,1048
160,987,1050
161,987,1052
162,985,1058
163,984,1059
164,986,1060
165,986,1054
166,987,1049
167,988,1043
168,987,1040
169,986,1034
170,986,1033
171,987,1034
172,989,1037
173,986,1039
174,986,1042
175,984,1042
176,985,1042
177,984,1048
178,982,1051
179,976,1057
180,972,1058
181,974,1060
182,981,1065
183,1001,1066
184,1026,1067
185,1058,1066
186,1099,1067
187,1144,1071
188,1194,1071
189,1240,1065
190,1263,1048
191,1254,1023
192,1204,1000
193,1134,993
194,1047,1000
195,956,1005
196,882,1008
197,854,1007
198,864,1007
199,888,1010
200,913,1013
201,935,1017
202,949,1020
203,960,1022
204,967,1022
205,973,1025
206,977,1026
207,981,1034
208,980,1040
209,980,1038
210,977,1034
211,982,1034
212,984,1038
213,983,1042
214,984,1045
215,983,1042
216,982,1043
217,979,1044
218,982,1048
219,986,1049
220,988,1047
221,985,1044
222,983,1043
223,982,1046
224,982,1045
225,984,1049
226,985,1047
227,983,1047
228,981,1046
229,983,1045
230,983,1049
231,989,1055
232,989,1053
233,992,1047
234,992,1039
235,996,1037
236,994,1040
237,999,1047
238,1000,1051
239,999,1054
240,995,1061
241,995,1065
242,999,1065
243,1006,1058
244,1012,1044
245,1010,1038
246,1010,1039
247,1009,1045
248,1012,1048
249,1016,1048
250,1021,1043
251,1020,1040
252,1020,1042
253,1025,1046
254,1029,1048
255,1032,1049
256,1032,1050
257,1034,1051
258,1029,1049
259,1029,1047
260,1031,1050
261,1036,1052
262,1041,1049
263,1042,1046
264,1038,1050
265,1037,1049
266,1038,1051
267,1043,1055
268,1046,1054
269,1045,1053
270,1042,1051
271,1039,1053
272,1039,1056
273,1040,1059
274,1042,1056
275,1041,1056
276,1035,1054
277,1031,1055
278,1035,1059
279,1035,1061
280,1033,1068
281,1029,1071
282,1024,1069
283,1023,1064
284,1020,1061
285,1017,1059
286,1015,1056
287,1012,1053
288,1007,1045
289,1003,1043
290,1001,1038
291,999,1039
292,1000,1037
293,998,1036
294,993,1035
295,992,1040
296,990,1042
297,991,1045
298,989,1043
299,991,1040
300,986,1042
301,983,1040
302,983,1044
303,984,1047
304,983,1048
305,982,1049
306,980,1049
307,977,1052
308,979,1052
309,983,1056
310,985,1057
311,984,1055
312,982,1046
313,978,1045
314,981,1045
315,983,1045
316,984,1044
317,986,1040
318,982,1034
319,980,1038
320,981,1044
321,981,1051
322,985,1050
323,985,1047
324,985,1043
325,982,1039
326,982,1042
327,983,1044
328,985,1045
329,984,1043
330,984,1043
331,983,1046
332,983,1049
333,985,1053
334,988,1051
335,987,1047
336,984,1039
337,984,1035
338,991,1035
339,991,1040
340,995,1046
341,993,1049
342,991,1047
343,994,1045
344,995,1043
345,995,1045
346,994,1044
347,991,1043
348,991,1043
349,990,1048
350,994,1049
351,995,1051
352,998,1050
353,996,1048
354,995,1045
355,995,1049
356,997,1056
357,998,1058
358,1001,1053
359,1002,1047
360,1001,1038
361,1000,1032
362,1002,1030
363,1000,1033
364,1000,1033
365,998,1034
366,997,1030
367,996,1034
368,995,1034
369,996,1035
370,999,1037
371,1000,1034
372,996,1034
373,990,1032
374,988,1030
375,988,1034
376,989,1032
377,987,1029
378,986,1029
379,983,1029
380,987,1032
381,991,1036
382,995,1038
383,992,1040
384,986,1044
385,981,1047
386,979,1050
387,977,1048
388,975,1043
389,969,1039
390,968,1038
391,969,1040
392,970,1042
393,977,1044
394,976,1039
395,973,1039
396,971,1043
397,971,1044
398,973,1042
399,972,1043
400,974,1041
401,974,1037
402,974,1030
403,974,1030
404,973,1037
405,974,1042
406,976,1045
407,976,1043
408,976,1038
409,972,1035
410,973,1037
411,973,1041
412,967,1046
413,960,1047
414,957,1051
415,952,1052
416,962,1058
417,974,1065
418,992,1064
419,1017,1062
420,1044,1061
421,1080,1066
422,1128,1067
423,1176,1068
424,1216,1059
425,1240,1046
426,1235,1024
427,1205,1006
428,1151,996
429,1089,998
430,1012,1001
431,924,1002
432,862,1001
433,848,1001
434,859,1006
435,876,1010
436,894,1010
437,914,1004
438,929,1007
439,942,1012
440,950,1023
441,957,1030
442,960,1032
443,964,1037
444,963,1038
445,964,1038
446,968,1043
447,969,1040
448,969,1036
449,966,1030
450,967,1031
451,968,1028
452,971,1032
453,972,1031
454,974,1034
455,973,1033
456,970,1031
457,971,1032
458,973,1033
459,975,1041
460,975,1038
461,967,1035
462,969,1034
463,972,1032
464,974,1035
465,977,1038
466,976,1038
467,973,1038
468,979,1036
469,977,1035
470,979,1037
471,982,1039
472,984,1035
473,985,1033
474,983,1029
475,983,1031
476,986,1036
477,992,1039
478,998,1040
479,997,1037
480,993,1033
481,991,1035
482,992,1037
483,995,1041
484,996,1040
485,997,1041
486,998,1043
487,1000,1045
488,1003,1050
489,1009,1048
490,1012,1049
491,1017,1044
492,1016,1041
493,1016,1037
494,1023,1036
495,1026,1037
496,1027,1037
497,1027,1037
498,1025,1037
499,1026,1037
500,1031,1034
501,1032,1032
502,1036,1030
503,1036,1033
504,1034,1035
505,1030,1038
506,1033,1041
507,1032,1045
508,1034,1042
509,1034,1040
510,1034,1036
511,1033,1035
512,1035,1036
513,1036,1039
514,1036,1038
515,1035,1037
516,1031,1037
517,1027,1039
518,1025,1044
519,1025,1046
520,1022,1051
521,1017,1050
522,1008,1049
523,1005,1052
524,1007,1049
525,1008,1047
526,1007,1035
527,1004,1028
528,999,1019
529,995,1020
530,994,1026
531,992,1030
532,988,1034
533,987,1034
534,985,1034
535,984,1031
536,983,1032
537,985,1036
538,986,1039
539,986,1040
540,984,1037
541,978,1035
542,981,1036
543,983,1034
544,983,1036
545,980,1035
546,982,1036
547,978,1038
548,976,1045
549,977,1049
550,975,1051
551,977,1040
552,974,1028
553,974,1018
554,978,1019
555,979,1022
556,980,1023
557,977,1023
558,976,1023
559,974,1024
560,974,1027
561,978,1029
562,981,1032
563,980,1030
564,979,1027
565,979,1028
566,981,1029
567,984,1032
568,984,1032
569,981,1032
570,978,1032
571,976,1034
572,978,1041
573,983,1042
574,984,1045
575,983,1038
576,977,1032
577,971,1034
578,974,1032
579,978,1035
580,983,1034
581,983,1032
582,978,1029
583,977,1027
584,979,1024
585,985,1028
586,987,1029
587,991,1027
588,990,1025
589,990,1026
590,987,1032
591,987,1037
592,987,1038
593,989,1038
594,991,1034
595,993,1035
596,992,1037
597,994,1038
598,996,1034
599,993,1027
600,991,1025
601,987,1026
602,985,1033
603,986,1037
604,982,1040
605,981,1038
606,980,1033
607,986,1028
608,988,1021
609,987,1019
610,987,1013
611,985,1015
612,980,1014
613,978,1019
614,978,1019
615,977,1016
616,978,1018
617,976,1021
618,973,1025
619,973,1026
620,977,1030
621,976,1030
622,974,1028
623,966,1025
624,961,1023
625,959,1023
626,961,1024
627,964,1027
628,964,1030
629,965,1031
630,961,1032
631,962,1032
632,962,1030
633,964,1030
634,965,1028
635,963,1027
636,957,1025
637,954,1029
638,956,1032
639,960,1031
640,962,1033
641,965,1033
642,963,1029
643,962,1026
644,963,1028
645,964,1027
646,962,1031
647,957,1037
648,949,1045
649,943,1051
650,941,1057
651,949,1059
652,959,1055
653,980,1050
654,1006,1043
655,1037,1041
656,1081,1050
657,1127,1055
658,1175,1055
659,1212,1050
660,1223,1034
661,1208,1016
662,1169,1002
663,1113,1003
664,1043,1004
665,956,1002
666,883,1000
667,847,1003
668,847,1005
669,863,1004
670,874,1003
671,884,1001
672,904,1000
673,921,998
674,936,1000
675,941,1006
676,942,1014
677,945,1015
678,947,1017
679,949,1022
680,951,1028
681,958,1031
682,961,1030
683,960,1027
684,956,1024
685,955,1030
686,957,1030
687,961,1036
688,964,1031
689,962,1026
690,958,1024
691,953,1026
692,957,1032
693,963,1034
694,965,1027
695,963,1027
696,960,1023
697,959,1024
698,961,1030
699,966,1031
700,967,1032
701,967,1032
702,967,1030
703,969,1029
704,972,1026
705,974,1026
706,975,1024
707,975,1025
708,976,1022
709,978,1023
710,980,1024
711,984,1028
712,985,1031
713,987,1032
714,984,1032
715,986,1027
716,989,1030
717,992,1030
718,997,1027
719,1002,1025
720,1004,1023
721,1004,1025
722,1006,1033
723,1005,1033
724,1005,1031
725,1008,1027
726,1010,1026
727,1012,1029
728,1015,1033
729,1019,1034
730,1022,1028
731,1026,1023
732,1023,1023
733,1019,1027
734,1017,1031
735,1020,1038
736,1024,1038
737,1021,1033
738,1019,1028
739,1025,1028
740,1026,1032
741,1031,1035
742,1030,1032
743,1027,1030
744,1021,1025
745,1017,1025
746,1017,1033
747,1014,1035
748,1009,1038
749,1004,1036
750,1000,1037
751,998,1033
752,996,1034
753,1001,1033
754,1002,1034
755,997,1029
756,991,1026
757,988,1021
758,986,1024
759,984,1026
760,983,1028
761,980,1025
762,976,1022
763,968,1024
764,963,1026
765,961,1029
766,963,1033
767,964,1035
768,966,1033
769,961,1035
770,963,1033
771,963,1034
772,963,1030
773,961,1026
774,957,1020
775,956,1021
776,958,1024
777,960,1029
778,963,1031
779,961,1027
780,962,1027
781,962,1029
782,966,1033
783,968,1039
784,969,1037
785,965,1033
786,963,1029
787,961,1030
788,965,1032
789,964,1032
790,969,1026
791,968,1026
792,972,1026
793,970,1031
794,973,1032
795,972,1030
796,974,1024
797,971,1022
798,969,1021
799,965,1026
800,969,1029
801,971,1028
802,977,1029
803,970,1028
804,966,1026
805,966,1031
806,968,1033
807,974,1032
808,982,1032
809,981,1028
810,976,1027
811,969,1026
812,967,1026
813,972,1032
814,976,1031
815,979,1030
816,974,1027
817,971,1029
818,974,1033
819,977,1034
820,978,1033
821,977,1033
822,974,1032
823,978,1032
824,978,1035
825,981,1036
826,985,1037
827,984,1037
828,982,1032
829,983,1022
830,978,1015
831,979,1016
832,982,1015
833,984,1020
834,977,1022
835,971,1021
836,970,1023
837,972,1020
838,976,1020
839,979,1020
840,977,1018
841,976,1021
842,976,1020
843,978,1019
844,975,1014
845,968,1013
846,962,1012
847,967,1014
848,973,1022
849,977,1025
850,973,1028
851,968,1030
852,967,1028
853,963,1025
854,960,1024
855,953,1028
856,952,1029
857,953,1027
858,955,1026
859,955,1024
860,953,1029
861,956,1032
862,958,1032
863,961,1034
864,958,1030
865,953,1033
866,949,1038
867,951,1041
868,955,1033
869,956,1025
870,954,1021
871,954,1016
872,954,1018
873,956,1022
874,956,1020
875,955,1019
876,948,1022
877,946,1024
878,940,1034
879,934,1041
880,938,1044
881,943,1045
882,954,1041
883,971,1042
884,1000,1043
885,1040,1046
886,1089,1049
887,1138,1055
888,1180,1052
889,1212,1048
890,1231,1034
891,1216,1020
892,1178,1004
893,1116,999
894,1037,996
895,941,1000
896,871,1008
897,844,1011
898,851,1005
899,863,997
900,876,988
901,892,993
902,913,1000
903,930,1008
904,938,1013
905,936,1014
906,935,1017
907,934,1017
908,940,1023
909,948,1026
910,949,1026
911,946,1023
912,945,1017
913,942,1019
914,940,1028
915,942,1034
916,947,1034
917,950,1026
918,953,1018
919,947,1016
920,944,1019
921,943,1023
922,948,1021
923,949,1026
924,953,1023
925,956,1024
926,957,1030
927,952,1032
928,950,1033
929,951,1026
930,954,1019
931,956,1020
932,953,1023
933,955,1028
934,961,1028
935,965,1028
936,966,1029
937,965,1029
938,965,1026
939,967,1024
940,966,1027
941,966,1030
942,965,1032
943,968,1036
944,973,1028
945,978,1019
946,987,1017
947,990,1016
948,987,1020
949,978,1022
950,973,1023
951,979,1027
952,990,1030
953,994,1033
954,989,1031
955,987,1031
956,989,1027
957,995,1029
958,1002,1028
959,1006,1026
960,1007,1026
961,1006,1030
962,1013,1031
963,1018,1032
964,1025,1026
965,1018,1024
966,1010,1021
967,1002,1026
968,1003,1033
969,1008,1043
970,1012,1040
971,1011,1035
972,1003,1033
973,1004,1034
974,1015,1034
975,1020,1034
976,1015,1031
977,1008,1031
978,1002,1030
979,1007,1026
980,1007,1027
981,998,1029
982,990,1033
983,987,1035
984,990,1033
985,994,1030
986,995,1028
987,989,1023
988,979,1019
989,978,1019
990,988,1023
991,988,1025
992,980,1025
993,961,1021
994,953,1021
995,954,1020
996,957,1019
997,959,1022
998,966,1025
999,968,1030
1000,967,1027
1001,962,1021
1002,955,1022
1003,948,1028
1004,948,1033
1005,952,1036
1006,954,1037
1007,958,1039
1008,958,1039
1009,961,1040
1010,960,1038
1011,957,1026
1012,953,1016
1013,951,1007
1014,956,1005
1015,958,1011
1016,963,1018
1017,960,1019
1018,953,1017
1019,946,1015
1020,945,1020
1021,951,1024
1022,959,1030
1023,961,1028
1024,959,1027
1025,953,1022
1026,946,1021
1027,945,1021
1028,952,1022
1029,959,1019
1030,960,1019
1031,957,1017
1032,958,1020
1033,961,1024
1034,967,1028
1035,968,1027
1036,964,1024
1037,963,1023
1038,964,1022
1039,966,1021
1040,966,1025
1041,963,1027
1042,961,1027
1043,960,1024
1044,966,1023
1045,974,1028
1046,984,1034
1047,986,1033
1048,981,1032
1049,977,1033
1050,974,1031
1051,979,1029
1052,987,1028
1053,990,1026
1054,986,1020
1055,975,1019
1056,974,1018
1057,976,1021
1058,976,1021
1059,971,1019
1060,962,1021
1061,957,1020
1062,956,1022
1063,961,1022
1064,962,1027
1065,965,1027
1066,964,1017
1067,964,1007
1068,966,1004
1069,968,1007
1070,965,1016
1071,959,1015
1072,959,1011
1073,960,1013
1074,964,1014
1075,966,1018
1076,969,1021
1077,969,1021
1078,964,1019
1079,957,1017
1080,949,1012
1081,951,1014
1082,951,1016
1083,952,1017
1084,953,1017
1085,946,1016
1086,943,1019
1087,950,1025
1088,963,1028
1089,963,1031
1090,950,1032
1091,937,1031
1092,936,1027
1093,942,1020
1094,951,1018
1095,953,1019
1096,950,1024
1097,946,1022
1098,943,1023
1099,954,1016
1100,962,1014
1101,965,1013
1102,958,1016
1103,948,1021
1104,938,1028
1105,944,1034
1106,954,1040
1107,974,1042
1108,996,1044
1109,1024,1046
1110,1063,1045
1111,1112,1052
1112,1165,1059
1113,1213,1060
1114,1245,1053
1115,1246,1033
1116,1203,1013
1117,1125,1003
1118,1036,1000
1119,943,997
1120,865,994
1121,830,992
1122,827,996
1123,837,1001
1124,851,995
1125,867,989
1126,884,992
1127,897,996
1128,905,1000
1129,915,1008
1130,928,1012
1131,940,1015
1132,940,1017
1133,935,1024
1134,934,1029
1135,933,1031
1136,934,1024
1137,935,1019
1138,933,1016
1139,934,1015
1140,937,1016
1141,941,1023
1142,942,1030
1143,947,1033
1144,950,1029
1145,952,1019
1146,949,1011
1147,946,1008
1148,950,1010
1149,952,1009
1150,955,1012
1151,956,1013
1152,957,1015
1153,953,1020
1154,948,1026
1155,943,1027
1156,940,1025
1157,945,1023
1158,948,1024
1159,952,1025
1160,952,1023
1161,953,1026
1162,950,1027
1163,953,1026
1164,952,1020
1165,953,1013
1166,950,1013
1167,958,1022
1168,966,1021
1169,967,1019
1170,968,1023
1171,966,1029
1172,966,1034
1173,970,1033
1174,976,1025
1175,985,1021
1176,988,1021
1177,985,1025
1178,978,1026
1179,977,1025
1180,984,1027
1181,989,1022
1182,994,1020
1183,997,1022
1184,999,1026
1185,996,1028
1186,992,1026
1187,990,1023
1188,988,1024
1189,991,1023
1190,997,1025
1191,1004,1024
1192,1003,1020
1193,1002,1019
1194,1006,1023
1195,1007,1028
1196,1010,1033
1197,1014,1035
1198,1019,1032
1199,1020,1031
1200,1018,1029
1201,1010,1029
1202,1007,1031
1203,1003,1032
1204,1001,1032
1205,997,1030
1206,995,1032
1207,993,1029
1208,991,1030
1209,983,1026
1210,974,1024
1211,968,1022
1212,970,1023
1213,971,1022
1214,970,1024
1215,962,1026
1216,959,1025
1217,958,1026
1218,959,1023
1219,960,1025
1220,958,1028
1221,957,1034
1222,957,1034
1223,949,1034
1224,951,1039
1225,953,1042
1226,956,1042
1227,962,1035
1228,964,1029
1229,958,1028
1230,955,1032
1231,956,1032
1232,958,1029
1233,964,1024
1234,969,1022
1235,964,1020
1236,959,1014
1237,957,1011
1238,961,1012
1239,967,1016
1240,970,1016
1241,967,1019
1242,964,1019
1243,965,1024
1244,967,1026
1245,968,1024
1246,969,1023
1247,965,1022
1248,965,1022
1249,963,1025
1250,966,1030
1251,967,1028
1252,967,1028
1253,968,1023
1254,968,1024
1255,965,1027
1256,963,1032
1257,964,1032
1258,966,1028
1259,966,1028
1260,961,1030
1261,965,1029
1262,970,1034
1263,974,1036
1264,973,1033
1265,970,1030
1266,970,1033
1267,972,1038
1268,979,1047
1269,981,1049
1270,983,1052
1271,986,1046
1272,985,1040
1273,983,1033
1274,987,1026
1275,990,1023
1276,991,1022
1277,990,1022
1278,987,1019
1279,987,1018
1280,988,1019
1281,991,1025
1282,986,1028
1283,983,1029
1284,984,1030
1285,984,1025
1286,985,1021
1287,983,1020
1288,975,1018
1289,974,1017
1290,972,1018
1291,974,1020
1292,975,1027
1293,977,1028
1294,977,1026
1295,978,1021
1296,975,1020
1297,978,1023
1298,980,1030
1299,983,1030
1300,982,1027
1301,975,1022
1302,970,1023
1303,964,1027
1304,964,1035
1305,964,1034
1306,963,1031
1307,963,1029
1308,964,1029
1309,963,1039
1310,967,1043
1311,968,1037
1312,971,1030
1313,968,1022
1314,968,1018
1315,970,1019
1316,972,1024
1317,971,1026
1318,969,1028
1319,968,1028
1320,966,1028
1321,968,1029
1322,970,1030
1323,973,1029
1324,970,1025
1325,965,1026
1326,957,1031
1327,954,1041
1328,957,1050
1329,970,1058
1330,990,1056
1331,1019,1047
1332,1057,1045
1333,1107,1050
1334,1163,1063
1335,1217,1066
1336,1253,1061
1337,1259,1044
1338,1225,1026
1339,1161,1009
1340,1075,1003
1341,979,1004
1342,890,1003
1343,852,1004
1344,855,1003
1345,868,1001
1346,885,997
1347,904,998
1348,924,1005
1349,936,1010
1350,943,1015
1351,949,1021
1352,952,1029
1353,960,1035
1354,963,1035
1355,962,1034
1356,959,1034
1357,962,1031
1358,965,1025
1359,966,1026
1360,965,1029
1361,962,1034
1362,963,1033
1363,964,1025
1364,965,1024
1365,969,1023
1366,972,1023
1367,973,1023
1368,974,1024
1369,974,1030
1370,976,1036
1371,980,1038
1372,977,1036
1373,976,1035
1374,975,1031
1375,976,1033
1376,983,1039
1377,985,1038
1378,986,1036
1379,985,1036
1380,985,1031
1381,986,1026
1382,990,1031
1383,990,1033
1384,993,1038
1385,990,1038
1386,992,1038
1387,996,1038
1388,1001,1040
1389,1004,1036
1390,1004,1038
1391,1007,1038
1392,1008,1037
1393,1012,1036
1394,1018,1033
1395,1022,1034
1396,1022,1031
1397,1019,1032
1398,1016,1036
1399,1019,1040
1400,1026,1043
1401,1032,1042
1402,1036,1039
1403,1036,1036
1404,1035,1040
1405,1035,1043
1406,1037,1042
1407,1038,1042
1408,1040,1041
1409,1039,1039
1410,1039,1040
1411,1042,1045
1412,1046,1050
1413,1047,1047
1414,1048,1050
1415,1046,1050
1416,1043,1045
1417,1040,1039
1418,1038,1038
1419,1035,1042
1420,1035,1042
1421,1035,1041
1422,1033,1039
1423,1033,1040
1424,1032,1041
1425,1029,1040
1426,1023,1039
1427,1017,1035
1428,1014,1037
1429,1010,1038
1430,1008,1043
1431,1005,1044
1432,1001,1044
1433,997,1042
1434,995,1041
1435,997,1044
1436,1000,1048
1437,999,1047
1438,1000,1044
1439,993,1039
1440,995,1037
1441,992,1043
1442,992,1047
1443,993,1049
1444,991,1047
1445,990,1045
1446,990,1046
1447,988,1053
1448,991,1055
1449,996,1056
1450,997,1042
1451,1000,1028
1452,997,1025
1453,997,1028
1454,998,1035
1455,1002,1038
1456,1000,1035
1457,997,1034
1458,992,1037
1459,992,1039
1460,993,1041
1461,994,1041
1462,996,1042
1463,995,1042
1464,993,1047
1465,993,1049
1466,995,1054
1467,997,1048
1468,997,1048
1469,998,1042
1470,999,1039
1471,997,1043
1472,1000,1051
1473,1003,1051
1474,1002,1041
1475,998,1035
1476,995,1039
1477,994,1041
1478,999,1049
1479,1002,1052
1480,1001,1054
1481,999,1054
1482,1000,1053
1483,1002,1049
1484,1003,1042
1485,1005,1043
1486,1008,1047
1487,1009,1049
1488,1012,1048
1489,1011,1048
1490,1015,1050
1491,1018,1053
1492,1015,1053
1493,1017,1050
1494,1013,1046
1495,1012,1040
1496,1011,1036
1497,1010,1034
1498,1008,1034
1499,1010,1033
1500,1004,1036
1501,1005,1036
1502,1006,1043
1503,1007,1041
1504,1007,1043
1505,1004,1042
1506,1000,1040
1507,998,1045
1508,1000,1045
1509,1003,1043
1510,1001,1040
1511,1000,1039
1512,998,1042
1513,996,1044
1514,999,1047
1515,1005,1048
1516,1005,1047
1517,1003,1042
1518,1000,1036
1519,995,1041
1520,994,1040
1521,993,1044
1522,991,1044
1523,988,1045
1524,984,1045
1525,986,1046
1526,988,1049
1527,988,1049
1528,989,1051
1529,987,1049
1530,986,1045
1531,986,1051
1532,987,1052
1533,988,1053
1534,989,1052
1535,986,1048
1536,983,1046
1537,984,1046
1538,986,1051
1539,988,1055
1540,987,1052
1541,983,1045
1542,979,1043
1543,972,1052
1544,975,1065
1545,981,1071
1546,993,1074
1547,1014,1071
1548,1043,1070
1549,1083,1073
1550,1136,1081
1551,1190,1081
1552,1242,1075
1553,1275,1063
1554,1284,1040
1555,1254,1018
1556,1190,1007
1557,1106,1008
1558,1003,1011
1559,906,1012
1560,858,1010
1561,859,1009
1562,882,1013
1563,904,1014
1564,925,1015
1565,942,1020
1566,957,1026
1567,968,1035
1568,977,1040
1569,981,1042
1570,981,1043
1571,980,1044
1572,978,1047
1573,980,1050
1574,983,1051
1575,988,1052
1576,984,1054
1577,982,1056
1578,977,1058
1579,980,1055
1580,983,1053
1581,983,1049
1582,985,1048
1583,987,1040
1584,986,1039
1585,986,1039
1586,990,1046
1587,993,1047
1588,992,1045
1589,992,1040
1590,992,1042
1591,989,1045
1592,993,1047
1593,994,1051
1594,993,1052
1595,994,1047
1596,992,1045
1597,994,1048
1598,995,1051
1599,1003,1051
1600,1001,1050
1601,1000,1048
1602,1003,1052
1603,1007,1052
1604,1012,1051
1605,1013,1058
1606,1015,1060
1607,1015,1059
1608,1017,1056
1609,1021,1051
1610,1025,1054
1611,1030,1055
1612,1029,1053
1613,1029,1051
1614,1026,1047
1615,1033,1056
1616,1039,1060
1617,1042,1056
1618,1045,1052
1619,1041,1048
1620,1043,1050
1621,1046,1051
1622,1048,1054
1623,1053,1054
1624,1050,1054
1625,1052,1052
1626,1053,1055
1627,1051,1059
1628,1055,1062
1629,1058,1063
1630,1057,1066
1631,1053,1067
1632,1050,1068
1633,1051,1068
1634,1055,1066
1635,1055,1062
1636,1055,1064
1637,1054,1067
1638,1052,1069
1639,1054,1060
1640,1056,1051
1641,1057,1042
1642,1053,1041
1643,1046,1044
1644,1042,1047
1645,1039,1052
1646,1037,1054
1647,1037,1056
1648,1033,1054
1649,1028,1053
1650,1021,1053
1651,1016,1052
1652,1017,1053
1653,1019,1051
1654,1016,1053
1655,1011,1052
1656,1005,1049
1657,1006,1051
1658,1013,1052
1659,1014,1056
1660,1010,1053
1661,1008,1051
1662,1008,1051
1663,1008,1058
1664,1008,1062
1665,1011,1063
1666,1012,1059
1667,1010,1051
1668,1006,1047
1669,1007,1045
1670,1008,1046
1671,1011,1046
1672,1010,1047
1673,1008,1051
1674,1006,1050
1675,1004,1052
1676,1004,1055
1677,1007,1050
1678,1006,1047
1679,1007,1044
1680,1003,1044
1681,1002,1050
1682,1007,1055
1683,1010,1055
1684,1009,1054
1685,1006,1055
1686,1004,1055
1687,1006,1056
1688,1008,1053
1689,1011,1051
1690,1008,1051
1691,1009,1052
1692,1007,1056
1693,1007,1058
1694,1010,1059
1695,1010,1056
1696,1006,1053
1697,1005,1056
1698,1006,1060
1699,1008,1060
1700,1011,1058
1701,1013,1053
1702,1008,1046
1703,1008,1049
1704,1007,1049
1705,1011,1051
1706,1015,1051
1707,1017,1051
1708,1018,1054
1709,1019,1058
1710,1018,1058
1711,1021,1058
1712,1024,1057
1713,1027,1061
1714,1026,1057
1715,1027,1052
1716,1028,1047
1717,1023,1047
1718,1021,1050
1719,1021,1049
1720,1019,1048
1721,1016,1044
1722,1013,1045
1723,1019,1045
1724,1021,1048
1725,1018,1049
1726,1017,1049
1727,1014,1049
1728,1015,1046
1729,1010,1048
1730,1009,1047
1731,1013,1051
1732,1011,1054
1733,1008,1049
1734,1006,1046
1735,1004,1051
1736,1013,1056
1737,1015,1059
1738,1013,1048
1739,1012,1043
1740,1011,1039
1741,1009,1040
1742,1010,1041
1743,1005,1038
1744,1002,1039
1745,994,1040
1746,993,1044
1747,993,1049
1748,998,1053
1749,999,1049
1750,999,1051
1751,998,1053
1752,997,1050
1753,995,1056
1754,998,1056
1755,1003,1057
1756,1002,1052
1757,997,1050
1758,995,1055
1759,997,1064
1760,1001,1061
1761,1004,1054
1762,1000,1049
1763,993,1047
1764,987,1051
1765,981,1061
1766,985,1072
1767,993,1074
1768,1011,1075
1769,1039,1079
1770,1076,1086
1771,1131,1093
1772,1195,1094
1773,1257,1081
1774,1303,1057
1775,1298,1028
1776,1233,1012
1777,1126,1008
1778,1002,1014
1779,905,1013
1780,871,1007
1781,891,1007
1782,929,1009
1783,959,1017
1784,975,1027
1785,984,1037
1786,990,1041
1787,990,1042
1788,991,1049
1789,990,1053
1790,990,1056
1791,993,1050
1792,994,1050
1793,992,1052
1794,991,1049
1795,992,1050
1796,993,1053
1797,999,1055
1798,1000,1054
1799,999,1048
1800,994,1053
1801,991,1056
1802,997,1057
1803,999,1052
1804,1001,1044
1805,999,1041
1806,997,1043
1807,996,1048
1808,999,1052
1809,1000,1052
1810,999,1049
1811,998,1046
1812,998,1050
1813,1000,1053
1814,1002,1057
1815,1008,1057
1816,1008,1056
1817,1008,1054
1818,1009,1055
1819,1011,1054
1820,1011,1055
1821,1016,1054
1822,1016,1057
1823,1016,1054
1824,1016,1052
1825,1018,1059
1826,1025,1065
1827,1031,1068
1828,1031,1064
1829,1034,1056
1830,1033,1055
1831,1037,1055
1832,1043,1053
1833,1045,1054
1834,1045,1056
1835,1045,1055
1836,1045,1056
1837,1047,1056
1838,1053,1056
1839,1055,1057
1840,1056,1056
1841,1055,1055
1842,1052,1055
1843,1052,1061
1844,1054,1067
1845,1060,1066
1846,1061,1062
1847,1060,1056
1848,1056,1058
1849,1057,1059
1850,1061,1065
1851,1064,1068
1852,1063,1063
1853,1062,1061
1854,1060,1059
1855,1057,1062
1856,1056,1064
1857,1056,1061
1858,1055,1054
1859,1049,1050
1860,1047,1049
1861,1046,1057
1862,1047,1057
1863,1045,1057
1864,1038,1056
1865,1032,1057
1866,1029,1057
1867,1025,1059
1868,1024,1059
1869,1023,1057
1870,1022,1055
1871,1014,1053
1872,1014,1052
1873,1013,1054
1874,1014,1055
1875,1012,1057
1876,1011,1058
1877,1006,1053
1878,1006,1051
1879,1008,1052
1880,1011,1054
1881,1010,1054
1882,1011,1055
1883,1006,1053
1884,1003,1053
1885,1001,1057
1886,1004,1060
1887,1006,1058
1888,1005,1054
1889,1002,1048
1890,1001,1048
1891,1001,1050
1892,1003,1049
1893,1005,1050
1894,1006,1049
1895,1005,1046
1896,1003,1045
1897,1002,1044
1898,1003,1049
1899,1004,1050
1900,1004,1051
1901,1002,1049
1902,999,1047
1903,999,1047
1904,999,1049
1905,1003,1050
1906,1002,1053
1907,998,1053
1908,995,1051
1909,997,1051
1910,998,1052
1911,1000,1057
1912,999,1056
1913,996,1059
1914,996,1061
1915,999,1065
1916,1004,1060
1917,1004,1055
1918,1001,1052
1919,1001,1055
1920,1002,1051
1921,1002,1048
1922,1004,1048
1923,1008,1046
1924,1007,1048
1925,1006,1046
1926,1007,1045
1927,1009,1049
1928,1012,1052
1929,1014,1056
1930,1016,1057
1931,1014,1057
1932,1011,1053
1933,1014,1052
1934,1018,1052
1935,1021,1052
1936,1021,1052
1937,1016,1051
1938,1015,1048
1939,1015,1047
1940,1014,1049
1941,1016,1050
1942,1012,1047
1943,1013,1045
1944,1010,1044
1945,1010,1044
1946,1013,1043
1947,1013,1039
1948,1012,1038
1949,1006,1036
1950,1002,1036
1951,1001,1038
1952,1001,1045
1953,1003,1049
1954,1005,1051
1955,1002,1049
1956,1001,1046
1957,1005,1041
1958,1011,1040
1959,1012,1037
1960,1009,1037
1961,1004,1040
1962,1001,1039
1963,995,1044
1964,993,1047
1965,992,1048
1966,991,1048
1967,986,1044
1968,984,1049
1969,987,1052
1970,987,1058
1971,992,1060
1972,990,1053
1973,989,1046
1974,989,1046
1975,984,1047
1976,990,1051
1977,991,1050
1978,990,1049
1979,990,1045
1980,988,1044
1981,986,1048
1982,991,1053
1983,992,1053
1984,988,1050
1985,985,1049
1986,983,1047
1987,980,1048
1988,973,1051
1989,968,1060
1990,970,1067
1991,975,1067
1992,987,1069
1993,1012,1073
1994,1048,1080
1995,1093,1083
1996,1140,1087
1997,1190,1084
1998,1239,1074
1999,1271,1063
2000,1281,1045
2001,1254,1026
2002,1200,1009
2003,1127,1003
2004,1048,1004
2005,960,1006
2006,888,1004
2007,862,1002
2008,872,1002
2009,893,1003
2010,911,1005
2011,927,1015
2012,945,1029
2013,959,1034
2014,967,1036
2015,971,1035
2016,976,1041
2017,981,1047
2018,984,1054
2019,981,1054
2020,979,1052
2021,977,1047
2022,977,1049
2023,975,1048
2024,976,1053
2025,981,1049
2026,981,1044
2027,979,1036
2028,979,1036
2029,978,1042
2030,981,1047
2031,985,1050
2032,982,1047
2033,982,1044
2034,982,1044
2035,981,1046
2036,984,1051
2037,988,1052
2038,986,1049
2039,984,1046
2040,983,1046
2041,982,1048
2042,986,1049
2043,991,1050
2044,992,1046
2045,989,1046
2046,986,1047
2047,991,1050
2048,995,1050
2049,998,1056
2050,999,1051
2051,995,1046
2052,994,1044
2053,996,1049
2054,1000,1051
2055,1004,1054
2056,1004,1052
2057,1004,1050
2058,1003,1054
2059,1004,1059
2060,1008,1067
2061,1012,1073
2062,1014,1069
2063,1014,1062
2064,1018,1060
2065,1021,1058
2066,1025,1058
2067,1022,1058
2068,1028,1058
2069,1028,1055
2070,1029,1057
2071,1033,1057
2072,1039,1056
2073,1042,1054
2074,1044,1051
2075,1043,1048
2076,1042,1050
2077,1043,1053
2078,1046,1056
2079,1047,1057
2080,1047,1054
2081,1047,1053
2082,1044,1058
2083,1047,1057
2084,1049,1058
2085,1053,1055
2086,1049,1054
2087,1047,1051
2088,1045,1053
2089,1043,1056
2090,1044,1059
2091,1046,1061
2092,1044,1060
2093,1042,1058
2094,1039,1061
2095,1037,1065
2096,1033,1066
2097,1033,1067
2098,1029,1063
2099,1026,1057
2100,1020,1053
2101,1018,1055
2102,1016,1055
2103,1014,1060
2104,1010,1060
2105,1007,1059
2106,1006,1055
2107,1005,1051
2108,1004,1048
2109,1006,1047
2110,998,1048
2111,994,1048
2112,996,1047
2113,996,1050
2114,999,1051
2115,997,1051
2116,993,1047
2117,993,1045
2118,991,1047
2119,992,1050
2120,992,1057
2121,994,1059
2122,990,1055
2123,991,1054
2124,988,1053
2125,989,1058
2126,989,1058
2127,997,1052
2128,996,1044
2129,991,1040
2130,989,1041
2131,987,1045
2132,992,1046
2133,991,1048
2134,993,1052
2135,989,1050
2136,984,1051
2137,986,1052
2138,989,1055
2139,992,1055
2140,993,1050
2141,993,1045
2142,991,1045
2143,991,1043
2144,992,1048
2145,992,1049
2146,994,1049
2147,990,1046
2148,990,1044
2149,991,1047
2150,990,1049
2151,990,1050
2152,991,1046
2153,989,1045
2154,991,1046
2155,992,1049
2156,994,1050
2157,996,1048
2158,998,1044
2159,995,1043
2160,991,1044
2161,993,1047
2162,997,1048
2163,996,1047
2164,998,1046
2165,997,1046
2166,998,1048
2167,1000,1050
2168,1003,1051
2169,1001,1056
2170,1001,1057
2171,1000,1057
2172,1001,1057
2173,1004,1059
2174,1006,1060
2175,1007,1056
2176,1004,1048
2177,1001,1041
2178,1000,1039
2179,1000,1040
2180,1004,1047
2181,1004,1053
2182,1002,1051
2183,998,1050
2184,997,1049
2185,997,1038
2186,1000,1031
2187,1000,1029
2188,996,1028
2189,993,1024
2190,991,1026
2191,990,1029
2192,993,1032
2193,993,1036
2194,992,1037
2195,993,1033
2196,993,1035
2197,992,1040
2198,994,1043
2199,992,1043
2200,987,1041
2201,980,1041
2202,976,1040
2203,976,1044
2204,977,1045
2205,979,1048
2206,978,1049
2207,977,1048
2208,975,1048
2209,975,1050
2210,980,1056
2211,982,1054
2212,981,1051
2213,978,1044
2214,973,1044
2215,974,1051
2216,973,1059
2217,977,1060
2218,978,1054
2219,973,1048
2220,976,1045
2221,977,1044
2222,978,1044
2223,976,1042
2224,973,1045
2225,967,1049
2226,960,1058
2227,959,1069
2228,967,1076
2229,984,1079
2230,1003,1076
2231,1029,1068
2232,1063,1065
2233,1113,1065
2234,1166,1073
2235,1218,1072
2236,1253,1061
2237,1267,1046
2238,1243,1025
2239,1187,1006
2240,1114,1002
2241,1033,1003
2242,944,1001
2243,871,998
2244,844,995
2245,857,1000
2246,880,1003
2247,901,1011
2248,921,1013
2249,940,1015
2250,949,1019
2251,954,1027
2252,962,1036
2253,965,1042
2254,970,1043
2255,968,1047
2256,966,1050
2257,965,1052
2258,971,1051
2259,974,1045
2260,974,1042
2261,974,1039
2262,972,1040
2263,972,1048
2264,975,1052
2265,975,1051
2266,972,1050
2267,974,1045
2268,971,1044
2269,973,1044
2270,973,1043
2271,974,1045
2272,973,1047
2273,975,1047
2274,979,1047
2275,982,1047
2276,981,1047
2277,985,1046
2278,984,1047
2279,984,1045
2280,984,1045
2281,984,1048
2282,986,1051
2283,987,1050
2284,985,1053
2285,986,1057
2286,987,1061
2287,991,1059
2288,991,1066
2289,993,1060
2290,997,1055
2291,999,1049
2292,1001,1046
2293,1005,1044
2294,1008,1048
2295,1010,1049
2296,1011,1049
2297,1011,1048
2298,1009,1051
2299,1012,1057
2300,1018,1060
2301,1020,1064
2302,1021,1066
2303,1023,1061
2304,1024,1056
2305,1027,1057
2306,1029,1055
2307,1032,1059
2308,1032,1061
2309,1033,1061
2310,1035,1059
2311,1037,1056
2312,1039,1052
2313,1043,1050
2314,1041,1051
2315,1039,1049
2316,1036,1055
2317,1038,1058
2318,1042,1063
2319,1042,1057
2320,1044,1055
2321,1040,1054
2322,1037,1056
2323,1039,1060
2324,1039,1062
2325,1043,1060
2326,1035,1055
2327,1032,1053
2328,1033,1054
2329,1032,1056
2330,1033,1059
2331,1031,1058
2332,1026,1056
2333,1021,1052
2334,1018,1054
2335,1016,1055
2336,1016,1056
2337,1016,1054
2338,1011,1051
2339,1004,1048
2340,1000,1047
2341,1002,1048
2342,1001,1048
2343,997,1046
2344,997,1045
2345,993,1043
2346,990,1049
2347,988,1053
2348,992,1055
2349,990,1051
2350,988,1051
2351,987,1049
2352,983,1051
2353,985,1051
2354,989,1056
2355,989,1054
2356,990,1055
2357,986,1050
2358,986,1053
2359,984,1057
2360,986,1058
2361,988,1052
2362,990,1043
2363,989,1037
2364,987,1038
2365,987,1039
2366,992,1043
2367,993,1039
2368,988,1039
2369,982,1039
2370,977,1044
2371,982,1046
2372,984,1047
2373,988,1047
2374,984,1047
2375,983,1046
2376,981,1052
2377,982,1049
2378,988,1047
2379,990,1050
2380,988,1042
2381,983,1040
2382,983,1043
2383,986,1045
2384,984,1050
2385,986,1052
2386,984,1054
2387,985,1050
2388,982,1050
2389,980,1051
2390,985,1054
2391,985,1057
2392,985,1055
2393,983,1051
2394,977,1047
2395,980,1045
2396,985,1045
2397,988,1043
2398,989,1041
2399,986,1040
2400,984,1037
2401,985,1039
2402,987,1044
2403,989,1046
2404,991,1052
2405,992,1055
2406,993,1057
2407,989,1059
2408,994,1058
2409,996,1054
2410,993,1047
2411,995,1045
2412,991,1047
2413,997,1043
2414,998,1042
2415,1000,1035
2416,997,1030
2417,993,1031
2418,991,1032
2419,991,1037
2420,994,1035
2421,990,1034
2422,991,1032
2423,989,1031
2424,985,1035
2425,985,1036
2426,985,1033
2427,983,1027
2428,985,1023
2429,983,1023
2430,982,1024
2431,981,1024
2432,981,1031
2433,985,1031
2434,985,1040
2435,981,1041
2436,979,1044
2437,975,1048
2438,979,1052
2439,977,1053
2440,974,1049
2441,969,1042
2442,964,1039
2443,964,1039
2444,968,1041
2445,971,1041
2446,969,1042
2447,967,1041
2448,965,1041
2449,965,1044
2450,969,1048
2451,971,1046
2452,971,1046
2453,967,1045
2454,963,1042
2455,966,1038
2456,967,1039
2457,970,1038
2458,971,1041
2459,967,1037
2460,967,1037
2461,969,1039
2462,972,1041
2463,970,1041
2464,965,1044
2465,958,1046
2466,950,1053
2467,950,1062
2468,958,1066
2469,971,1066
2470,988,1067
2471,1016,1065
2472,1048,1065
2473,1094,1068
2474,1146,1070
2475,1189,1068
2476,1229,1056
2477,1245,1039
2478,1227,1022
2479,1182,1003
2480,1121,995
2481,1047,995
2482,957,999
2483,874,998
2484,836,995
2485,843,993
2486,864,995
2487,888,997
2488,910,1002
2489,929,1008
2490,937,1015
2491,947,1024
2492,954,1030
2493,960,1031
2494,963,1030
2495,961,1033
2496,957,1031
2497,958,1035
2498,960,1039
2499,960,1038
2500,960,1037
2501,958,1038
2502,959,1039
2503,960,1042
2504,961,1045
2505,963,1044
2506,967,1047
2507,966,1048
2508,964,1046
2509,961,1046
2510,961,1045
2511,966,1048
2512,970,1045
2513,971,1039
2514,970,1036
2515,972,1038
2516,974,1037
2517,975,1042
2518,977,1042
2519,974,1041
2520,974,1043
2521,973,1039
2522,976,1041
2523,979,1042
2524,978,1046
2525,980,1047
2526,976,1045
2527,977,1043
2528,981,1040
2529,984,1037
2530,983,1035
2531,987,1033
2532,988,1036
2533,991,1036
2534,996,1038
2535,997,1043
2536,995,1043
2537,995,1043
2538,997,1043
2539,1002,1043
2540,1008,1044
2541,1011,1047
2542,1012,1049
2543,1015,1049
2544,1016,1047
2545,1017,1048
2546,1020,1053
2547,1024,1050
2548,1023,1048
2549,1025,1040
2550,1024,1037
2551,1023,1043
2552,1025,1045
2553,1030,1047
2554,1034,1045
2555,1033,1042
2556,1032,1045
2557,1032,1048
2558,1036,1055
2559,1034,1058
2560,1031,1060
2561,1031,1056
2562,1031,1049
2563,1036,1045
2564,1038,1042
2565,1039,1042
2566,1035,1044
2567,1034,1047
2568,1031,1048
2569,1028,1047
2570,1028,1047
2571,1028,1045
2572,1023,1045
2573,1019,1047
2574,1015,1044
2575,1005,1043
2576,1000,1045
2577,1001,1046
2578,998,1048
2579,996,1042
2580,992,1039
2581,986,1035
2582,984,1036
2583,984,1038
2584,983,1038
2585,981,1044
2586,980,1045
2587,976,1048
2588,979,1045
2589,979,1042
2590,978,1039
2591,973,1039
2592,974,1039
2593,974,1041
2594,972,1043
2595,973,1043
2596,975,1042
2597,976,1041
2598,970,1044
2599,973,1051
2600,975,1053
2601,977,1050
2602,978,1042
2603,976,1039
2604,972,1041
2605,969,1038
2606,970,1035
2607,971,1034
2608,976,1028
2609,972,1027
2610,969,1027
2611,971,1031
2612,972,1036
2613,972,1039
2614,970,1039
2615,974,1040
2616,974,1042
2617,975,1042
2618,972,1046
2619,974,1045
2620,972,1041
2621,968,1035
2622,969,1034
2623,969,1036
2624,969,1037
2625,974,1038
2626,973,1038
2627,972,1041
2628,971,1043
2629,974,1045
2630,977,1042
2631,981,1039
2632,979,1032
2633,977,1028
2634,974,1029
2635,976,1033
2636,981,1042
2637,986,1043
2638,989,1041
2639,986,1042
2640,984,1044
2641,985,1046
2642,990,1045
2643,992,1043
2644,990,1041
2645,990,1043
2646,988,1043
2647,990,1046
2648,989,1044
2649,991,1039
2650,992,1034
2651,989,1030
2652,986,1028
2653,985,1028
2654,985,1031
2655,989,1031
2656,985,1029
2657,985,1026
2658,980,1025
2659,979,1026
2660,979,1031
2661,982,1033
2662,983,1029
2663,981,1024
2664,979,1025
2665,980,1029
2666,981,1034
2667,986,1033
2668,984,1033
2669,981,1032
2670,974,1033
2671,969,1038
2672,967,1039
2673,964,1037
2674,968,1036
2675,965,1036
2676,965,1036
2677,965,1041
2678,966,1045
2679,969,1044
2680,967,1038
2681,965,1035
2682,964,1038
2683,963,1040
2684,967,1040
2685,970,1032
2686,970,1033
2687,964,1033
2688,963,1031
2689,964,1035
2690,967,1040
2691,970,1043
2692,968,1040
2693,966,1038
2694,960,1038
2695,953,1043
2696,951,1050
2697,956,1056
2698,963,1055
2699,974,1054
2700,993,1054
2701,1028,1059
2702,1075,1062
2703,1122,1067
2704,1177,1068
2705,1219,1062
2706,1231,1050
2707,1208,1033
2708,1158,1014
2709,1090,1002
2710,1004,998
2711,911,997
2712,856,999
2713,849,1003
2714,861,1008
2715,876,1006
2716,894,1007
2717,910,1007
2718,927,1009
2719,937,1018
2720,947,1029
2721,949,1035
2722,956,1037
2723,958,1036
2724,961,1035
2725,964,1035
2726,964,1035
2727,963,1035
2728,962,1034
2729,965,1035
2730,964,1035
2731,961,1036
2732,963,1035
2733,966,1036
2734,967,1038
2735,965,1042
2736,964,1046
2737,966,1043
2738,971,1038
2739,974,1033
2740,976,1028
2741,974,1028
2742,973,1031
2743,974,1034
2744,976,1037
2745,979,1039
2746,978,1039
2747,980,1039
2748,980,1043
2749,981,1050
2750,983,1051
2751,985,1048
2752,987,1043
2753,989,1038
2754,987,1033
2755,988,1034
2756,993,1034
2757,996,1038
2758,993,1038
2759,995,1037
2760,999,1036
2761,1000,1035
2762,1000,1037
2763,1003,1038
2764,1004,1044
2765,1005,1044
2766,1004,1049
2767,1005,1048
2768,1010,1050
2769,1017,1046
2770,1017,1043
2771,1017,1041
2772,1019,1038
2773,1020,1035
2774,1027,1039
2775,1031,1038
2776,1032,1038
2777,1033,1037
2778,1029,1042
2779,1032,1045
2780,1037,1049
2781,1035,1049
2782,1037,1049
2783,1035,1049
2784,1033,1047
2785,1038,1050
2786,1040,1050
2787,1039,1051
2788,1038,1053
2789,1038,1057
2790,1037,1057
2791,1038,1055
2792,1037,1050
2793,1037,1045
2794,1037,1044
2795,1034,1045
2796,1032,1042
2797,1033,1041
2798,1032,1044
2799,1030,1043
2800,1029,1047
2801,1024,1050
2802,1019,1049
2803,1018,1050
2804,1018,1053
2805,1016,1048
2806,1014,1046
2807,1007,1040
2808,1005,1035
2809,1003,1037
2810,1002,1042
2811,1001,1042
2812,1001,1040
2813,996,1040
2814,991,1041
2815,992,1048
2816,994,1052
2817,994,1053
2818,991,1046
2819,990,1038
2820,989,1040
2821,989,1042
2822,993,1046
2823,994,1048
2824,993,1048
2825,991,1039
2826,988,1036
2827,987,1041
2828,988,1044
2829,992,1044
2830,992,1043
2831,991,1039
2832,989,1037
2833,989,1039
2834,993,1043
2835,996,1045
2836,995,1046
2837,994,1043
2838,993,1044
2839,993,1045
2840,992,1046
2841,994,1046
2842,996,1044
2843,992,1043
2844,989,1047
2845,993,1050
2846,996,1053
2847,999,1051
2848,1002,1045
2849,997,1040
2850,994,1042
2851,994,1043
2852,996,1048
2853,997,1051
2854,1000,1048
2855,999,1042
2856,998,1041
2857,996,1044
2858,998,1044
2859,998,1041
2860,1000,1039
2861,996,1043
2862,997,1039
2863,997,1041
2864,1001,1047
2865,1004,1048
2866,1009,1048
2867,1008,1041
2868,1008,1043
2869,1008,1047
2870,1009,1052
2871,1010,1056
2872,1009,1051
2873,1011,1046
2874,1010,1046
2875,1011,1047
2876,1013,1049
2877,1013,1048
2878,1011,1046
2879,1008,1043
2880,1005,1044
2881,1006,1044
2882,1008,1043
2883,1009,1042
2884,1011,1040
2885,1008,1041
2886,1005,1042
2887,1005,1043
2888,1006,1041
2889,1004,1035
2890,1004,1030
2891,998,1030
2892,998,1032
2893,997,1037
2894,1001,1042
2895,1005,1045
2896,1009,1046
2897,1010,1044
2898,1007,1038
2899,1003,1034
2900,999,1037
2901,995,1041
2902,992,1041
2903,988,1043
2904,987,1047
2905,985,1051
2906,991,1057
2907,992,1055
2908,992,1052
2909,988,1046
2910,989,1042
2911,989,1048
2912,989,1047
2913,992,1048
2914,991,1047
2915,988,1045
2916,984,1045
2917,985,1048
2918,988,1053
2919,990,1049
2920,991,1048
2921,987,1048
2922,984,1052
2923,981,1057
2924,979,1062
2925,979,1065
2926,982,1071
2927,993,1076
2928,1015,1076
2929,1051,1074
2930,1091,1076
2931,1143,1080
2932,1198,1083
2933,1248,1084
2934,1286,1074
2935,1295,1057
2936,1263,1034
2937,1191,1016
2938,1097,1006
2939,989,1006
2940,898,1006
2941,864,1005
2942,878,1002
2943,905,1002
2944,931,1008
2945,948,1015
2946,957,1024
2947,966,1031
2948,976,1041
2949,980,1043
2950,980,1048
2951,978,1050
2952,975,1055
2953,979,1055
2954,980,1054
2955,982,1050
2956,985,1046
2957,983,1043
2958,981,1044
2959,979,1049
2960,981,1050
2961,984,1052
2962,984,1054
2963,983,1054
2964,983,1055
2965,982,1055
2966,984,1051
2967,989,1052
2968,990,1052
2969,989,1052
2970,991,1048
2971,993,1044
2972,997,1040
2973,998,1043
2974,996,1045
2975,994,1045
2976,996,1045
2977,996,1047
2978,998,1051
2979,1000,1051
2980,1001,1055
2981,1002,1052
2982,1002,1053
2983,1005,1056
2984,1005,1061
2985,1007,1063
2986,1009,1061
2987,1008,1057
2988,1010,1053
2989,1011,1052
2990,1013,1055
2991,1017,1057
2992,1022,1059
2993,1023,1058
2994,1023,1059
2995,1025,1062
2996,1030,1062
2997,1036,1059
2998,1037,1057
2999,1035,1058
3000,1033,1059
3001,1034,1064
3002,1041,1063
3003,1044,1059
3004,1046,1055
3005,1045,1052
3006,1044,1055
3007,1045,1055
3008,1045,1060
3009,1046,1065
3010,1047,1067
3011,1047,1063
3012,1047,1064
3013,1047,1066
3014,1048,1065
3015,1051,1063
3016,1052,1064
3017,1051,1062
3018,1048,1057
3019,1045,1053
3020,1048,1054
3021,1047,1057
3022,1048,1059
3023,1039,1059
3024,1035,1060
3025,1033,1064
3026,1035,1063
3027,1036,1063
3028,1031,1059
3029,1024,1056
3030,1017,1055
3031,1013,1058
3032,1017,1061
3033,1016,1059
3034,1015,1058
3035,1011,1054
3036,1006,1051
3037,1005,1050
3038,1003,1051
3039,1008,1054
3040,1005,1056
3041,1000,1055
3042,997,1051
3043,998,1055
3044,1001,1058
3045,1001,1055
3046,1001,1052
3047,1000,1050
3048,996,1050
3049,996,1051
3050,1000,1051
3051,1000,1050
3052,998,1051
3053,998,1051
3054,997,1054
3055,994,1057
3056,997,1061
3057,997,1061
3058,998,1056
3059,997,1055
3060,996,1055
3061,994,1055
3062,995,1055
3063,996,1056
3064,996,1055
3065,994,1050
3066,994,1049
3067,991,1051
3068,994,1057
3069,996,1057
3070,995,1056
3071,997,1056
3072,992,1057
3073,990,1059
3074,996,1060
3075,993,1057
3076,999,1055
3077,997,1048
3078,993,1048
3079,991,1050
3080,995,1052
3081,999,1049
3082,996,1048
3083,994,1048
3084,993,1046
3085,992,1052
3086,994,1062
3087,995,1069
3088,996,1068
3089,997,1064
3090,997,1048
3091,999,1040
3092,997,1039
3093,1000,1046
3094,999,1050
3095,1002,1052
3096,1002,1055
3097,1004,1062
3098,1006,1063
3099,1008,1066
3100,1009,1065
3101,1010,1063
3102,1010,1063
3103,1009,1056
3104,1013,1057
3105,1013,1054
3106,1010,1050
3107,1008,1048
3108,1008,1048
3109,1010,1049
3110,1010,1049
3111,1010,1045
3112,1006,1042
3113,1004,1039
3114,1002,1038
3115,1002,1038
3116,996,1041
3117,998,1042
3118,997,1047
3119,993,1044
3120,995,1042
3121,996,1041
3122,997,1039
3123,997,1038
3124,999,1040
3125,995,1036
3126,997,1040
3127,996,1044
3128,998,1049
3129,996,1052
3130,991,1052
3131,987,1051
3132,983,1053
3133,980,1058
3134,980,1059
3135,984,1055
3136,982,1050
3137,981,1049
3138,978,1047
3139,982,1049
3140,982,1048
3141,982,1053
3142,983,1054
3143,983,1052
3144,983,1052
3145,982,1046
3146,984,1047
3147,984,1048
3148,985,1050
3149,981,1051
3150,976,1054
3151,981,1053
3152,981,1053
3153,978,1051
3154,970,1055
3155,966,1059
3156,968,1066
3157,976,1072
3158,999,1079
3159,1027,1080
3160,1061,1075
3161,1101,1077
3162,1150,1082
3163,1202,1079
3164,1251,1075
3165,1271,1059
3166,1253,1032
3167,1193,1010
3168,1117,1003
3169,1034,1005
3170,945,1007
3171,879,1004
3172,859,1001
3173,870,998
3174,888,1001
3175,910,1013
3176,932,1024
3177,948,1033
3178,960,1033
3179,967,1032
3180,971,1033
3181,973,1038
3182,976,1045
3183,978,1050
3184,980,1051
3185,978,1048
3186,975,1049
3187,975,1047
3188,976,1047
3189,975,1049
3190,975,1050
3191,978,1050
3192,978,1051
3193,981,1051
3194,982,1051
3195,981,1051
3196,981,1052
3197,979,1054
3198,979,1049
3199,981,1049
3200,985,1053
3201,985,1056
3202,985,1056
3203,983,1053
3204,984,1052
3205,986,1057
3206,988,1058
3207,992,1055
3208,993,1044
3209,990,1039
3210,993,1043
3211,992,1049
3212,993,1055
3213,996,1060
3214,1000,1059
3215,997,1052
3216,1000,1050
3217,1002,1052
3218,1003,1059
3219,1007,1065
3220,1006,1058
3221,1010,1053
3222,1011,1050
3223,1014,1056
3224,1017,1060
3225,1023,1065
3226,1023,1064
3227,1022,1062
3228,1022,1061
3229,1027,1058
3230,1030,1057
3231,1034,1060
3232,1038,1062
3233,1037,1065
3234,1036,1065
3235,1037,1066
3236,1042,1066
3237,1043,1060
3238,1044,1057
3239,1044,1056
3240,1040,1062
3241,1043,1064
3242,1047,1067
3243,1048,1072
3244,1049,1071
3245,1048,1066
3246,1045,1067
3247,1045,1068
3248,1048,1067
3249,1046,1065
3250,1049,1064
3251,1042,1060
3252,1042,1057
3253,1041,1056
3254,1039,1057
3255,1041,1062
3256,1037,1062
3257,1033,1063
3258,1026,1062
3259,1023,1062
3260,1021,1064
3261,1020,1060
3262,1015,1056
3263,1013,1054
3264,1006,1055
3265,1006,1058
3266,1004,1062
3267,1007,1063
3268,1004,1059
3269,998,1054
3270,995,1052
3271,993,1055
3272,994,1061
3273,997,1062
3274,998,1058
3275,996,1053
3276,994,1052
3277,993,1057
3278,993,1060
3279,996,1057
3280,997,1051
3281,994,1050
3282,991,1051
3283,990,1051
3284,993,1054
3285,994,1054
3286,994,1052
3287,991,1057
3288,991,1055
3289,993,1058
3290,994,1057
3291,995,1053
3292,994,1047
3293,990,1046
3294,990,1048
3295,988,1054
3296,991,1054
3297,993,1053
3298,994,1053
3299,991,1051
3300,991,1054
3301,989,1053
3302,991,1052
3303,995,1054
3304,993,1055
3305,991,1053
3306,990,1052
3307,992,1055
3308,995,1057
3309,994,1060
3310,996,1054
3311,994,1050
3312,990,1049
3313,991,1051
3314,993,1052
3315,998,1060
3316,995,1058
3317,995,1059
3318,996,1046
3319,995,1035
3320,1001,1037
3321,1004,1044
3322,1006,1055
3323,1005,1057
3324,1003,1059
3325,1002,1058
3326,1006,1061
3327,1010,1061
3328,1012,1058
3329,1013,1053
3330,1009,1047
3331,1009,1047
3332,1009,1048
3333,1008,1049
3334,1011,1045
3335,1009,1042
3336,1008,1038
3337,1007,1042
3338,1009,1045
3339,1006,1042
3340,1002,1041
3341,999,1042
3342,1000,1046
3343,997,1047
3344,997,1049
3345,998,1051
3346,998,1046
3347,995,1038
3348,992,1035
3349,992,1037
3350,997,1039
3351,1000,1045
3352,999,1049
3353,994,1054
3354,988,1056
3355,988,1056
3356,987,1053
3357,986,1046
3358,983,1043
3359,980,1046
3360,980,1050
3361,980,1052
3362,982,1058
3363,983,1058
3364,984,1048
3365,980,1043
3366,980,1040
3367,983,1043
3368,983,1046
3369,982,1050
3370,984,1052
3371,983,1052
3372,982,1051
3373,984,1051
3374,986,1050
3375,983,1054
3376,981,1059
3377,978,1060
3378,973,1063
3379,966,1068
3380,966,1073
3381,972,1073
3382,986,1072
3383,1005,1068
3384,1033,1072
3385,1069,1079
3386,1117,1084
3387,1169,1086
3388,1221,1076
3389,1255,1064
3390,1260,1044
3391,1223,1025
3392,1162,1014
3393,1086,1009
3394,997,1008
3395,905,1004
3396,853,996
3397,854,995
3398,879,998
3399,909,1006
3400,929,1009
3401,948,1016
3402,956,1029
3403,962,1039
3404,972,1050
3405,979,1051
3406,980,1045
3407,977,1047
3408,976,1048
3409,978,1045
3410,980,1048
3411,980,1050
3412,977,1054
3413,975,1053
3414,976,1049
3415,977,1045
3416,978,1047
3417,982,1052
3418,984,1054
3419,982,1049
3420,979,1047
3421,979,1048
3422,982,1053
3423,985,1052
3424,984,1051
3425,982,1049
3426,984,1045
3427,983,1047
3428,987,1053
3429,988,1054
3430,990,1055
3431,990,1051
3432,989,1051
3433,990,1052
3434,992,1056
3435,995,1060
3436,996,1059
3437,995,1059
3438,996,1060
3439,997,1060
3440,1002,1059
3441,1007,1056
3442,1010,1051
3443,1008,1047
3444,1011,1049
3445,1013,1052
3446,1017,1056
3447,1019,1055
3448,1019,1055
3449,1017,1051
3450,1023,1052
3451,1024,1054
3452,1027,1060
3453,1031,1060
3454,1030,1061
3455,1034,1058
3456,1031,1057
3457,1034,1060
3458,1036,1062
3459,1040,1059
3460,1039,1057
3461,1040,1056
3462,1039,1059
3463,1037,1062
3464,1043,1067
3465,1046,1067
3466,1048,1066
3467,1047,1062
3468,1044,1062
3469,1044,1063
3470,1046,1067
3471,1049,1068
3472,1050,1065
3473,1048,1062
3474,1045,1057
3475,1046,1054
3476,1048,1053
3477,1047,1056
3478,1043,1058
3479,1041,1055
3480,1035,1055
3481,1032,1057
3482,1032,1062
3483,1033,1059
3484,1029,1060
3485,1025,1058
3486,1022,1058
3487,1016,1058
3488,1016,1063
3489,1015,1060
3490,1015,1059
3491,1010,1054
3492,1006,1051
3493,1003,1055
3494,1005,1057
3495,1006,1058
3496,1004,1054
3497,999,1049
3498,995,1050
3499,995,1052
3500,995,1055
3501,1000,1056
3502,1000,1052
3503,993,1046
3504,990,1049
3505,989,1053
3506,990,1059
3507,993,1063
3508,993,1061
3509,994,1056
3510,994,1053
3511,989,1052
3512,993,1049
3513,996,1050
3514,997,1048
3515,996,1047
3516,995,1044
3517,994,1048
3518,994,1049
3519,997,1050
3520,998,1051
3521,994,1053
3522,994,1051
3523,993,1051
3524,994,1046
3525,996,1048
3526,999,1051
3527,997,1048
3528,996,1047
3529,993,1045
3530,993,1048
3531,994,1050
3532,996,1049
3533,992,1044
3534,991,1044
3535,992,1043
3536,994,1047
3537,997,1050
3538,995,1046
3539,993,1047
3540,991,1046
3541,992,1045
3542,994,1049
3543,995,1054
3544,993,1051
3545,994,1046
3546,988,1045
3547,988,1046
3548,993,1050
3549,996,1053
3550,1001,1057
3551,1001,1052
3552,1001,1052
3553,1005,1057
3554,1006,1060
3555,1006,1055
3556,1009,1051
3557,1009,1054
3558,1008,1055
3559,1011,1054
3560,1014,1050
3561,1013,1047
3562,1011,1040
3563,1010,1039
3564,1006,1039
3565,1004,1038
3566,1006,1042
3567,1013,1040
3568,1009,1037
3569,1003,1036
3570,1001,1037
3571,997,1040
3572,998,1041
3573,997,1039
3574,999,1032
3575,996,1026
3576,996,1026
3577,994,1032
3578,992,1036
3579,997,1043
3580,1000,1044
3581,998,1045
3582,994,1047
3583,992,1052
3584,989,1053
3585,988,1049
3586,986,1046
3587,981,1042
3588,977,1042
3589,977,1047
3590,981,1048
3591,982,1055
3592,980,1058
3593,977,1065
3594,975,1063
3595,976,1057
3596,980,1048
3597,981,1044
3598,981,1043
3599,981,1047
3600,980,1045
3601,979,1043
3602,979,1040
3603,984,1041
3604,984,1043
3605,979,1043
3606,974,1043
3607,971,1049
3608,968,1057
3609,967,1065
3610,970,1068
3611,974,1068
3612,986,1068
3613,1009,1067
3614,1041,1071
3615,1084,1077
3616,1137,1079
3617,1188,1077
3618,1232,1067
3619,1253,1055
3620,1238,1034
3621,1184,1011
3622,1109,997
3623,1020,996
3624,925,1002
3625,860,1003
3626,846,1004
3627,869,1006
3628,895,1008
3629,917,1012
3630,939,1016
3631,955,1020
3632,964,1019
3633,973,1024
3634,976,1033
3635,977,1038
3636,975,1042
3637,975,1042
3638,977,1042
3639,978,1041
3640,978,1044
3641,978,1045
3642,977,1046
3643,977,1045
3644,979,1047
3645,980,1050
3646,982,1050
3647,980,1050
3648,980,1047
3649,982,1048
3650,986,1050
3651,988,1049
3652,989,1050
3653,987,1052
3654,985,1051
3655,985,1056
3656,989,1062
3657,992,1065
3658,991,1072
3659,991,1072
3660,991,1070
3661,993,1061
3662,997,1049
3663,997,1043
3664,996,1036
3665,994,1033
3666,994,1038
3667,994,1044
3668,998,1047
3669,1003,1046
3670,1001,1047
3671,1003,1049
3672,1001,1048
3673,1007,1050
3674,1013,1051
3675,1017,1050
3676,1021,1045
3677,1017,1048
3678,1018,1050
3679,1019,1054
3680,1024,1058
3681,1026,1062
3682,1030,1063
3683,1030,1061
3684,1031,1059
3685,1033,1059
3686,1031,1063
3687,1037,1066
3688,1040,1066
3689,1039,1069
3690,1041,1067
3691,1042,1066
3692,1045,1062
3693,1047,1060
3694,1043,1054
3695,1048,1049
3696,1045,1044
3697,1044,1043
3698,1045,1050
3699,1045,1053
3700,1044,1054
3701,1043,1051
3702,1044,1054
3703,1041,1054
3704,1041,1057
3705,1041,1058
3706,1040,1059
3707,1035,1059
3708,1033,1057
3709,1029,1056
3710,1028,1056
3711,1026,1057
3712,1024,1056
3713,1022,1055
3714,1018,1055
3715,1016,1059
3716,1010,1062
3717,1010,1066
3718,1006,1061
3719,1005,1047
3720,1001,1041
3721,1002,1044
3722,1003,1050
3723,1002,1050
3724,1000,1047
3725,997,1040
3726,993,1036
3727,992,1043
3728,993,1047
3729,991,1047
3730,991,1045
3731,987,1044
3732,984,1044
3733,983,1048
3734,986,1051
3735,989,1052
3736,989,1048
3737,984,1042
3738,982,1043
3739,983,1046
3740,987,1052
3741,993,1052
3742,995,1053
3743,992,1050
3744,988,1053
3745,989,1057
3746,989,1059
3747,992,1058
3748,993,1053
3749,988,1044
3750,987,1038
3751,991,1041
3752,995,1040
3753,998,1038
3754,997,1042
3755,989,1044
3756,988,1041
3757,986,1042
3758,991,1043
3759,995,1043
3760,994,1040
3761,995,1039
3762,989,1037
3763,988,1044
3764,989,1050
3765,992,1052
3766,996,1051
3767,995,1043
3768,991,1041
3769,989,1046
3770,989,1049
3771,992,1047
3772,990,1047
3773,987,1045
3774,987,1046
3775,991,1051
3776,999,1061
3777,1001,1067
3778,1002,1065
3779,1000,1053
3780,1001,1044
3781,1000,1045
3782,1001,1048
3783,1006,1050
3784,1006,1044
3785,1005,1042
3786,1003,1039
3787,1003,1036
3788,1005,1033
3789,1005,1032
3790,1003,1032
3791,1000,1032
3792,997,1032
3793,997,1038
3794,999,1040
3795,1001,1038
3796,997,1035
3797,989,1035
3798,982,1035
3799,983,1039
3800,991,1035
3801,998,1037
3802,996,1036
3803,990,1038
3804,984,1041
3805,987,1042
3806,992,1044
3807,995,1041
3808,993,1039
3809,987,1035
3810,981,1037
3811,978,1043
3812,978,1048
3813,980,1047
3814,978,1044
3815,976,1036
3816,978,1031
3817,978,1032
3818,981,1035
3819,978,1038
3820,978,1040
3821,975,1039
3822,972,1037
3823,973,1040
3824,976,1047
3825,978,1050
3826,979,1049
3827,980,1047
3828,981,1048
3829,977,1046
3830,977,1048
3831,973,1047
3832,969,1044
3833,969,1044
3834,963,1045
3835,958,1054
3836,964,1062
3837,975,1069
3838,989,1069
3839,1013,1071
3840,1042,1067
3841,1085,1072
3842,1138,1075
3843,1191,1079
3844,1230,1075
3845,1250,1060
3846,1231,1044
3847,1190,1026
3848,1134,1009
3849,1067,1005
3850,975,1006
3851,890,1007
3852,852,1012
3853,858,1016
3854,874,1016
3855,889,1012
3856,905,1011
3857,924,1013
3858,938,1019
3859,949,1026
3860,958,1030
3861,966,1033
3862,965,1034
3863,967,1038
3864,968,1034
3865,972,1036
3866,972,1041
3867,975,1042
3868,972,1045
3869,969,1046
3870,966,1045
3871,965,1047
3872,966,1049
3873,975,1054
3874,977,1051
3875,977,1047
3876,977,1045
3877,974,1043
3878,973,1042
3879,972,1046
3880,973,1047
3881,975,1043
3882,977,1039
3883,978,1039
3884,981,1045
3885,984,1047
3886,982,1050
3887,980,1044
3888,981,1040
3889,985,1038
3890,987,1038
3891,989,1040
3892,990,1039
3893,988,1036
3894,991,1036
3895,992,1042
3896,996,1046
3897,1002,1049
3898,1005,1051
3899,1003,1047
3900,1005,1045
3901,1004,1044
3902,1008,1044
3903,1016,1048
3904,1016,1047
3905,1015,1050
3906,1016,1047
3907,1020,1054
3908,1021,1053
3909,1026,1054
3910,1027,1055
3911,1027,1056
3912,1026,1054
3913,1027,1050
3914,1032,1051
3915,1036,1051
3916,1037,1059
3917,1034,1062
3918,1031,1058
3919,1034,1050
3920,1038,1044
3921,1041,1042
3922,1037,1041
3923,1034,1044
3924,1032,1047
3925,1035,1054
3926,1037,1054
3927,1041,1055
3928,1038,1048
3929,1037,1043
3930,1034,1046
3931,1032,1057
3932,1032,1060
3933,1033,1059
3934,1032,1051
3935,1026,1047
3936,1021,1047
3937,1018,1050
3938,1016,1057
3939,1015,1058
3940,1010,1056
3941,1006,1055
3942,1003,1054
3943,996,1055
3944,993,1052
3945,992,1048
3946,992,1047
3947,988,1043
3948,984,1042
3949,983,1050
3950,984,1054
3951,983,1057
3952,981,1053
3953,983,1052
3954,980,1045
3955,978,1045
3956,979,1048
3957,982,1053
3958,983,1057
3959,979,1059
3960,979,1059
3961,982,1054
3962,985,1049
3963,986,1049
3964,982,1052
3965,981,1050
3966,979,1047
3967,980,1048
3968,982,1051
3969,987,1052
3970,985,1054
3971,983,1053
3972,980,1052
3973,982,1053
3974,988,1053
3975,991,1048
3976,989,1046
3977,988,1043
3978,987,1042
3979,987,1045
3980,987,1049
3981,987,1055
3982,986,1056
3983,985,1056
3984,984,1055
3985,985,1061
3986,988,1063
3987,992,1060
3988,994,1053
3989,992,1048
3990,989,1047
3991,988,1048
3992,991,1046
3993,993,1049
3994,997,1055
3995,998,1054
3996,995,1053
3997,994,1054
3998,997,1060
3999,999,1061
4000,999,1060
4001,995,1055
4002,992,1049
4003,993,1049
4004,995,1049
4005,995,1046
4006,994,1042
4007,989,1041
4008,988,1047
4009,988,1049
4010,991,1050
4011,993,1049
4012,991,1045
4013,985,1037
4014,981,1033
4015,979,1038
4016,978,1040
4017,983,1046
4018,983,1045
4019,979,1045
4020,980,1044
4021,981,1046
4022,984,1047
4023,984,1049
4024,983,1048
4025,978,1047
4026,975,1047
4027,970,1050
4028,970,1051
4029,973,1050
4030,972,1051
4031,968,1054
4032,965,1057
4033,968,1059
4034,972,1058
4035,972,1059
4036,970,1057
4037,967,1057
4038,969,1054
4039,971,1057
4040,974,1055
4041,978,1054
4042,977,1049
4043,969,1052
4044,970,1055
4045,970,1059
4046,971,1061
4047,974,1068
4048,973,1068
4049,964,1066
4050,958,1057
4051,952,1056
4052,957,1062
4053,971,1069
4054,987,1075
4055,1013,1076
4056,1045,1080
4057,1091,1084
4058,1148,1089
4059,1202,1088
4060,1243,1080
4061,1256,1064
4062,1230,1041
4063,1173,1025
4064,1098,1022
4065,1012,1029
4066,916,1028
4067,853,1020
4068,839,1011
4069,853,1010
4070,876,1014
4071,898,1024
4072,919,1029
4073,937,1038
4074,950,1044
4075,957,1045
4076,965,1041
4077,970,1042
4078,973,1048
4079,972,1049
4080,972,1047
4081,972,1046
4082,974,1050
4083,976,1053
4084,975,1052
4085,972,1050
4086,972,1052
4087,972,1053
4088,976,1056
4089,976,1060
4090,975,1061
4091,975,1059
4092,975,1057
4093,975,1060
4094,977,1064
4095,977,1065
4096,978,1066
4097,978,1063
4098,980,1057
4099,983,1061
4100,986,1065
4101,989,1064
4102,988,1062
4103,987,1059
4104,986,1056
4105,987,1059
4106,991,1061
4107,992,1061
4108,993,1063
4109,993,1064
4110,996,1066
4111,995,1065
4112,996,1065
4113,1002,1067
4114,1005,1067
4115,1005,1064
4116,1009,1063
4117,1012,1062
4118,1017,1061
4119,1018,1065
4120,1020,1067
4121,1021,1066
4122,1023,1065
4123,1027,1063
4124,1028,1068
4125,1029,1069
4126,1029,1071
4127,1031,1068
4128,1030,1068
4129,1032,1072
4130,1036,1073
4131,1040,1072
4132,1038,1070
4133,1037,1065
4134,1035,1067
4135,1036,1072
4136,1040,1071
4137,1045,1071
4138,1046,1069
4139,1042,1067
4140,1042,1069
4141,1041,1070
4142,1044,1074
4143,1044,1079
4144,1041,1075
4145,1039,1073
4146,1039,1074
4147,1037,1074
4148,1040,1076
4149,1043,1074
4150,1039,1066
4151,1035,1063
4152,1033,1059
4153,1027,1064
4154,1026,1069
4155,1022,1075
4156,1018,1071
4157,1014,1067
4158,1010,1064
4159,1005,1064
4160,1008,1069
4161,1008,1071
4162,1006,1074
4163,1005,1070
4164,1004,1065
4165,998,1064
4166,998,1068
4167,999,1069
4168,996,1070
4169,996,1067
4170,994,1064
4171,992,1067
4172,992,1067
4173,993,1064
4174,996,1063
4175,992,1065
4176,989,1068
4177,988,1071
4178,991,1071
4179,995,1066
4180,994,1063
4181,990,1062
4182,990,1065
4183,991,1071
4184,996,1069
4185,995,1072
4186,995,1069
4187,994,1064
4188,994,1061
4189,992,1062
4190,995,1065
4191,997,1067
4192,996,1071
4193,993,1068
4194,993,1068
4195,992,1066
4196,992,1068
4197,999,1068
4198,997,1064
4199,995,1058
4200,994,1059
4201,994,1061
4202,994,1067
4203,996,1072
4204,994,1071
4205,994,1070
4206,993,1068
4207,990,1070
4208,996,1073
4209,999,1067
4210,998,1064
4211,993,1062
4212,990,1061
4213,992,1065
4214,996,1067
4215,997,1065
4216,996,1064
4217,993,1063
4218,991,1063
4219,992,1064
4220,1000,1072
4221,1004,1071
4222,1007,1069
4223,1007,1065
4224,1007,1069
4225,1004,1074
4226,1003,1081
4227,1008,1086
4228,1008,1084
4229,1012,1074
4230,1011,1061
4231,1012,1055
4232,1013,1057
4233,1016,1058
4234,1011,1062
4235,1010,1066
4236,1009,1067
4237,1008,1065
4238,1011,1057
4239,1011,1054
4240,1010,1054
4241,1005,1051
4242,1003,1051
4243,1001,1050
4244,999,1054
4245,999,1055
4246,1000,1052
4247,1002,1051
4248,999,1052
4249,996,1055
4250,1001,1059
4251,1003,1060
4252,1003,1060
4253,1000,1063
4254,995,1065
4255,994,1068
4256,994,1070
4257,994,1069
4258,992,1067
4259,985,1065
4260,986,1064
4261,983,1064
4262,987,1063
4263,985,1063
4264,985,1063
4265,980,1063
4266,983,1066
4267,980,1067
4268,984,1069
4269,990,1067
4270,988,1067
4271,988,1064
4272,985,1059
4273,981,1060
4274,985,1060
4275,984,1063
4276,985,1061
4277,981,1061
4278,980,1059
4279,979,1065
4280,979,1066
4281,980,1069
4282,975,1065
4283,969,1069
4284,972,1077
4285,981,1083
4286,1005,1089
4287,1037,1092
4288,1074,1095
4289,1122,1097
4290,1169,1102
4291,1222,1103
4292,1271,1100
4293,1290,1087
4294,1269,1059
4295,1209,1033
4296,1133,1016
4297,1046,1015
4298,954,1022
4299,884,1022
4300,854,1017
4301,859,1012
4302,883,1009
4303,905,1014
4304,930,1024
4305,950,1028
4306,957,1031
4307,966,1032
4308,969,1039
4309,974,1047
4310,980,1052
4311,984,1054
4312,985,1053
4313,983,1049
4314,979,1053
4315,975,1053
4316,981,1058
4317,983,1059
4318,983,1060
4319,976,1059
4320,978,1059
4321,978,1059
4322,981,1063
4323,983,1066
4324,983,1066
4325,978,1062
4326,978,1061
4327,977,1069
4328,983,1072
4329,987,1073
4330,988,1073
4331,987,1068
4332,985,1066
4333,985,1064
4334,990,1059
4335,994,1062
4336,993,1065
4337,993,1064
4338,993,1059
4339,994,1051
4340,998,1050
4341,1002,1054
4342,1003,1063
4343,1001,1061
4344,1004,1061
4345,1005,1062
4346,1007,1064
4347,1011,1067
4348,1008,1070
4349,1009,1071
4350,1010,1066
4351,1009,1065
4352,1015,1071
4353,1018,1074
4354,1020,1075
4355,1021,1068
4356,1023,1066
4357,1021,1067
4358,1028,1073
4359,1031,1073
4360,1036,1070
4361,1031,1067
4362,1030,1067
4363,1031,1070
4364,1035,1076
4365,1044,1080
4366,1044,1079
4367,1043,1077
4368,1041,1072
4369,1043,1070
4370,1047,1070
4371,1049,1070
4372,1049,1067
4373,1047,1066
4374,1046,1067
4375,1044,1069
4376,1048,1075
4377,1049,1074
4378,1048,1071
4379,1046,1069
4380,1044,1069
4381,1042,1072
4382,1045,1075
4383,1048,1078
4384,1047,1079
4385,1044,1076
4386,1042,1073
4387,1035,1068
4388,1032,1070
4389,1031,1071
4390,1028,1072
4391,1026,1072
4392,1021,1069
4393,1018,1066
4394,1016,1060
4395,1014,1059
4396,1013,1060
4397,1009,1060
4398,1005,1065
4399,1004,1067
4400,1003,1072
4401,1005,1075
4402,1003,1075
4403,1000,1066
4404,999,1057
4405,996,1052
4406,996,1056
4407,997,1062
4408,999,1065
4409,992,1066
4410,993,1068
4411,992,1067
4412,996,1068
4413,997,1066
4414,996,1063
4415,993,1062
4416,993,1062
4417,991,1066
4418,992,1068
4419,997,1068
4420,995,1061
4421,992,1057
4422,992,1057
4423,992,1059
4424,996,1059
4425,996,1061
4426,997,1059
4427,992,1057
4428,995,1059
4429,993,1061
4430,994,1065
4431,998,1064
4432,998,1060
4433,998,1057
4434,996,1055
4435,994,1060
4436,997,1067
4437,1000,1068
4438,998,1063
4439,997,1059
4440,994,1057
4441,994,1061
4442,997,1063
4443,1001,1068
4444,998,1072
4445,994,1069
4446,995,1063
4447,994,1063
4448,998,1061
4449,999,1061
4450,999,1062
4451,996,1059
4452,995,1059
4453,994,1057
4454,996,1059
4455,999,1063
4456,998,1061
4457,996,1059
4458,999,1056
4459,1004,1058
4460,1008,1059
4461,1013,1065
4462,1006,1072
4463,1002,1071
4464,1005,1068
4465,1010,1064
4466,1009,1064
4467,1014,1064
4468,1011,1067
4469,1011,1067
4470,1007,1064
4471,1009,1062
4472,1009,1062
4473,1012,1058
4474,1011,1052
4475,1005,1045
4476,1002,1043
4477,1001,1045
4478,1004,1050
4479,1006,1052
4480,1005,1049
4481,997,1047
4482,996,1047
4483,996,1040
4484,1000,1040
4485,999,1044
4486,1000,1049
4487,1002,1050
4488,1001,1049
4489,1000,1050
4490,1000,1054
4491,999,1058
4492,1000,1059
4493,995,1056
4494,987,1056
4495,986,1055
4496,988,1056
4497,991,1057
4498,993,1056
4499,990,1057
4500,986,1057
4501,983,1059
4502,988,1062
4503,989,1062
4504,987,1063
4505,986,1063
4506,985,1061
4507,983,1060
4508,984,1060
4509,987,1061
4510,989,1061
4511,990,1061
4512,985,1062
4513,984,1062
4514,983,1064
4515,989,1061
4516,991,1056
4517,984,1052
4518,976,1054
4519,968,1062
4520,969,1074
4521,977,1083
4522,992,1084
4523,1012,1083
4524,1043,1078
4525,1081,1078
4526,1132,1085
4527,1184,1089
4528,1235,1086
4529,1266,1077
4530,1261,1057
4531,1218,1037
4532,1147,1021
4533,1063,1019
4534,965,1014
4535,881,1009
4536,854,1003
4537,866,1006
4538,898,1011
4539,925,1020
4540,946,1026
4541,956,1034
4542,964,1041
4543,971,1050
4544,977,1057
4545,983,1060
4546,982,1061
4547,980,1060
4548,980,1054
4549,983,1054
4550,982,1053
4551,986,1052
4552,984,1054
4553,983,1058
4554,981,1058
4555,984,1062
4556,986,1062
4557,985,1061
4558,987,1058
4559,985,1054
4560,985,1057
4561,983,1059
4562,987,1062
4563,991,1062
4564,991,1060
4565,986,1058
4566,985,1056
4567,987,1060
4568,988,1065
4569,990,1069
4570,992,1065
4571,993,1060
4572,994,1056
4573,993,1057
4574,997,1062
4575,1001,1068
4576,1000,1073
4577,1000,1068
4578,1001,1067
4579,1001,1065
4580,1007,1065
4581,1011,1062
4582,1013,1060
4583,1010,1060
4584,1011,1056
4585,1016,1061
4586,1019,1060
4587,1021,1065
4588,1023,1068
4589,1021,1069
4590,1023,1069
4591,1025,1067
4592,1028,1064
4593,1029,1062
4594,1030,1059
4595,1031,1058
4596,1031,1060
4597,1034,1061
4598,1037,1062
4599,1041,1068
4600,1044,1069
4601,1043,1071
4602,1044,1067
4603,1043,1069
4604,1046,1072
4605,1048,1068
4606,1051,1064
4607,1050,1064
4608,1045,1066
4609,1045,1070
4610,1045,1076
4611,1051,1076
4612,1050,1074
4613,1050,1067
4614,1046,1065
4615,1048,1065
4616,1048,1070
4617,1052,1072
4618,1049,1073
4619,1045,1073
4620,1044,1068
4621,1040,1066
4622,1040,1066
4623,1042,1065
4624,1042,1060
4625,1036,1058
4626,1027,1055
4627,1026,1056
4628,1024,1059
4629,1024,1063
4630,1020,1063
4631,1013,1062
4632,1009,1065
4633,1007,1066
4634,1007,1068
4635,1008,1064
4636,1005,1060
4637,1001,1055
4638,1001,1054
4639,1000,1054
4640,1003,1056
4641,1003,1057
4642,1001,1057
4643,1000,1057
4644,993,1057
4645,995,1060
4646,994,1064
4647,996,1069
4648,996,1071
4649,993,1073
4650,990,1070
4651,994,1065
4652,994,1058
4653,999,1052
4654,998,1048
4655,999,1046
4656,995,1045
4657,995,1048
4658,998,1057
4659,999,1058
4660,1001,1057
4661,998,1057
4662,996,1056
4663,996,1059
4664,996,1065
4665,999,1068
4666,998,1069
4667,993,1064
4668,993,1061
4669,994,1056
4670,994,1057
4671,999,1060
4672,996,1056
4673,993,1053
4674,993,1051
4675,993,1048
4676,994,1049
4677,997,1050
4678,994,1050
4679,989,1052
4680,989,1052
4681,988,1055
4682,991,1060
4683,994,1061
4684,993,1061
4685,991,1055
4686,990,1052
4687,990,1054
4688,994,1054
4689,995,1055
4690,995,1055
4691,992,1057
4692,991,1059
4693,994,1061
4694,999,1059
4695,1005,1061
4696,1009,1054
4697,1003,1054
4698,1002,1057
4699,1002,1063
4700,1002,1067
4701,1006,1064
4702,1006,1062
4703,1007,1057
4704,1001,1052
4705,1002,1052
4706,1002,1055
4707,1003,1055
4708,1007,1051
4709,1004,1044
4710,1000,1040
4711,999,1044
4712,999,1050
4713,1002,1052
4714,999,1042
4715,999,1033
4716,994,1026
4717,987,1029
4718,988,1034
4719,990,1037
4720,992,1038
4721,991,1038
4722,989,1038
4723,988,1039
4724,992,1045
4725,996,1051
4726,997,1052
4727,991,1052
4728,988,1053
4729,984,1051
4730,983,1052
4731,980,1051
4732,980,1049
4733,978,1049
4734,977,1047
4735,973,1047
4736,977,1049
4737,977,1050
4738,978,1051
4739,973,1050
4740,971,1051
4741,972,1054
4742,974,1057
4743,977,1058
4744,977,1056
4745,977,1053
4746,976,1050
4747,973,1048
4748,978,1053
4749,977,1055
4750,978,1057
4751,977,1053
4752,973,1050
4753,970,1051
4754,967,1052
4755,965,1056
4756,960,1060
4757,956,1065
4758,956,1067
4759,961,1075
4760,976,1079
4761,1002,1083
4762,1031,1078
4763,1068,1075
4764,1108,1073
4765,1156,1075
4766,1207,1074
4767,1242,1070
4768,1244,1054
4769,1206,1029
4770,1150,1004
4771,1076,995
4772,987,998
4773,900,1004
4774,846,1002
4775,838,1002
4776,853,1008
4777,877,1013
4778,901,1018
4779,923,1018
4780,938,1015
4781,946,1014
4782,952,1018
4783,955,1027
4784,959,1038
4785,963,1049
4786,965,1054
4787,965,1050
4788,964,1042
4789,965,1038
4790,968,1041
4791,969,1047
4792,970,1048
4793,972,1044
4794,971,1042
4795,968,1043
4796,971,1047
4797,973,1052
4798,971,1053
4799,968,1053
4800,966,1054
4801,968,1056
4802,972,1054
4803,974,1052
4804,977,1047
4805,974,1040
4806,971,1041
4807,973,1046
4808,975,1050
4809,976,1053
4810,977,1055
4811,975,1051
4812,974,1051
4813,972,1054
4814,977,1059
4815,982,1060
4816,986,1055
4817,986,1050
4818,983,1048
4819,986,1050
4820,991,1055
4821,994,1058
4822,994,1061
4823,997,1056
4824,998,1050
4825,999,1052
4826,1005,1051
4827,1008,1051
4828,1009,1049
4829,1011,1048
4830,1012,1048
4831,1009,1055
4832,1017,1059
4833,1017,1059
4834,1020,1058
4835,1019,1053
4836,1020,1049
4837,1021,1055
4838,1023,1056
4839,1026,1056
4840,1021,1059
4841,1025,1058
4842,1028,1058
4843,1029,1055
4844,1032,1057
4845,1038,1057
4846,1035,1060
4847,1033,1055
4848,1032,1057
4849,1032,1058
4850,1032,1059
4851,1036,1057
4852,1039,1051
4853,1035,1049
4854,1034,1051
4855,1031,1053
4856,1032,1058
4857,1032,1057
4858,1030,1055
4859,1026,1052
4860,1024,1051
4861,1021,1052
4862,1021,1050
4863,1018,1051
4864,1017,1047
4865,1012,1047
4866,1008,1051
4867,1005,1055
4868,1003,1058
4869,1003,1054
4870,1000,1054
4871,996,1050
4872,994,1052
4873,990,1050
4874,988,1049
4875,990,1048
4876,989,1049
4877,983,1048
4878,980,1048
4879,979,1052
4880,981,1057
4881,982,1055
4882,984,1054
4883,981,1046
4884,978,1042
4885,979,1043
4886,978,1042
4887,980,1047
4888,981,1047
4889,979,1046
4890,975,1044
4891,974,1044
4892,977,1049
4893,977,1051
4894,977,1048
4895,973,1044
4896,976,1040
4897,976,1040
4898,975,1043
4899,979,1045
4900,978,1047
4901,974,1044
4902,968,1044
4903,970,1045
4904,968,1046
4905,973,1049
4906,976,1049
4907,975,1048
4908,976,1048
4909,976,1051
4910,981,1052
4911,981,1052
4912,979,1047
4913,976,1046
4914,971,1047
4915,973,1048
4916,978,1047
4917,979,1044
4918,975,1041
4919,973,1040
4920,973,1042
4921,975,1045
4922,978,1044
4923,979,1047
4924,977,1045
4925,978,1046
4926,977,1047
4927,974,1049
4928,975,1050
4929,979,1052
4930,976,1053
4931,975,1051
4932,973,1055
4933,973,1057
4934,977,1052
4935,982,1046
4936,984,1043
4937,983,1039
4938,986,1047
4939,985,1054
4940,988,1056
4941,987,1056
4942,987,1050
4943,986,1044
4944,987,1041
4945,987,1041
4946,987,1046
4947,990,1046
4948,987,1043
4949,987,1041
4950,986,1034
4951,986,1032
4952,989,1033
4953,991,1032
4954,986,1032
4955,981,1033
4956,976,1033
4957,977,1034
4958,978,1034
4959,977,1034
4960,975,1035
4961,972,1032
4962,971,1036
4963,973,1037
4964,974,1039
4965,975,1042
4966,978,1040
4967,981,1041
4968,979,1039
4969,977,1041
4970,975,1045
4971,973,1049
4972,969,1048
4973,963,1047
4974,955,1043
4975,954,1044
4976,959,1044
4977,965,1044
4978,964,1042
4979,963,1039
4980,960,1042
4981,962,1041
4982,970,1040
4983,971,1034
4984,971,1032
4985,963,1033
4986,960,1038
4987,957,1044
4988,961,1047
4989,961,1045
4990,964,1044
4991,965,1041
4992,966,1038
4993,963,1039
4994,966,1042
4995,966,1045
4996,960,1043
4997,954,1040
4998,947,1042
4999,942,1052
5000,942,1060
5001,950,1064
5002,959,1064
5003,983,1067
5004,1011,1066
5005,1049,1065
5006,1097,1066
5007,1148,1070
5008,1195,1069
5009,1227,1063
5010,1227,1047
5011,1197,1029
5012,1145,1015
5013,1078,1012
5014,993,1013
5015,899,1018
5016,840,1022
5017,829,1024
5018,846,1023
5019,864,1016
5020,881,1003
5021,899,1002
5022,914,1012
5023,927,1021
5024,938,1033
5025,946,1034
5026,945,1037
5027,952,1038
5028,953,1038
5029,955,1039
5030,954,1040
5031,956,1040
5032,955,1042
5033,954,1038
5034,956,1036
5035,956,1033
5036,958,1038
5037,959,1039
5038,962,1037
5039,960,1035
5040,957,1033
5041,958,1038
5042,958,1041
5043,961,1045
5044,960,1044
5045,958,1044
5046,957,1043
5047,958,1048
5048,961,1054
5049,963,1055
5050,966,1054
5051,966,1048
5052,966,1049
5053,966,1049
5054,970,1052
5055,974,1052
5056,977,1048
5057,974,1044
5058,974,1039
5059,975,1040
5060,981,1039
5061,983,1036
5062,984,1041
5063,983,1045
5064,983,1047
5065,984,1047
5066,988,1045
5067,995,1045
5068,999,1042
5069,998,1036
5070,1000,1033
5071,1004,1031
5072,1007,1038
5073,1012,1045
5074,1013,1048
5075,1011,1050
5076,1012,1045
5077,1013,1041
5078,1016,1042
5079,1017,1043
5080,1018,1045
5081,1018,1043
5082,1019,1044
5083,1020,1048
5084,1022,1052
5085,1025,1059
5086,1025,1061
5087,1024,1061
5088,1026,1057
5089,1027,1055
5090,1030,1047
5091,1031,1045
5092,1026,1045
5093,1026,1045
5094,1026,1044
5095,1026,1042
5096,1028,1045
5097,1028,1045
5098,1027,1048
5099,1024,1047
5100,1021,1046
5101,1021,1050
5102,1022,1051
5103,1020,1053
5104,1015,1056
5105,1012,1051
5106,1006,1044
5107,1005,1038
5108,1003,1038
5109,1004,1044
5110,1001,1041
5111,995,1041
5112,990,1041
5113,984,1047
5114,986,1050
5115,985,1049
5116,985,1046
5117,981,1042
5118,974,1043
5119,974,1043
5120,976,1044
5121,978,1046
5122,976,1044
5123,973,1043
5124,969,1041
5125,969,1040
5126,970,1041
5127,973,1038
5128,972,1037
5129,968,1040
5130,969,1044
5131,968,1045
5132,971,1046
5133,975,1046
5134,974,1043
5135,971,1037
5136,971,1037
5137,969,1039
5138,975,1045
5139,975,1048
5140,975,1050
5141,975,1047
5142,973,1047
5143,970,1048
5144,970,1050
5145,976,1054
5146,979,1054
5147,975,1050
5148,973,1051
5149,971,1050
5150,976,1049
5151,978,1046
5152,978,1045
5153,978,1042
5154,974,1037
5155,976,1038
5156,980,1039
5157,984,1041
5158,981,1043
5159,977,1041
5160,971,1042
5161,975,1045
5162,978,1043
5163,979,1040
5164,982,1035
5165,978,1034
5166,980,1037
5167,979,1038
5168,979,1039
5169,982,1039
5170,981,1040
5171,981,1035
5172,976,1036
5173,975,1041
5174,977,1043
5175,982,1045
5176,983,1047
5177,984,1047
5178,986,1048
5179,985,1050
5180,988,1052
5181,989,1057
5182,988,1061
5183,988,1063
5184,991,1062
5185,992,1060
5186,991,1054
5187,991,1052
5188,990,1049
5189,989,1041
5190,988,1034
5191,989,1029
5192,996,1024
5193,995,1024
5194,990,1025
5195,987,1025
5196,987,1028
5197,986,1028
5198,984,1032
5199,983,1030
5200,980,1032
5201,981,1028
5202,979,1029
5203,976,1031
5204,977,1033
5205,980,1037
5206,982,1040
5207,983,1042
5208,979,1045
5209,978,1043
5210,977,1044
5211,974,1044
5212,971,1044
5213,967,1044
5214,963,1044
5215,964,1045
5216,969,1047
5217,969,1049
5218,965,1047
5219,962,1049
5220,961,1053
5221,960,1060
5222,965,1062
5223,967,1063
5224,967,1057
5225,968,1048
5226,969,1036
5227,971,1034
5228,968,1036
5229,971,1043
5230,970,1042
5231,971,1043
5232,967,1044
5233,965,1049
5234,965,1054
5235,962,1053
5236,958,1054
5237,955,1057
5238,955,1061
5239,968,1065
5240,992,1070
5241,1021,1070
5242,1060,1072
5243,1108,1074
5244,1161,1076
5245,1212,1073
5246,1252,1068
5247,1255,1052
5248,1216,1030
5249,1144,1010
5250,1062,1001
5251,969,1003
5252,884,1006
5253,839,1012
5254,837,1012
5255,857,1013
5256,880,1011
5257,906,1011
5258,930,1018
5259,949,1027
5260,957,1039
5261,959,1049
5262,963,1050
5263,964,1046
5264,968,1041
5265,970,1040
5266,972,1037
5267,967,1035
5268,966,1034
5269,965,1040
5270,966,1045
5271,965,1048
5272,966,1050
5273,967,1047
5274,966,1044
5275,970,1047
5276,971,1048
5277,971,1050
5278,970,1052
5279,970,1053
5280,970,1052
5281,970,1055
5282,975,1054
5283,975,1056
5284,977,1054
5285,975,1050
5286,978,1051
5287,975,1061
5288,977,1067
5289,984,1070
5290,987,1061
5291,989,1056
5292,990,1048
5293,988,1048
5294,992,1046
5295,990,1044
5296,990,1045
5297,992,1048
5298,994,1048
5299,999,1048
5300,1002,1047
5301,1006,1051
5302,1008,1053
5303,1010,1054
5304,1009,1051
5305,1010,1051
5306,1014,1055
5307,1019,1057
5308,1023,1054
5309,1025,1054
5310,1020,1054
5311,1023,1057
5312,1024,1059
5313,1031,1064
5314,1030,1066
5315,1029,1062
5316,1032,1060
5317,1030,1060
5318,1035,1060
5319,1037,1063
5320,1037,1064
5321,1037,1061
5322,1038,1062
5323,1038,1062
5324,1040,1064
5325,1043,1068
5326,1042,1067
5327,1039,1068
5328,1036,1070
5329,1036,1073
5330,1039,1074
5331,1041,1066
5332,1037,1055
5333,1038,1049
5334,1034,1045
5335,1033,1053
5336,1034,1055
5337,1033,1055
5338,1029,1056
5339,1020,1052
5340,1017,1054
5341,1016,1050
5342,1016,1053
5343,1016,1056
5344,1010,1057
5345,1008,1058
5346,1005,1057
5347,1001,1057
5348,999,1062
5349,999,1058
5350,1000,1058
5351,995,1053
5352,994,1051
5353,989,1052
5354,991,1055
5355,993,1059
5356,991,1058
5357,987,1057
5358,981,1059
5359,982,1064
5360,989,1061
5361,993,1053
5362,994,1044
5363,991,1043
5364,988,1047
5365,986,1051
5366,989,1057
5367,993,1063
5368,994,1058
5369,993,1045
5370,994,1037
5371,992,1037
5372,993,1047
5373,995,1052
5374,995,1053
5375,987,1051
5376,989,1049
5377,988,1051
5378,988,1053
5379,990,1054
5380,989,1052
5381,987,1048
5382,986,1049
5383,985,1054
5384,989,1058
5385,993,1058
5386,990,1055
5387,987,1051
5388,985,1052
5389,986,1053
5390,987,1053
5391,991,1054
5392,993,1049
5393,991,1043
5394,992,1042
5395,988,1043
5396,990,1047
5397,994,1050
5398,993,1050
5399,993,1050
5400,991,1054
5401,989,1057
5402,990,1060
5403,993,1059
5404,991,1054
5405,991,1047
5406,991,1041
5407,991,1043
5408,994,1045
5409,996,1052
5410,997,1054
5411,1003,1055
5412,1002,1056
5413,997,1057
5414,1001,1057
5415,1004,1059
5416,1006,1060
5417,1005,1052
5418,1004,1048
5419,1000,1045
5420,1002,1047
5421,1003,1049
5422,1005,1047
5423,1007,1045
5424,1004,1039
5425,1000,1038
5426,1000,1043
5427,999,1040
5428,1001,1038
5429,1001,1034
5430,997,1035
5431,995,1036
5432,992,1038
5433,993,1040
5434,992,1042
5435,990,1038
5436,992,1034
5437,993,1032
5438,997,1033
5439,997,1040
5440,992,1045
5441,988,1047
5442,988,1044
5443,985,1042
5444,980,1042
5445,980,1045
5446,978,1046
5447,976,1047
5448,972,1046
5449,973,1049
5450,977,1053
5451,979,1053
5452,981,1045
5453,980,1043
5454,977,1045
5455,976,1051
5456,980,1055
5457,979,1057
5458,982,1051
5459,982,1048
5460,977,1046
5461,977,1046
5462,978,1050
5463,984,1056
5464,981,1054
5465,979,1054
5466,977,1053
5467,976,1054
5468,973,1052
5469,969,1055
5470,968,1057
5471,972,1061
5472,978,1062
5473,994,1064
5474,1018,1068
5475,1048,1071
5476,1085,1074
5477,1134,1076
5478,1185,1075
5479,1235,1073
5480,1269,1065
5481,1257,1046
5482,1203,1015
5483,1121,996
5484,1030,990
5485,931,993
5486,862,993
5487,845,990
5488,864,987
5489,890,989
5490,915,998
5491,933,1010
5492,952,1020
5493,963,1025
5494,969,1029
5495,976,1031
5496,976,1031
5497,974,1036
5498,975,1038
5499,977,1042
5500,978,1044
5501,979,1045
5502,976,1046
5503,976,1043
5504,979,1043
5505,979,1048
5506,980,1046
5507,979,1045
5508,978,1041
5509,979,1045
5510,983,1051
5511,985,1053
5512,984,1052
5513,983,1047
5514,980,1046
5515,984,1045
5516,988,1048
5517,989,1044
5518,987,1043
5519,991,1040
5520,989,1040
5521,988,1041
5522,989,1048
5523,994,1047
5524,993,1050
5525,995,1048
5526,995,1048
5527,994,1050
5528,997,1048
5529,1000,1051
5530,1001,1051
5531,1005,1050
5532,1004,1048
5533,1005,1049
5534,1008,1059
5535,1014,1063
5536,1017,1059
5537,1017,1053
5538,1019,1050
5539,1019,1051
5540,1027,1055
5541,1030,1056
5542,1030,1054
5543,1030,1053
5544,1029,1056
5545,1031,1058
5546,1034,1064
5547,1036,1071
5548,1040,1068
5549,1042,1064
5550,1043,1056
5551,1042,1053
5552,1045,1053
5553,1043,1055
5554,1045,1055
5555,1044,1056
5556,1043,1056
5557,1046,1059
5558,1046,1062
5559,1049,1064
5560,1047,1063
5561,1048,1059
5562,1048,1052
5563,1047,1049
5564,1044,1053
5565,1045,1055
5566,1042,1052
5567,1041,1051
5568,1038,1049
5569,1032,1053
5570,1031,1051
5571,1031,1048
5572,1027,1048
5573,1026,1047
5574,1018,1047
5575,1017,1048
5576,1014,1050
5577,1011,1054
5578,1011,1051
5579,1009,1044
5580,1003,1039
5581,1001,1041
5582,1003,1045
5583,1003,1047
5584,1004,1044
5585,1003,1040
5586,999,1041
5587,995,1044
5588,997,1053
5589,1002,1057
5590,1003,1055
5591,1001,1051
5592,997,1050
5593,995,1057
5594,998,1059
5595,1000,1054
5596,999,1048
5597,997,1041
5598,995,1043
5599,996,1047
5600,995,1046
5601,999,1045
5602,1002,1043
5603,999,1044
5604,996,1044
5605,997,1040
5606,997,1042
5607,997,1045
5608,997,1047
5609,996,1049
5610,994,1044
5611,995,1039
5612,998,1042
5613,1002,1045
5614,1003,1046
5615,1003,1044
5616,999,1041
5617,998,1043
5618,998,1045
5619,998,1047
5620,999,1046
5621,994,1045
5622,995,1046
5623,998,1048
5624,999,1051
5625,1002,1050
5626,1000,1049
5627,997,1048
5628,998,1047
5629,997,1050
5630,999,1054
5631,1001,1050
5632,1003,1044
5633,1002,1043
5634,1005,1042
5635,1006,1042
5636,1010,1045
5637,1013,1049
5638,1015,1054
5639,1013,1057
5640,1011,1060
5641,1007,1057
5642,1013,1050
5643,1016,1046
5644,1016,1042
5645,1011,1038
5646,1011,1036
5647,1010,1035
5648,1013,1036
5649,1013,1038
5650,1014,1040
5651,1012,1040
5652,1007,1037
5653,1007,1038
5654,1009,1035
5655,1007,1033
5656,1003,1031
5657,997,1032
5658,994,1029
5659,996,1029
5660,997,1026
5661,1000,1029
5662,998,1030
5663,999,1031
5664,998,1029
5665,997,1036
5666,999,1038
5667,997,1041
5668,995,1040
5669,992,1039
5670,986,1041
5671,983,1042
5672,984,1045
5673,986,1049
5674,988,1047
5675,985,1044
5676,985,1041
5677,981,1039
5678,985,1040
5679,989,1041
5680,987,1038
5681,987,1038
5682,986,1039
5683,985,1042
5684,986,1043
5685,988,1039
5686,986,1035
5687,983,1034
5688,981,1035
5689,981,1037
5690,982,1038
5691,980,1040
5692,975,1044
5693,972,1050
5694,974,1054
5695,984,1058
5696,1008,1062
5697,1037,1064
5698,1079,1067
5699,1128,1068
5700,1178,1071
5701,1225,1073
5702,1253,1061
5703,1241,1038
5704,1183,1011
5705,1098,991
5706,1003,990
5707,910,992
5708,860,988
5709,859,988
5710,883,988
5711,911,988
5712,931,997
5713,948,1008
5714,963,1016
5715,971,1027
5716,975,1034
5717,979,1036
5718,977,1034
5719,975,1038
5720,978,1042
5721,983,1042
5722,984,1041
5723,984,1038
5724,979,1036
5725,981,1037
5726,982,1041
5727,984,1042
5728,984,1046
5729,984,1048
5730,982,1045
5731,983,1045
5732,988,1046
5733,989,1043
5734,990,1042
5735,989,1038
5736,989,1037
5737,990,1038
5738,992,1042
5739,991,1045
5740,992,1042
5741,994,1041
5742,992,1042
5743,995,1042
5744,999,1045
5745,1000,1048
5746,1004,1046
5747,1005,1042
5748,1001,1042
5749,1002,1046
5750,1009,1050
5751,1011,1050
5752,1013,1047
5753,1013,1042
5754,1012,1037
5755,1012,1038
5756,1012,1046
5757,1017,1049
5758,1019,1049
5759,1022,1050
5760,1022,1046
5761,1022,1047
5762,1025,1047
5763,1030,1051
5764,1035,1051
5765,1037,1047
5766,1036,1040
5767,1034,1043
5768,1036,1046
5769,1039,1053
5770,1042,1053
5771,1040,1058
5772,1036,1060
5773,1038,1057
5774,1043,1056
5775,1048,1049
5776,1048,1044
5777,1047,1047
5778,1046,1050
5779,1046,1051
5780,1046,1050
5781,1049,1049
5782,1048,1048
5783,1046,1050
5784,1046,1050
5785,1043,1054
5786,1045,1054
5787,1045,1054
5788,1044,1052
5789,1040,1053
5790,1038,1051
5791,1037,1050
5792,1036,1046
5793,1033,1044
5794,1031,1039
5795,1026,1038
5796,1018,1040
5797,1016,1043
5798,1014,1047
5799,1015,1051
5800,1014,1049
5801,1006,1047
5802,1004,1042
5803,1000,1038
5804,1000,1037
5805,1000,1043
5806,999,1046
5807,999,1046
5808,997,1045
5809,994,1043
5810,995,1043
5811,996,1047
5812,997,1048
5813,998,1041
5814,997,1033
5815,996,1036
5816,994,1041
5817,997,1048
5818,996,1049
5819,998,1044
5820,996,1039
5821,996,1038
5822,996,1036
5823,994,1040
5824,996,1040
5825,998,1037
5826,995,1034
5827,992,1039
5828,994,1040
5829,996,1042
5830,996,1039
5831,997,1036
5832,992,1035
5833,992,1037
5834,992,1041
5835,994,1042
5836,994,1037
5837,995,1033
5838,991,1033
5839,988,1035
5840,989,1042
5841,994,1042
5842,994,1041
5843,992,1041
5844,990,1041
5845,990,1043
5846,990,1046
5847,992,1045
5848,992,1044
5849,988,1042
5850,989,1039
5851,990,1040
5852,994,1040
5853,993,1039
5854,992,1033
5855,992,1032
5856,992,1032
5857,992,1034
5858,997,1034
5859,996,1037
5860,998,1037
5861,1000,1040
5862,1002,1042
5863,1004,1042
5864,1007,1042
5865,1003,1045
5866,1004,1045
5867,1003,1044
5868,1006,1042
5869,1006,1041
5870,1008,1043
5871,1008,1041
5872,1008,1036
5873,1007,1030
5874,1007,1025
5875,1007,1026
5876,1006,1026
5877,1005,1028
5878,1007,1024
5879,1000,1020
5880,999,1020
5881,998,1022
5882,996,1026
5883,992,1026
5884,991,1024
5885,993,1024
5886,991,1022
5887,989,1019
5888,988,1021
5889,992,1028
5890,994,1034
5891,996,1037
5892,989,1037
5893,986,1036
5894,986,1028
5895,984,1024
5896,979,1022
5897,979,1025
5898,976,1028
5899,976,1036
5900,976,1044
5901,977,1051
5902,980,1044
5903,980,1030
5904,979,1020
5905,978,1023
5906,977,1028
5907,978,1033
5908,979,1032
5909,978,1034
5910,976,1032
5911,975,1029
5912,976,1029
5913,977,1030
5914,980,1031
5915,976,1033
5916,971,1034
5917,965,1037
5918,962,1041
5919,961,1045
5920,964,1054
5921,973,1052
5922,991,1055
5923,1018,1055
5924,1056,1058
5925,1106,1064
5926,1162,1072
5927,1214,1061
5928,1239,1044
5929,1227,1018
5930,1181,993
5931,1115,977
5932,1035,980
5933,939,982
5934,860,981
5935,833,975
5936,848,974
5937,875,978
5938,899,982
5939,920,986
5940,936,993
5941,947,1002
5942,956,1008
5943,962,1020
5944,964,1026
5945,967,1027
5946,968,1026
5947,968,1027
5948,967,1029
5949,971,1033
5950,972,1033
5951,971,1030
5952,970,1029
5953,967,1030
5954,969,1032
5955,969,1038
5956,968,1040
5957,969,1037
5958,973,1034
5959,973,1034
5960,974,1031
5961,978,1030
5962,979,1026
5963,978,1024
5964,976,1025
5965,977,1026
5966,979,1029
5967,983,1033
5968,984,1029
5969,986,1026
5970,984,1027
5971,983,1028
5972,985,1032
5973,990,1035
5974,992,1034
5975,994,1029
5976,994,1025
5977,993,1027
5978,999,1032
5979,1000,1036
5980,1007,1036
5981,1008,1035
5982,1009,1035
5983,1009,1032
5984,1014,1034
5985,1017,1039
5986,1023,1040
5987,1022,1039
5988,1018,1037
5989,1016,1035
5990,1017,1035
5991,1027,1034
5992,1030,1034
5993,1029,1032
5994,1025,1030
5995,1025,1031
5996,1028,1036
5997,1032,1039
5998,1033,1037
5999,1031,1032
6000,1027,1029
6001,1029,1029
6002,1031,1033
6003,1037,1038
6004,1038,1036
6005,1037,1034
6006,1032,1032
6007,1031,1036
6008,1029,1038
6009,1032,1039
6010,1032,1038
6011,1029,1039
6012,1024,1035
6013,1026,1033
6014,1024,1033
6015,1021,1031
6016,1018,1027
6017,1013,1023
6018,1005,1020
6019,1000,1023
6020,999,1024
6021,994,1027
6022,994,1029
6023,988,1031
6024,987,1031
6025,984,1032
6026,983,1029
6027,983,1029
6028,982,1028
6029,978,1027
6030,974,1024
6031,972,1024
6032,971,1025
6033,973,1028
6034,973,1030
6035,975,1029
6036,973,1027
6037,973,1026
6038,971,1026
6039,972,1024
6040,970,1026
6041,968,1022
6042,966,1017
6043,966,1020
6044,970,1020
6045,972,1025
6046,973,1023
6047,971,1021
6048,966,1019
6049,970,1022
6050,972,1025
6051,974,1026
6052,973,1028
6053,972,1029
6054,970,1030
6055,969,1030
6056,972,1024
6057,974,1023
6058,973,1021
6059,971,1016
6060,972,1019
6061,970,1018
6062,973,1025
6063,975,1029
6064,973,1027
6065,972,1023
6066,971,1016
6067,969,1017
6068,973,1023
6069,975,1025
6070,975,1025
6071,971,1021
6072,969,1019
6073,968,1019
6074,973,1021
6075,974,1020
6076,974,1018
6077,972,1019
6078,970,1018
6079,969,1019
6080,970,1023
6081,974,1027
6082,975,1025
6083,975,1021
6084,975,1020
6085,977,1020
6086,983,1021
6087,981,1023
6088,981,1021
6089,978,1026
6090,979,1026
6091,980,1027
6092,982,1023
6093,985,1023
6094,982,1020
6095,979,1012
6096,978,1006
6097,979,1008
6098,980,1013
6099,979,1010
6100,979,1005
6101,979,1002
6102,973,1000
6103,968,1001
6104,969,1007
6105,969,1011
6106,970,1013
6107,969,1013
6108,969,1012
6109,968,1013
6110,968,1018
6111,967,1024
6112,964,1027
6113,961,1024
6114,956,1015
6115,954,1010
6116,954,1008
6117,957,1011
6118,959,1012
6119,955,1015
6120,955,1016
6121,951,1018
6122,953,1016
6123,956,1014
6124,957,1013
6125,956,1010
6126,954,1004
6127,951,1003
6128,952,1010
6129,956,1013
6130,958,1013
6131,955,1015
6132,951,1014
6133,950,1018
6134,947,1021
6135,946,1027
6136,942,1033
6137,942,1041
6138,943,1040
6139,959,1043
6140,989,1042
6141,1026,1042
6142,1069,1038
6143,1120,1038
6144,1173,1038
6145,1211,1037
6146,1224,1031
6147,1198,1015
6148,1140,996
6149,1071,978
6150,986,975
6151,900,980
6152,834,985
6153,817,991
6154,831,990
6155,845,985
6156,860,981
6157,881,981
6158,903,980
6159,924,990
6160,933,993
6161,940,997
6162,940,1001
6163,941,1008
6164,947,1012
6165,950,1017
6166,950,1016
6167,949,1015
6168,944,1018
6169,946,1021
6170,948,1025
6171,950,1027
6172,955,1024
6173,954,1017
6174,953,1013
6175,950,1011
6176,951,1014
6177,952,1014
6178,954,1018
6179,952,1021
6180,952,1022
6181,951,1023
6182,955,1022
6183,959,1018
6184,960,1017
6185,957,1017
6186,958,1016
6187,959,1016
6188,961,1020
6189,966,1024
6190,967,1023
6191,967,1019
6192,966,1016
6193,967,1017
6194,971,1019
6195,973,1022
6196,977,1022
6197,976,1021
6198,974,1020
6199,975,1027
6200,978,1031
6201,982,1033
6202,984,1030
6203,989,1028
6204,990,1019
6205,992,1019
6206,992,1022
6207,993,1025
6208,999,1025
6209,1001,1026
6210,1001,1024
6211,1002,1025
6212,1007,1025
6213,1010,1030
6214,1010,1032
6215,1011,1031
6216,1011,1029
6217,1013,1030
6218,1017,1029
6219,1018,1026
6220,1019,1024
6221,1017,1024
6222,1016,1030
6223,1017,1029
6224,1019,1033
6225,1022,1032
6226,1021,1033
6227,1018,1031
6228,1019,1028
6229,1018,1026
6230,1021,1028
6231,1022,1026
6232,1021,1023
6233,1016,1022
6234,1008,1024
6235,1006,1026
6236,1005,1032
6237,1004,1034
6238,1005,1031
6239,1003,1025
6240,998,1023
6241,994,1023
6242,992,1027
6243,989,1029
6244,986,1027
6245,985,1023
6246,983,1023
6247,980,1026
6248,981,1030
6249,982,1031
6250,981,1030
6251,975,1033
6252,969,1032
6253,968,1031
6254,968,1032
6255,971,1029
6256,972,1030
6257,971,1027
6258,968,1024
6259,968,1023
6260,971,1024
6261,975,1028
6262,974,1030
6263,971,1029
6264,969,1028
6265,969,1028
6266,970,1026
6267,973,1029
6268,973,1030
6269,973,1030
6270,972,1024
6271,969,1024
6272,974,1026
6273,976,1027
6274,977,1027
6275,975,1026
6276,972,1022
6277,971,1022
6278,970,1024
6279,974,1027
6280,978,1027
6281,975,1028
6282,973,1027
6283,971,1031
6284,976,1032
6285,982,1034
6286,980,1029
6287,977,1025
6288,976,1019
6289,976,1015
6290,975,1020
6291,979,1023
6292,978,1026
6293,976,1027
6294,974,1026
6295,973,1034
6296,971,1041
6297,977,1045
6298,980,1035
6299,983,1019
6300,978,1011
6301,976,1014
6302,978,1023
6303,982,1027
6304,981,1027
6305,984,1029
6306,983,1026
6307,982,1028
6308,986,1031
6309,989,1036
6310,991,1036
6311,988,1030
6312,989,1029
6313,990,1027
6314,992,1026
6315,992,1024
6316,992,1018
6317,990,1014
6318,985,1013
6319,987,1018
6320,987,1021
6321,991,1020
6322,989,1018
6323,987,1015
6324,983,1014
6325,980,1014
6326,981,1014
6327,977,1014
6328,976,1014
6329,977,1012
6330,975,1010
6331,978,1010
6332,975,1013
6333,978,1018
6334,979,1022
6335,980,1022
6336,977,1023
6337,976,1027
6338,976,1027
6339,973,1026
6340,972,1028
6341,964,1024
6342,958,1025
6343,960,1025
6344,963,1027
6345,966,1027
6346,965,1028
6347,963,1027
6348,962,1024
6349,958,1026
6350,958,1032
6351,960,1039
6352,960,1042
6353,960,1035
6354,961,1031
6355,963,1025
6356,967,1020
6357,969,1017
6358,970,1015
6359,966,1017
6360,965,1021
6361,960,1022
6362,963,1026
6363,962,1028
6364,956,1031
6365,951,1037
6366,949,1041
6367,954,1048
6368,972,1052
6369,996,1054
6370,1028,1053
6371,1065,1054
6372,1104,1055
6373,1152,1063
6374,1200,1060
6375,1234,1052
6376,1240,1034
6377,1203,1011
6378,1143,988
6379,1067,979
6380,981,981
6381,895,982
6382,841,983
6383,832,978
6384,847,978
6385,868,982
6386,893,991
6387,917,1000
6388,932,1006
6389,939,1012
6390,941,1016
6391,945,1025
6392,951,1035
6393,957,1035
6394,962,1026
6395,960,1017
6396,958,1012
6397,954,1015
6398,959,1017
6399,959,1021
6400,962,1022
6401,963,1021
6402,958,1024
6403,957,1026
6404,959,1027
6405,963,1027
6406,961,1024
6407,958,1025
6408,956,1023
6409,958,1024
6410,960,1032
6411,960,1036
6412,964,1032
6413,963,1028
6414,960,1029
6415,962,1033
6416,966,1032
6417,969,1033
6418,969,1028
6419,971,1026
6420,968,1026
6421,970,1029
6422,972,1031
6423,974,1033
6424,977,1035
6425,975,1032
6426,972,1031
6427,974,1031
6428,977,1034
6429,978,1040
6430,983,1043
6431,982,1044
6432,984,1043
6433,988,1034
6434,992,1028
6435,997,1027
6436,1000,1030
6437,996,1032
6438,1001,1033
6439,1001,1034
6440,1004,1036
6441,1011,1039
6442,1016,1037
6443,1014,1032
6444,1014,1035
6445,1016,1036
6446,1018,1040
6447,1019,1037
6448,1022,1038
6449,1021,1037
6450,1020,1038
6451,1019,1039
6452,1020,1042
6453,1024,1044
6454,1026,1043
6455,1026,1041
6456,1023,1037
6457,1022,1037
6458,1022,1042
6459,1023,1043
6460,1027,1041
6461,1023,1038
6462,1020,1036
6463,1022,1038
6464,1021,1043
6465,1021,1045
6466,1024,1041
6467,1020,1037
6468,1018,1031
6469,1013,1032
6470,1014,1036
6471,1015,1042
6472,1013,1039
6473,1009,1036
6474,1005,1031
6475,1000,1028
6476,998,1034
6477,998,1035
6478,995,1033
6479,988,1029
6480,985,1031
6481,981,1034
6482,980,1036
6483,982,1034
6484,981,1032
6485,981,1029
6486,978,1026
6487,974,1026
6488,976,1028
6489,977,1028
6490,977,1027
6491,975,1027
6492,975,1024
6493,971,1028
6494,971,1033
6495,972,1037
6496,975,1033
6497,974,1036
6498,971,1034
6499,970,1038
6500,968,1040
6501,970,1040
6502,972,1039
6503,970,1029
6504,969,1022
6505,969,1021
6506,974,1024
6507,974,1030
6508,974,1027
6509,973,1022
6510,972,1016
6511,967,1018
6512,970,1023
6513,971,1027
6514,972,1029
6515,970,1026
6516,967,1020
6517,963,1021
6518,968,1023
6519,969,1022
6520,971,1023
6521,969,1024
6522,966,1023
6523,966,1023
6524,970,1025
6525,972,1025
6526,971,1027
6527,969,1027
6528,968,1023
6529,962,1023
6530,964,1025
6531,967,1032
6532,968,1031
6533,966,1027
6534,966,1023
6535,968,1025
6536,970,1032
6537,971,1039
6538,971,1039
6539,965,1034
6540,964,1030
6541,964,1029
6542,969,1029
6543,973,1029
6544,975,1024
6545,976,1019
6546,975,1019
6547,977,1023
6548,982,1027
6549,984,1032
6550,982,1030
6551,981,1027
6552,978,1027
6553,978,1027
6554,981,1033
6555,984,1035
6556,982,1032
6557,980,1030
6558,980,1030
6559,979,1027
6560,979,1021
6561,980,1015
6562,980,1012
6563,981,1011
6564,978,1013
6565,977,1011
6566,975,1019
6567,977,1020
6568,976,1019
6569,974,1015
6570,969,1010
6571,967,1010
6572,970,1011
6573,970,1012
6574,973,1010
6575,969,1008
6576,965,1011
6577,965,1014
6578,967,1021
6579,973,1025
6580,973,1024
6581,967,1021
6582,964,1016
6583,957,1020
6584,957,1022
6585,958,1025
6586,955,1026
6587,953,1026
6588,951,1021
6589,950,1018
6590,951,1019
6591,956,1023
6592,958,1028
6593,954,1025
6594,949,1015
6595,946,1017
6596,947,1018
6597,950,1022
6598,956,1023
6599,955,1022
6600,954,1018
6601,954,1020
6602,956,1023
6603,955,1025
6604,951,1025
6605,949,1023
6606,951,1023
6607,950,1023
6608,946,1021
6609,943,1027
6610,938,1031
6611,935,1036
6612,935,1036
6613,943,1037
6614,959,1040
6615,985,1043
6616,1016,1043
6617,1057,1044
6618,1105,1048
6619,1158,1053
6620,1204,1050
6621,1227,1043
6622,1218,1026
6623,1175,1000
6624,1117,981
6625,1044,975
6626,956,984
6627,873,987
6628,833,989
6629,829,984
6630,839,979
6631,856,983
6632,879,989
6633,902,993
6634,918,994
6635,927,991
6636,930,997
6637,932,1004
6638,937,1009
6639,939,1013
6640,944,1017
6641,944,1020
6642,940,1025
6643,942,1026
6644,947,1028
6645,950,1028
6646,951,1025
6647,951,1023
6648,949,1024
6649,945,1022
6650,948,1020
6651,952,1022
6652,954,1023
6653,952,1021
6654,948,1020
6655,945,1021
6656,948,1025
6657,953,1026
6658,958,1025
6659,957,1021
6660,952,1020
6661,953,1019
6662,960,1023
6663,966,1029
6664,965,1027
6665,969,1025
6666,965,1019
6667,964,1013
6668,966,1017
6669,966,1020
6670,966,1024
6671,963,1025
6672,962,1029
6673,967,1025
6674,975,1024
6675,980,1022
6676,983,1020
6677,982,1020
6678,982,1020
6679,985,1021
6680,988,1021
6681,993,1024
6682,996,1024
6683,997,1020
6684,994,1023
6685,997,1027
6686,1002,1025
6687,1007,1024
6688,1011,1024
6689,1012,1026
6690,1009,1027
6691,1015,1029
6692,1017,1031
6693,1014,1030
6694,1012,1026
6695,1009,1022
6696,1009,1020
6697,1009,1023
6698,1012,1026
6699,1015,1032
6700,1020,1030
6701,1017,1026
6702,1016,1025
6703,1015,1026
6704,1018,1026
6705,1016,1031
6706,1017,1033
6707,1015,1032
6708,1014,1029
6709,1013,1024
6710,1013,1023
6711,1014,1028
6712,1009,1031
6713,1003,1031
6714,999,1029
6715,996,1029
6716,995,1031
6717,998,1032
6718,994,1032
6719,992,1024
6720,982,1022
6721,979,1024
6722,980,1031
6723,978,1037
6724,978,1034
6725,975,1027
6726,971,1021
6727,967,1019
6728,968,1019
6729,968,1018
6730,968,1019
6731,967,1017
6732,967,1017
6733,964,1019
6734,962,1023
6735,961,1025
6736,962,1024
6737,962,1021
6738,959,1016
6739,955,1018
6740,957,1021
6741,958,1026
6742,958,1026
6743,956,1025
6744,955,1026
6745,958,1029
6746,961,1031
6747,966,1030
6748,967,1024
6749,966,1021
6750,960,1021
6751,960,1023
6752,959,1022
6753,960,1022
6754,964,1019
6755,966,1017
6756,963,1011
6757,966,1015
6758,966,1022
6759,968,1023
6760,970,1025
6761,966,1021
6762,963,1020
6763,962,1024
6764,960,1026
6765,961,1024
6766,961,1020
6767,962,1015
6768,962,1014
6769,962,1018
6770,964,1020
6771,965,1023
6772,969,1027
6773,970,1026
6774,967,1022
6775,963,1017
6776,959,1019
6777,962,1022
6778,962,1022
6779,966,1022
6780,963,1021
6781,959,1022
6782,961,1026
6783,964,1025
6784,968,1025
6785,966,1021
6786,962,1018
6787,960,1019
6788,963,1021
6789,965,1019
6790,968,1019
6791,968,1017
6792,968,1019
6793,970,1022
6794,971,1023
6795,974,1029
6796,972,1024
6797,973,1021
6798,975,1022
6799,978,1022
6800,979,1026
6801,979,1027
6802,977,1024
6803,975,1020
6804,971,1016
6805,972,1014
6806,975,1018
6807,978,1019
6808,978,1015
6809,976,1008
6810,970,1012
6811,967,1019
6812,970,1021
6813,970,1020
6814,967,1011
6815,970,1003
6816,968,1003
6817,964,1006
6818,967,1011
6819,969,1014
6820,971,1015
6821,970,1011
6822,969,1012
6823,966,1013
6824,969,1015
6825,968,1020
6826,965,1020
6827,959,1017
6828,953,1016
6829,948,1017
6830,950,1021
6831,953,1026
6832,953,1025
6833,952,1020
6834,949,1014
6835,952,1017
6836,956,1020
6837,961,1026
6838,961,1026
6839,957,1020
6840,953,1019
6841,952,1016
6842,952,1018
6843,957,1014
6844,954,1015
6845,955,1009
6846,952,1010
6847,948,1013
6848,950,1020
6849,955,1025
6850,954,1023
6851,954,1019
6852,947,1017
6853,938,1021
6854,941,1033
6855,943,1047
6856,954,1052
6857,969,1047
6858,988,1043
6859,1015,1036
6860,1054,1039
6861,1101,1046
6862,1150,1049
6863,1194,1049
6864,1225,1044
6865,1228,1041
6866,1206,1027
6867,1164,1008
6868,1106,989
6869,1024,977
6870,929,972
6871,853,981
6872,829,983
6873,837,987
6874,852,985
6875,868,985
6876,883,987
6877,900,993
6878,921,999
6879,937,1000
6880,941,997
6881,942,1001
6882,943,1005
6883,946,1014
6884,950,1022
6885,954,1024
6886,956,1025
6887,956,1024
6888,951,1022
6889,949,1021
6890,948,1020
6891,954,1017
6892,955,1017
6893,954,1015
6894,954,1020
6895,956,1021
6896,959,1023
6897,959,1023
6898,959,1018
6899,956,1017
6900,957,1020
6901,955,1023
6902,957,1022
6903,960,1020
6904,961,1018
6905,963,1014
6906,964,1010
6907,964,1013
6908,964,1012
6909,966,1017
6910,965,1017
6911,968,1017
6912,964,1020
6913,968,1023
6914,966,1023
6915,972,1025
6916,974,1021
6917,977,1014
6918,976,1008
6919,975,1011
6920,978,1017
6921,985,1019
6922,988,1018
6923,988,1021
6924,987,1019
6925,989,1023
6926,993,1029
6927,995,1031
6928,992,1032
6929,993,1031
6930,992,1037
6931,997,1036
6932,1002,1029
6933,1010,1020
6934,1009,1016
6935,1008,1018
6936,1010,1020
6937,1011,1022
6938,1013,1019
6939,1018,1016
6940,1019,1015
6941,1018,1010
6942,1020,1012
6943,1013,1015
6944,1017,1021
6945,1020,1025
6946,1021,1026
6947,1021,1026
6948,1019,1024
6949,1015,1024
6950,1015,1026
6951,1017,1031
6952,1017,1035
6953,1018,1035
6954,1017,1031
6955,1016,1030
6956,1015,1027
6957,1015,1030
6958,1011,1035
6959,1011,1033
6960,1010,1027
6961,1009,1023
6962,1010,1024
6963,1010,1026
6964,1006,1032
6965,1001,1030
6966,993,1022
6967,991,1015
6968,991,1012
6969,990,1016
6970,987,1017
6971,984,1016
6972,979,1017
6973,977,1015
6974,976,1021
6975,974,1028
6976,975,1030
6977,974,1029
6978,970,1024
6979,969,1018
6980,969,1019
6981,971,1022
6982,969,1023
6983,967,1020
6984,966,1016
6985,967,1016
6986,969,1021
6987,972,1024
6988,971,1025
6989,967,1023
6990,967,1022
6991,967,1020
6992,969,1019
6993,971,1022
6994,975,1025
6995,973,1028
6996,969,1029
6997,972,1028
6998,973,1023
6999,978,1017
7000,976,1011
7001,974,1014
7002,969,1016
7003,972,1020
7004,973,1023
7005,976,1025
7006,973,1024
7007,976,1021
7008,976,1020
7009,975,1024
7010,976,1027
7011,978,1030
7012,977,1027
7013,977,1021
7014,977,1021
7015,975,1022
7016,976,1027
7017,980,1032
7018,982,1029
7019,979,1027
7020,975,1019
7021,975,1019
7022,975,1020
7023,977,1024
7024,979,1026
7025,977,1030
7026,976,1032
7027,977,1030
7028,979,1027
7029,982,1023
7030,980,1022
7031,979,1022
7032,978,1024
7033,979,1025
7034,982,1026
7035,985,1026
7036,990,1026
7037,990,1024
7038,990,1023
7039,989,1025
7040,991,1030
7041,992,1035
7042,994,1037
7043,993,1034
7044,992,1031
7045,993,1027
7046,994,1025
7047,995,1025
7048,992,1028
7049,992,1023
7050,991,1022
7051,988,1019
7052,989,1018
7053,993,1014
7054,991,1018
7055,991,1016
7056,985,1015
7057,982,1019
7058,984,1017
7059,987,1017
7060,984,1015
7061,982,1011
7062,981,1013
7063,980,1017
7064,985,1023
7065,989,1024
7066,993,1022
7067,989,1019
7068,982,1020
7069,980,1021
7070,981,1024
7071,980,1029
7072,976,1027
7073,972,1026
7074,970,1026
7075,971,1025
7076,972,1024
7077,975,1028
7078,974,1026
7079,973,1026
7080,972,1022
7081,971,1021
7082,971,1021
7083,969,1026
7084,977,1028
7085,974,1027
7086,970,1024
7087,967,1022
7088,973,1020
7089,972,1021
7090,976,1024
7091,976,1025
7092,972,1025
7093,966,1025
7094,965,1034
7095,962,1042
7096,961,1046
7097,960,1049
7098,966,1050
7099,985,1053
7100,1013,1055
7101,1052,1054
7102,1099,1050
7103,1150,1051
7104,1202,1053
7105,1250,1060
7106,1282,1055
7107,1282,1043
7108,1238,1017
7109,1155,991
7110,1053,980
7111,948,978
7112,870,981
7113,842,980
7114,856,976
7115,887,974
7116,908,976
7117,928,981
7118,943,990
7119,953,998
7120,960,1004
7121,961,1011
7122,964,1016
7123,965,1023
7124,967,1027
7125,968,1028
7126,969,1028
7127,965,1032
7128,962,1033
7129,964,1035
7130,969,1031
7131,970,1027
7132,972,1024
7133,972,1025
7134,970,1025
7135,969,1025
7136,970,1031
7137,971,1035
7138,975,1035
7139,977,1032
7140,975,1028
7141,972,1021
7142,974,1027
7143,976,1031
7144,976,1033
7145,980,1033
7146,980,1030
7147,982,1031
7148,985,1034
7149,987,1034
7150,991,1029
7151,986,1025
7152,984,1027
7153,983,1029
7154,988,1031
7155,988,1036
7156,993,1039
7157,994,1039
7158,995,1034
7159,997,1027
7160,997,1027
7161,999,1032
7162,1000,1037
7163,1003,1037
7164,1002,1033
7165,1002,1031
7166,1007,1034
7167,1011,1039
7168,1014,1041
7169,1016,1037
7170,1019,1035
7171,1020,1037
7172,1023,1042
7173,1029,1046
7174,1032,1048
7175,1035,1044
7176,1033,1037
7177,1031,1033
7178,1033,1036
7179,1037,1041
7180,1040,1042
7181,1040,1046
7182,1041,1044
7183,1041,1039
7184,1043,1039
7185,1041,1042
7186,1043,1042
7187,1041,1042
7188,1038,1043
7189,1036,1043
7190,1037,1047
7191,1041,1054
7192,1040,1057
7193,1040,1054
7194,1038,1048
7195,1036,1039
7196,1035,1032
7197,1034,1036
7198,1034,1039
7199,1032,1043
7200,1026,1037
7201,1018,1033
7202,1017,1035
7203,1016,1038
7204,1012,1039
7205,1010,1036
7206,1006,1031
7207,1004,1029
7208,1002,1031
7209,1002,1032
7210,1002,1034
7211,1002,1034
7212,999,1033
7213,997,1034
7214,995,1035
7215,995,1037
7216,995,1038
7217,991,1035
7218,987,1037
7219,989,1037
7220,991,1042
7221,990,1041
7222,994,1039
7223,992,1039
7224,990,1037
7225,991,1038
7226,991,1039
7227,990,1037
7228,991,1032
7229,988,1029
7230,985,1026
7231,988,1029
7232,987,1035
7233,990,1041
7234,993,1041
7235,993,1031
7236,992,1025
7237,988,1019
7238,990,1026
7239,989,1029
7240,988,1034
7241,986,1034
7242,986,1037
7243,982,1038
7244,986,1037
7245,988,1036
7246,995,1033
7247,991,1029
7248,988,1032
7249,989,1039
7250,993,1042
7251,994,1039
7252,994,1035
7253,992,1025
7254,989,1024
7255,986,1030
7256,985,1038
7257,991,1042
7258,992,1046
7259,992,1040
7260,990,1032
7261,988,1031
7262,988,1031
7263,990,1028
7264,991,1025
7265,990,1025
7266,990,1026
7267,988,1030
7268,991,1035
7269,991,1041
7270,996,1038
7271,999,1035
7272,1000,1033
7273,1000,1035
7274,1004,1039
7275,1007,1039
7276,1008,1036
7277,1007,1033
7278,1006,1032
7279,1007,1033
7280,1007,1029
7281,1008,1025
7282,1009,1021
7283,1006,1021
7284,1001,1020
7285,1000,1023
7286,998,1026
7287,1000,1031
7288,1002,1027
7289,1001,1026
7290,998,1024
7291,994,1024
7292,992,1026
7293,994,1028
7294,994,1029
7295,994,1027
7296,987,1027
7297,987,1030
7298,989,1034
7299,993,1037
7300,997,1038
7301,997,1032
7302,994,1033
7303,993,1029
7304,990,1022
7305,988,1023
7306,987,1019
7307,985,1020
7308,980,1023
7309,978,1030
7310,982,1031
7311,984,1034
7312,984,1033
7313,983,1030
7314,978,1027
7315,976,1025
7316,979,1028
7317,981,1032
7318,982,1031
7319,983,1029
7320,981,1029
7321,979,1030
7322,980,1033
7323,982,1033
7324,982,1034
7325,981,1033
7326,979,1032
7327,977,1031
7328,976,1036
7329,975,1040
7330,969,1045
7331,964,1047
7332,965,1053
7333,973,1057
7334,995,1059
7335,1021,1063
7336,1056,1063
7337,1098,1066
7338,1149,1071
7339,1204,1075
7340,1248,1073
7341,1278,1062
7342,1271,1036
7343,1222,1005
7344,1144,980
7345,1058,976
7346,964,982
7347,887,988
7348,853,983
7349,860,977
7350,881,975
7351,904,980
7352,926,988
7353,945,995
7354,956,998
7355,962,1003
7356,967,1006
7357,975,1015
7358,977,1026
7359,977,1031
7360,975,1032
7361,970,1027
7362,966,1027
7363,964,1030
7364,969,1033
7365,972,1039
7366,974,1037
7367,974,1036
7368,971,1035
7369,970,1036
7370,973,1043
7371,975,1051
7372,976,1049
7373,974,1040
7374,971,1033
7375,974,1033
7376,978,1038
7377,983,1045
7378,983,1042
7379,985,1037
7380,984,1031
7381,986,1028
7382,986,1027
7383,987,1028
7384,985,1031
7385,986,1032
7386,987,1029
7387,986,1029
7388,987,1029
7389,991,1033
7390,996,1032
7391,994,1032
7392,995,1031
7393,997,1031
7394,1001,1034
7395,1004,1037
7396,1006,1039
7397,1006,1044
7398,1006,1045
7399,1010,1049
7400,1015,1048
7401,1018,1050
7402,1019,1047
7403,1024,1043
7404,1023,1040
7405,1023,1045
7406,1027,1052
7407,1035,1055
7408,1036,1047
7409,1035,1039
7410,1036,1039
7411,1034,1042
7412,1039,1044
7413,1041,1042
7414,1040,1038
7415,1040,1039
7416,1039,1038
7417,1038,1039
7418,1037,1044
7419,1043,1045
7420,1043,1043
7421,1038,1038
7422,1038,1038
7423,1039,1038
7424,1037,1038
7425,1039,1044
7426,1039,1048
7427,1035,1050
7428,1029,1047
7429,1027,1047
7430,1027,1048
7431,1027,1047
7432,1027,1043
7433,1022,1036
7434,1015,1030
7435,1011,1031
7436,1009,1037
7437,1007,1039
7438,1006,1039
7439,1004,1037
7440,998,1036
7441,996,1038
7442,995,1036
7443,994,1036
7444,997,1037
7445,994,1038
7446,993,1039
7447,988,1039
7448,989,1035
7449,989,1037
7450,989,1040
7451,990,1041
7452,985,1039
7453,984,1036
7454,986,1039
7455,988,1041
7456,990,1037
7457,987,1033
7458,987,1031
7459,987,1033
7460,988,1036
7461,989,1040
7462,990,1040
7463,988,1041
7464,987,1039
7465,989,1034
7466,990,1029
7467,991,1031
7468,992,1034
7469,990,1033
7470,988,1033
7471,984,1031
7472,987,1032
7473,987,1036
7474,987,1033
7475,988,1030
7476,984,1031
7477,983,1033
7478,981,1035
7479,981,1038
7480,984,1039
7481,981,1041
7482,982,1035
7483,980,1032
7484,983,1031
7485,985,1035
7486,987,1039
7487,986,1042
7488,983,1037
7489,984,1034
7490,982,1029
7491,987,1032
7492,987,1032
7493,987,1032
7494,985,1032
7495,985,1033
7496,986,1035
7497,990,1036
7498,991,1038
7499,988,1041
7500,987,1042
7501,992,1040
7502,997,1036
7503,1001,1038
7504,1002,1037
7505,996,1034
7506,993,1031
7507,993,1033
7508,1000,1034
7509,1005,1037
7510,1007,1037
7511,1005,1035
7512,1002,1030
7513,999,1027
7514,999,1029
7515,1002,1032
7516,1001,1035
7517,997,1034
7518,993,1035
7519,994,1036
7520,994,1040
7521,994,1039
7522,994,1036
7523,989,1031
7524,986,1033
7525,985,1030
7526,989,1027
7527,989,1022
7528,989,1021
7529,989,1022
7530,990,1021
7531,990,1024
7532,988,1032
7533,987,1035
7534,984,1038
7535,979,1039
7536,971,1038
7537,970,1036
7538,971,1037
7539,974,1037
7540,973,1033
7541,971,1035
7542,967,1034
7543,966,1037
7544,969,1039
7545,970,1039
7546,973,1035
7547,969,1038
7548,965,1040
7549,966,1042
7550,966,1047
7551,970,1047
7552,970,1045
7553,969,1042
7554,967,1045
7555,965,1051
7556,970,1053
7557,970,1050
7558,968,1041
7559,962,1037
7560,955,1043
7561,954,1050
7562,957,1058
7563,969,1059
7564,990,1059
7565,1016,1060
7566,1046,1057
7567,1087,1057
7568,1139,1060
7569,1193,1064
7570,1237,1060
7571,1250,1051
7572,1226,1031
7573,1171,1012
7574,1094,998
7575,1011,993
7576,916,994
7577,852,986
7578,839,982
7579,858,983
7580,887,993
7581,914,1006
7582,933,1014
7583,945,1016
7584,950,1016
7585,958,1018
7586,963,1023
7587,966,1029
7588,964,1032
7589,959,1036
7590,958,1041
7591,959,1043
7592,962,1045
7593,966,1043
7594,969,1039
7595,968,1040
7596,964,1040
7597,958,1041
7598,965,1041
7599,968,1039
7600,967,1035
7601,967,1035
7602,966,1035
7603,969,1039
7604,971,1038
7605,973,1040
7606,974,1041
7607,974,1044
7608,970,1044
7609,971,1044
7610,971,1043
7611,978,1043
7612,978,1043
7613,975,1040
7614,973,1040
7615,973,1036
7616,976,1040
7617,983,1045
7618,984,1042
7619,985,1038
7620,982,1032
7621,983,1034
7622,987,1041
7623,993,1045
7624,992,1045
7625,993,1043
7626,993,1037
7627,995,1039
7628,998,1048
7629,1005,1050
7630,1008,1052
7631,1010,1048
7632,1009,1046
7633,1008,1047
7634,1014,1051
7635,1017,1049
7636,1022,1049
7637,1022,1046
7638,1021,1046
7639,1022,1043
7640,1028,1048
7641,1027,1054
7642,1029,1057
7643,1027,1059
7644,1024,1057
7645,1024,1059
7646,1030,1064
7647,1035,1057
7648,1036,1046
7649,1034,1039
7650,1027,1036
7651,1028,1046
7652,1030,1054
7653,1033,1058
7654,1034,1054
7655,1031,1045
7656,1027,1039
7657,1024,1041
7658,1026,1045
7659,1026,1051
7660,1027,1050
7661,1022,1046
7662,1016,1043
7663,1010,1041
7664,1009,1042
7665,1008,1047
7666,1006,1045
7667,1001,1043
7668,997,1041
7669,994,1041
7670,991,1044
7671,990,1046
7672,989,1047
7673,987,1046
7674,984,1044
7675,981,1043
7676,982,1047
7677,982,1050
7678,981,1049
7679,981,1045
7680,980,1035
7681,977,1029
7682,978,1030
7683,977,1039
7684,975,1043
7685,974,1045
7686,976,1042
7687,978,1042
7688,974,1039
7689,977,1040
7690,982,1033
7691,980,1029
7692,975,1030
7693,975,1030
7694,978,1034
7695,981,1037
7696,981,1036
7697,981,1038
7698,976,1035
7699,972,1034
7700,972,1038
7701,977,1039
7702,979,1039
7703,979,1041
7704,976,1039
7705,978,1038
7706,976,1041
7707,976,1043
7708,978,1044
7709,977,1044
7710,977,1041
7711,976,1036
7712,974,1037
7713,978,1041
7714,977,1041
7715,978,1040
7716,975,1044
7717,974,1045
7718,974,1048
7719,974,1047
7720,978,1045
7721,977,1043
7722,977,1040
7723,972,1036
7724,975,1038
7725,977,1038
7726,976,1035
7727,976,1025
7728,974,1018
7729,974,1020
7730,976,1028
7731,977,1031
7732,980,1032
7733,980,1030
7734,979,1033
7735,979,1037
7736,984,1038
7737,988,1043
7738,987,1045
7739,988,1039
7740,986,1037
7741,986,1039
7742,988,1040
7743,992,1045
7744,993,1044
7745,991,1040
7746,989,1033
7747,988,1032
7748,990,1034
7749,992,1041
7750,991,1038
7751,988,1030
7752,985,1027
7753,980,1030
7754,983,1032
7755,983,1030
7756,983,1023
7757,979,1019
7758,977,1017
7759,975,1016
7760,974,1020
7761,976,1026
7762,975,1030
7763,978,1035
7764,980,1036
7765,976,1033
7766,975,1031
7767,974,1031
7768,971,1032
7769,969,1031
7770,959,1028
7771,960,1027
7772,960,1029
7773,964,1029
7774,966,1034
7775,963,1034
7776,961,1034
7777,961,1035
7778,959,1038
7779,962,1041
7780,964,1037
7781,964,1030
7782,961,1027
7783,958,1030
7784,960,1034
7785,964,1037
7786,965,1034
7787,964,1030
7788,960,1031
7789,961,1034
7790,961,1038
7791,962,1038
7792,959,1039
7793,953,1044
7794,950,1049
7795,953,1053
7796,966,1058
7797,990,1061
7798,1019,1062
7799,1057,1066
7800,1106,1066
7801,1154,1063
7802,1205,1059
7803,1231,1050
7804,1231,1036
7805,1189,1015
7806,1127,990
7807,1054,978
7808,968,980
7809,885,983
7810,839,984
7811,834,982
7812,852,982
7813,873,988
7814,899,993
7815,917,1001
7816,937,1002
7817,947,1004
7818,950,1010
7819,954,1018
7820,957,1029
7821,961,1034
7822,962,1037
7823,960,1032
7824,958,1030
7825,958,1030
7826,960,1032
7827,958,1035
7828,958,1037
7829,960,1036
7830,958,1033
7831,962,1033
7832,960,1035
7833,961,1038
7834,965,1037
7835,963,1038
7836,961,1035
7837,962,1037
7838,964,1039
7839,966,1040
7840,969,1034
7841,969,1032
7842,969,1033
7843,967,1037
7844,969,1039
7845,970,1039
7846,971,1040
7847,975,1038
7848,974,1034
7849,973,1033
7850,974,1037
7851,979,1044
7852,981,1040
7853,981,1039
7854,985,1035
7855,984,1033
7856,985,1032
7857,990,1035
7858,992,1035
7859,992,1038
7860,993,1038
7861,994,1036
7862,995,1042
7863,999,1047
7864,1003,1046
7865,1007,1039
7866,1007,1033
7867,1005,1031
7868,1008,1036
7869,1011,1045
7870,1015,1047
7871,1017,1044
7872,1016,1042
7873,1015,1044
7874,1018,1045
7875,1020,1049
7876,1021,1051
7877,1018,1049
7878,1016,1046
7879,1019,1045
7880,1021,1047
7881,1026,1049
7882,1028,1052
7883,1027,1050
7884,1026,1047
7885,1026,1041
7886,1028,1041
7887,1027,1044
7888,1026,1045
7889,1026,1048
7890,1022,1049
7891,1020,1047
7892,1025,1044
7893,1025,1043
7894,1023,1043
7895,1018,1040
7896,1012,1036
7897,1010,1036
7898,1007,1034
7899,1006,1039
7900,1003,1043
7901,997,1044
7902,993,1042
7903,990,1037
7904,990,1035
7905,990,1032
7906,991,1032
7907,988,1034
7908,986,1034
7909,980,1037
7910,978,1041
7911,981,1042
7912,980,1036
7913,979,1032
7914,978,1029
7915,977,1030
7916,973,1034
7917,977,1037
7918,978,1036
7919,978,1032
7920,973,1029
7921,972,1029
7922,973,1031
7923,976,1036
7924,978,1034
7925,974,1033
7926,976,1032
7927,974,1031
7928,974,1034
7929,975,1035
7930,977,1035
7931,976,1036
7932,974,1032
7933,972,1035
7934,971,1042
7935,973,1042
7936,973,1036
7937,973,1028
7938,976,1023
7939,974,1025
7940,976,1030
7941,978,1035
7942,980,1038
7943,979,1039
7944,975,1035
7945,974,1031
7946,973,1033
7947,975,1031
7948,972,1029
7949,972,1029
7950,974,1031
7951,975,1027
7952,977,1025
7953,975,1024
7954,978,1024
7955,975,1025
7956,972,1025
7957,969,1027
7958,970,1029
7959,973,1028
7960,973,1027
7961,971,1027
7962,968,1031
7963,967,1034
7964,973,1031
7965,976,1029
7966,977,1026
7967,980,1031
7968,981,1033
7969,985,1035
7970,984,1038
7971,984,1039
7972,985,1038
7973,983,1031
7974,983,1030
7975,985,1031
7976,986,1031
7977,987,1035
7978,991,1029
7979,988,1022
7980,985,1016
7981,985,1021
7982,983,1027
7983,981,1034
7984,983,1031
7985,985,1025
7986,978,1014
7987,978,1005
7988,974,1007
7989,975,1010
7990,977,1015
7991,973,1013
7992,972,1015
7993,968,1016
7994,973,1017
7995,972,1016
7996,975,1019
7997,975,1016
7998,975,1012
7999,972,1016
8000,973,1023
8001,972,1032
8002,971,1032
8003,969,1029
8004,958,1021
8005,957,1016
8006,956,1016
8007,958,1018
8008,959,1020
8009,959,1023
8010,956,1022
8011,952,1019
8012,953,1021
8013,954,1024
8014,958,1026
8015,954,1028
8016,956,1030
8017,953,1033
8018,956,1034
8019,961,1035
8020,964,1033
8021,961,1024
8022,957,1021
8023,958,1016
8024,958,1019
8025,961,1025
8026,963,1024
8027,956,1025
8028,949,1029
8029,946,1032
8030,947,1041
8031,953,1046
8032,964,1048
8033,982,1051
8034,1003,1046
8035,1041,1043
8036,1086,1041
8037,1142,1043
8038,1187,1048
8039,1217,1039
8040,1218,1026
8041,1184,1009
8042,1127,991
8043,1061,980
8044,981,978
8045,892,978
8046,830,977
8047,818,978
8048,837,980
8049,861,980
8050,885,984
8051,902,990
8052,919,996
8053,930,1001
8054,936,1005
8055,942,1012
8056,947,1018
8057,945,1020
8058,946,1019
8059,949,1017
8060,950,1019
8061,954,1023
8062,954,1027
8063,953,1028
8064,954,1025
8065,952,1022
8066,954,1020
8067,957,1020
8068,957,1015
8069,954,1014
8070,954,1016
8071,954,1020
8072,955,1024
8073,958,1026
8074,963,1025
8075,961,1024
8076,964,1021
8077,961,1020
8078,963,1021
8079,966,1027
8080,969,1028
8081,972,1024
8082,970,1022
8083,970,1024
8084,970,1025
8085,971,1028
8086,972,1026
8087,973,1023
8088,974,1025
8089,976,1027
8090,977,1029
8091,976,1029
8092,979,1024
8093,982,1019
8094,985,1018
8095,986,1017
8096,994,1016
8097,995,1019
8098,995,1015
8099,999,1015
8100,999,1016
8101,998,1017
8102,999,1022
8103,1001,1026
8104,1002,1028
8105,1003,1030
8106,1003,1027
8107,1003,1031
8108,1006,1034
8109,1010,1036
8110,1015,1032
8111,1016,1030
8112,1014,1029
8113,1015,1032
8114,1020,1029
8115,1025,1031
8116,1022,1028
8117,1018,1030
8118,1014,1027
8119,1012,1027
8120,1016,1026
8121,1017,1031
8122,1019,1037
8123,1019,1039
8124,1016,1033
8125,1016,1031
8126,1020,1025
8127,1018,1026
8128,1017,1022
8129,1010,1021
8130,1007,1017
8131,1006,1017
8132,1004,1021
8133,999,1023
8134,996,1024
8135,989,1022
8136,986,1019
8137,984,1020
8138,985,1022
8139,983,1026
8140,981,1028
8141,975,1024
8142,971,1020
8143,967,1018
8144,968,1022
8145,965,1024
8146,967,1027
8147,964,1026
8148,963,1030
8149,959,1027
8150,962,1025
8151,967,1021
8152,972,1021
8153,964,1018
8154,962,1018
8155,962,1018
8156,958,1018
8157,964,1022
8158,965,1024
8159,967,1024
8160,964,1018
8161,961,1012
8162,963,1015
8163,965,1021
8164,968,1020
8165,968,1021
8166,967,1019
8167,965,1018
8168,966,1020
8169,968,1023
8170,970,1022
8171,968,1020
8172,966,1020
8173,965,1017
8174,968,1018
8175,969,1021
8176,969,1020
8177,966,1020
8178,967,1020
8179,966,1017
8180,963,1022
8181,965,1028
8182,967,1029
8183,966,1029
8184,968,1032
8185,965,1026
8186,969,1024
8187,971,1022
8188,975,1020
8189,974,1015
8190,970,1013
8191,967,1018
8192,967,1024
8193,968,1030
8194,969,1028
8195,970,1026
8196,970,1018
8197,972,1017
8198,975,1017
8199,979,1017
8200,982,1017
8201,980,1016
8202,977,1015
8203,978,1018
8204,978,1023
8205,982,1024
8206,983,1027
8207,984,1027
8208,981,1022
8209,977,1020
8210,979,1023
8211,981,1022
8212,983,1020
8213,983,1019
8214,981,1015
8215,978,1012
8216,977,1012
8217,979,1014
8218,974,1016
8219,973,1017
8220,973,1013
8221,970,1013
8222,973,1009
8223,976,1010
8224,973,1010
8225,972,1011
8226,971,1016
8227,971,1016
8228,968,1023
8229,971,1022
8230,969,1019
8231,965,1016
8232,958,1014
8233,957,1013
8234,958,1014
8235,959,1015
8236,960,1017
8237,957,1016
8238,954,1017
8239,954,1016
8240,955,1019
8241,958,1023
8242,956,1026
8243,956,1027
8244,950,1026
8245,951,1029
8246,953,1033
8247,955,1033
8248,961,1028
8249,961,1021
8250,960,1018
8251,958,1018
8252,956,1021
8253,955,1022
8254,948,1024
8255,944,1030
8256,948,1036
8257,967,1042
8258,1002,1049
8259,1050,1049
8260,1114,1047
8261,1180,1044
8262,1226,1036
8263,1224,1021
8264,1165,1001
8265,1068,987
8266,945,983
8267,843,990
8268,808,996
8269,831,995
8270,862,999
8271,893,1006
8272,916,1015
8273,934,1014
8274,942,1008
8275,946,1003
8276,950,1006
8277,955,1010
8278,959,1014
8279,958,1015
8280,955,1011
8281,953,1016
8282,954,1017
8283,956,1021
8284,959,1019
8285,959,1021
8286,957,1019
8287,958,1020
8288,961,1022
8289,962,1023
8290,964,1022
8291,964,1023
8292,964,1022
8293,963,1025
8294,964,1027
8295,967,1031
8296,969,1029
8297,970,1029
8298,970,1027
8299,970,1025
8300,970,1030
8301,974,1036
8302,975,1034
8303,980,1034
8304,978,1026
8305,980,1026
8306,981,1028
8307,986,1034
8308,990,1034
8309,993,1029
8310,993,1024
8311,993,1021
8312,993,1023
8313,994,1028
8314,997,1031
8315,999,1030
8316,998,1033
8317,1002,1036
8318,1004,1034
8319,1008,1031
8320,1012,1028
8321,1011,1027
8322,1012,1025
8323,1014,1025
8324,1018,1029
8325,1021,1033
8326,1024,1035
8327,1024,1035
8328,1026,1033
8329,1026,1030
8330,1027,1030
8331,1026,1033
8332,1024,1036
8333,1022,1038
8334,1024,1041
8335,1028,1040
8336,1030,1038
8337,1031,1035
8338,1034,1031
8339,1034,1029
8340,1032,1031
8341,1025,1031
8342,1025,1035
8343,1024,1041
8344,1024,1042
8345,1023,1041
8346,1022,1036
8347,1019,1031
8348,1017,1030
8349,1014,1036
8350,1011,1036
8351,1007,1034
8352,1003,1033
8353,1002,1031
8354,999,1026
8355,998,1029
8356,998,1034
8357,996,1032
8358,993,1031
8359,988,1029
8360,987,1030
8361,986,1029
8362,989,1031
8363,988,1032
8364,985,1030
8365,981,1031
8366,979,1031
8367,983,1033
8368,983,1036
8369,986,1033
8370,985,1030
8371,982,1026
8372,981,1026
8373,982,1029
8374,985,1030
8375,986,1031
8376,983,1027
8377,984,1028
8378,984,1032
8379,984,1034
8380,984,1033
8381,984,1033
8382,981,1031
8383,979,1033
8384,984,1033
8385,985,1039
8386,985,1039
8387,984,1038
8388,981,1039
8389,982,1038
8390,987,1036
8391,987,1037
8392,992,1029
8393,993,1026
8394,990,1022
8395,987,1024
8396,988,1026
8397,988,1033
8398,990,1036
8399,989,1037
8400,984,1035
8401,983,1035
8402,987,1041
8403,988,1045
8404,994,1044
8405,994,1036
8406,989,1026
8407,989,1022
8408,989,1026
8409,990,1029
8410,993,1029
8411,992,1028
8412,987,1026
8413,982,1026
8414,984,1030
8415,989,1032
8416,988,1027
8417,986,1025
8418,984,1025
8419,988,1026
8420,991,1027
8421,996,1034
8422,998,1035
8423,997,1033
8424,996,1032
8425,995,1029
8426,995,1035
8427,997,1040
8428,1002,1039
8429,1002,1035
8430,1002,1033
8431,998,1033
8432,994,1035
8433,995,1042
8434,996,1043
8435,1001,1038
8436,999,1030
8437,996,1024
8438,995,1024
8439,999,1027
8440,1002,1026
8441,999,1021
8442,993,1017
8443,989,1015
8444,988,1020
8445,988,1021
8446,989,1020
8447,989,1013
8448,987,1014
8449,983,1016
8450,986,1022
8451,987,1027
8452,992,1024
8453,993,1023
8454,988,1021
8455,985,1027
8456,983,1029
8457,981,1033
8458,979,1031
8459,976,1027
8460,973,1023
8461,972,1022
8462,973,1029
8463,976,1031
8464,977,1031
8465,976,1033
