'sample #','MLII','V1'
0,1011,1051
1,1011,1051
2,1011,1051
3,1011,1051
4,1011,1051
5,1011,1051
6,1011,1051
7,1011,1051
8,1015,1051
9,1017,1050
10,1016,1048
11,1012,1047
12,1009,1045
13,1013,1048
14,1016,1050
15,1016,1048
16,1014,1047
17,1011,1047
18,1010,1045
19,1011,1044
20,1012,1047
21,1012,1047
22,1012,1045
23,1010,1041
24,1009,1037
25,1009,1040
26,1011,1043
27,1010,1040
28,1009,1036
29,1008,1034
30,1007,1036
31,1009,1036
32,1010,1036
33,1009,1036
34,1008,1032
35,1007,1032
36,1006,1029
37,1006,1033
38,1008,1036
39,1010,1037
40,1009,1035
41,1007,1036
42,1006,1037
43,1010,1042
44,1013,1044
45,1016,1042
46,1020,1036
47,1029,1031
48,1045,1028
49,1071,1024
50,1094,1021
51,1119,1014
52,1141,1006
53,1161,999
54,1185,998
55,1207,991
56,1231,980
57,1240,969
58,1240,964
59,1229,963
60,1216,967
61,1196,982
62,1167,996
63,1126,1006
64,1085,1012
65,1053,1018
66,1040,1020
67,1030,1029
68,1021,1035
69,1013,1038
70,1005,1037
71,1002,1038
72,1000,1039
73,997,1044
74,996,1045
75,994,1042
76,991,1041
77,987,1038
78,984,1035
79,985,1038
80,985,1038
81,985,1036
82,981,1031
83,979,1027
84,977,1026
85,974,1025
86,978,1030
87,977,1032
88,974,1032
89,976,1032
90,972,1030
91,973,1034
92,975,1038
93,976,1039
94,972,1038
95,969,1038
96,968,1041
97,968,1048
98,973,1051
99,973,1050
100,974,1050
101,970,1048
102,969,1047
103,969,1049
104,973,1052
105,975,1052
106,976,1048
107,970,1046
108,971,1046
109,973,1049
110,975,1051
111,976,1051
112,976,1050
113,979,1052
114,975,1048
115,977,1050
116,978,1053
117,982,1051
118,979,1051
119,979,1049
120,976,1045
121,976,1043
122,979,1042
123,981,1036
124,977,1027
125,978,1023
126,977,1017
127,975,1020
128,981,1023
129,985,1021
130,986,1019
131,984,1018
132,981,1017
133,988,1020
134,991,1026
135,992,1029
136,996,1027
137,995,1025
138,995,1027
139,998,1033
140,1000,1035
141,999,1037
142,999,1035
143,997,1036
144,999,1034
145,1003,1040
146,1008,1044
147,1007,1045
148,1006,1043
149,1006,1041
150,1005,1041
151,1005,1042
152,1009,1047
153,1009,1043
154,1010,1041
155,1009,1038
156,1005,1039
157,1005,1043
158,1008,1046
159,1011,1045
160,1008,1044
161,1004,1040
162,1007,1043
163,1004,1044
164,1007,1049
165,1011,1048
166,1008,1044
167,1004,1039
168,1001,1033
169,1004,1035
170,1005,1035
171,1006,1031
172,1007,1030
173,1003,1029
174,1001,1027
175,1002,1030
176,1002,1034
177,1003,1032
178,1003,1031
179,1002,1028
180,1002,1028
181,1004,1033
182,1002,1034
183,1003,1034
184,1003,1032
185,1000,1029
186,999,1031
187,1000,1033
188,1002,1039
189,1002,1038
190,1001,1037
191,999,1036
192,999,1039
193,999,1042
194,1004,1046
195,1004,1048
196,1003,1045
197,1004,1045
198,1004,1043
199,1003,1046
200,1004,1048
201,1007,1045
202,1005,1043
203,1002,1041
204,1002,1038
205,1005,1041
206,1007,1044
207,1007,1042
208,1004,1036
209,1002,1033
210,1004,1028
211,1007,1029
212,1006,1031
213,1008,1030
214,1007,1027
215,1005,1024
216,1001,1025
217,1006,1026
218,1008,1028
219,1008,1028
220,1005,1026
221,1003,1023
222,1002,1022
223,1000,1024
224,1002,1027
225,1004,1025
226,1000,1025
227,1000,1023
228,997,1022
229,998,1025
230,1002,1029
231,1003,1028
232,1003,1027
233,999,1025
234,996,1027
235,999,1030
236,1003,1036
237,1002,1034
238,1003,1033
239,1011,1027
240,1023,1022
241,1043,1022
242,1067,1016
243,1091,1009
244,1112,1003
245,1136,993
246,1161,992
247,1185,994
248,1206,987
249,1224,977
250,1231,969
251,1227,965
252,1215,966
253,1198,972
254,1171,985
255,1138,994
256,1091,997
257,1050,1001
258,1023,1005
259,1012,1009
260,1007,1016
261,1002,1020
262,995,1018
263,986,1019
264,986,1020
265,984,1024
266,986,1027
267,984,1026
268,979,1025
269,975,1026
270,972,1025
271,970,1025
272,973,1027
273,974,1027
274,972,1025
275,965,1022
276,962,1024
277,964,1024
278,966,1027
279,967,1024
280,964,1026
281,960,1024
282,956,1024
283,957,1029
284,960,1030
285,959,1031
286,958,1031
287,956,1029
288,954,1031
289,955,1034
290,954,1037
291,953,1038
292,952,1037
293,951,1036
294,950,1038
295,949,1040
296,951,1043
297,952,1041
298,952,1042
299,949,1041
300,949,1041
301,952,1040
302,955,1046
303,958,1045
304,955,1041
305,954,1039
306,955,1033
307,955,1034
308,955,1038
309,959,1032
310,957,1031
311,955,1030
312,956,1030
313,958,1032
314,961,1035
315,963,1035
316,965,1031
317,964,1028
318,961,1029
319,963,1031
320,966,1031
321,967,1030
322,965,1030
323,963,1030
324,963,1029
325,968,1030
326,972,1032
327,973,1030
328,972,1029
329,971,1026
330,970,1027
331,972,1030
332,976,1031
333,979,1031
334,980,1028
335,980,1028
336,978,1026
337,983,1029
338,986,1031
339,989,1030
340,989,1029
341,985,1026
342,988,1024
343,988,1024
344,989,1027
345,990,1027
346,991,1026
347,989,1025
348,990,1024
349,988,1031
350,989,1032
351,988,1033
352,989,1034
353,987,1030
354,988,1032
355,987,1035
356,990,1038
357,991,1038
358,986,1034
359,986,1032
360,986,1031
361,989,1034
362,991,1039
363,991,1039
364,992,1036
365,991,1036
366,987,1034
367,988,1037
368,990,1041
369,989,1042
370,989,1041
371,988,1040
372,986,1040
373,988,1043
374,992,1044
375,996,1043
376,992,1042
377,994,1039
378,991,1039
379,993,1042
380,995,1044
381,995,1041
382,994,1040
383,991,1039
384,995,1038
385,995,1038
386,999,1039
387,998,1038
388,995,1033
389,993,1031
390,992,1027
391,992,1028
392,997,1031
393,996,1031
394,996,1029
395,993,1026
396,988,1024
397,992,1025
398,995,1030
399,997,1029
400,995,1028
401,991,1028
402,990,1027
403,991,1031
404,991,1032
405,993,1031
406,990,1033
407,990,1029
408,988,1031
409,989,1034
410,993,1035
411,992,1034
412,990,1031
413,990,1030
414,987,1030
415,989,1034
416,991,1036
417,990,1037
418,988,1034
419,985,1032
420,983,1033
421,983,1033
422,988,1038
423,990,1038
424,990,1038
425,986,1035
426,986,1037
427,988,1039
428,992,1043
429,995,1043
430,995,1040
431,991,1035
432,992,1034
433,994,1036
434,996,1035
435,999,1036
436,995,1031
437,995,1030
438,993,1030
439,993,1030
440,996,1031
441,995,1029
442,995,1025
443,992,1024
444,992,1025
445,989,1025
446,992,1027
447,995,1029
448,993,1027
449,993,1024
450,992,1025
451,994,1026
452,996,1032
453,998,1031
454,997,1029
455,992,1029
456,990,1031
457,994,1036
458,995,1038
459,1001,1032
460,1007,1029
461,1017,1024
462,1038,1016
463,1060,1016
464,1084,1011
465,1107,1006
466,1126,1000
467,1149,995
468,1173,994
469,1195,990
470,1212,980
471,1216,971
472,1217,962
473,1206,956
474,1194,957
475,1177,964
476,1152,974
477,1116,985
478,1071,993
479,1031,1001
480,1010,1009
481,1002,1014
482,995,1025
483,990,1028
484,983,1027
485,977,1027
486,974,1029
487,974,1033
488,973,1034
489,972,1034
490,971,1032
491,966,1031
492,963,1031
493,961,1033
494,964,1036
495,965,1032
496,963,1030
497,958,1028
498,952,1030
499,950,1030
500,950,1033
501,956,1033
502,954,1029
503,950,1030
504,950,1028
505,948,1031
506,951,1033
507,952,1032
508,949,1034
509,948,1031
510,947,1031
511,946,1035
512,948,1038
513,949,1038
514,945,1038
515,942,1038
516,940,1037
517,943,1039
518,945,1043
519,947,1042
520,945,1038
521,944,1034
522,945,1037
523,946,1039
524,946,1040
525,950,1041
526,949,1038
527,943,1037
528,942,1037
529,943,1039
530,949,1040
531,952,1041
532,947,1037
533,946,1036
534,946,1038
535,946,1038
536,952,1039
537,955,1041
538,953,1039
539,952,1039
540,950,1039
541,955,1040
542,957,1045
543,958,1042
544,957,1040
545,952,1039
546,957,1039
547,958,1039
548,958,1040
549,960,1040
550,961,1037
551,959,1035
552,957,1034
553,959,1034
554,964,1035
555,965,1035
556,966,1031
557,966,1028
558,963,1027
559,965,1028
560,969,1031
561,976,1031
562,975,1029
563,972,1027
564,973,1028
565,972,1028
566,976,1032
567,977,1031
568,978,1032
569,977,1029
570,977,1027
571,977,1030
572,978,1034
573,979,1034
574,978,1034
575,975,1033
576,974,1034
577,975,1037
578,978,1041
579,977,1042
580,976,1041
581,976,1040
582,975,1041
583,972,1044
584,975,1048
585,977,1047
586,974,1045
587,973,1044
588,973,1043
589,974,1043
590,975,1047
591,977,1045
592,972,1045
593,972,1043
594,973,1043
595,974,1043
596,978,1048
597,978,1047
598,977,1048
599,976,1043
600,977,1042
601,975,1044
602,979,1043
603,978,1041
604,978,1038
605,974,1035
606,975,1033
607,974,1028
608,975,1029
609,978,1027
610,978,1021
611,977,1016
612,978,1012
613,986,1012
614,995,1015
615,995,1018
616,976,1023
617,939,1029
618,899,1036
619,872,1047
620,858,1056
621,848,1066
622,843,1073
623,837,1083
624,838,1097
625,837,1112
626,837,1128
627,833,1139
628,835,1144
629,839,1149
630,843,1153
631,849,1156
632,857,1147
633,865,1136
634,873,1126
635,879,1126
636,885,1130
637,892,1136
638,898,1146
639,900,1151
640,900,1150
641,897,1157
642,902,1159
643,909,1164
644,918,1169
645,919,1167
646,929,1159
647,932,1144
648,940,1126
649,952,1108
650,963,1096
651,968,1083
652,969,1064
653,973,1049
654,976,1038
655,981,1031
656,985,1026
657,988,1023
658,989,1020
659,986,1017
660,987,1017
661,989,1015
662,995,1018
663,996,1014
664,996,1012
665,993,1006
666,994,1008
667,994,1005
668,995,1006
669,999,1004
670,998,1004
671,996,1002
672,994,999
673,997,1001
674,1003,1001
675,1003,1000
676,1006,998
677,1006,995
678,1010,996
679,1012,997
680,1013,998
681,1016,993
682,1017,992
683,1019,988
684,1017,986
685,1022,988
686,1025,990
687,1027,991
688,1027,987
689,1024,983
690,1029,983
691,1033,982
692,1036,983
693,1041,984
694,1040,980
695,1041,980
696,1040,979
697,1043,981
698,1046,981
699,1050,979
700,1052,976
701,1053,973
702,1052,970
703,1054,970
704,1056,970
705,1057,970
706,1057,967
707,1057,965
708,1055,965
709,1055,968
710,1060,971
711,1060,972
712,1058,970
713,1056,966
714,1052,966
715,1052,970
716,1054,973
717,1052,975
718,1049,973
719,1043,972
720,1040,973
721,1041,976
722,1037,980
723,1037,980
724,1032,977
725,1027,980
726,1021,979
727,1017,982
728,1014,985
729,1014,985
730,1013,987
731,1008,986
732,1006,987
733,1004,990
734,1002,993
735,1003,997
736,999,995
737,994,995
738,992,997
739,991,1001
740,993,1007
741,992,1009
742,992,1008
743,985,1008
744,983,1010
745,982,1016
746,986,1020
747,986,1022
748,983,1023
749,981,1022
750,981,1027
751,980,1030
752,984,1034
753,983,1036
754,984,1036
755,981,1032
756,981,1034
757,977,1035
758,981,1041
759,983,1037
760,981,1037
761,979,1033
762,978,1033
763,977,1037
764,981,1040
765,983,1040
766,982,1040
767,981,1039
768,982,1038
769,982,1041
770,985,1039
771,985,1040
772,984,1038
773,980,1031
774,981,1030
775,982,1031
776,984,1033
777,985,1034
778,983,1029
779,980,1029
780,978,1026
781,976,1026
782,976,1028
783,978,1024
784,977,1022
785,973,1021
786,972,1018
787,972,1023
788,973,1025
789,976,1025
790,975,1022
791,968,1022
792,968,1023
793,969,1026
794,970,1028
795,971,1031
796,970,1032
797,969,1030
798,966,1033
799,968,1035
800,971,1037
801,971,1039
802,971,1040
803,971,1038
804,969,1039
805,970,1042
806,972,1047
807,974,1045
808,972,1044
809,969,1040
810,968,1038
811,973,1042
812,974,1043
813,975,1042
814,971,1038
815,970,1039
816,971,1038
817,973,1039
818,978,1042
819,977,1042
820,975,1038
821,975,1038
822,974,1040
823,973,1042
824,975,1042
825,978,1041
826,978,1040
827,977,1034
828,975,1035
829,977,1038
830,977,1038
831,977,1038
832,977,1035
833,976,1028
834,973,1023
835,974,1023
836,971,1020
837,972,1019
838,971,1015
839,971,1012
840,972,1007
841,975,1011
842,975,1012
843,977,1012
844,975,1012
845,975,1013
846,978,1013
847,980,1016
848,981,1020
849,983,1022
850,982,1019
851,982,1019
852,980,1020
853,983,1024
854,986,1024
855,994,1024
856,1009,1017
857,1026,1015
858,1044,1011
859,1066,1008
860,1087,1003
861,1109,1002
862,1132,999
863,1153,993
864,1167,982
865,1185,972
866,1194,965
867,1194,958
868,1182,955
869,1160,964
870,1134,977
871,1099,990
872,1060,999
873,1029,1007
874,1011,1012
875,1002,1015
876,992,1019
877,984,1022
878,979,1026
879,978,1028
880,975,1026
881,968,1024
882,965,1027
883,965,1028
884,960,1028
885,963,1026
886,961,1023
887,957,1017
888,954,1015
889,954,1015
890,954,1017
891,952,1016
892,951,1015
893,949,1012
894,949,1010
895,947,1016
896,951,1019
897,951,1019
898,950,1019
899,948,1016
900,947,1018
901,949,1023
902,953,1026
903,955,1028
904,952,1028
905,950,1027
906,948,1030
907,948,1031
908,949,1036
909,950,1036
910,947,1037
911,946,1035
912,948,1035
913,946,1042
914,951,1041
915,953,1041
916,951,1041
917,949,1038
918,949,1039
919,949,1038
920,952,1042
921,951,1040
922,953,1037
923,949,1032
924,948,1031
925,950,1033
926,953,1036
927,954,1035
928,953,1034
929,950,1030
930,949,1028
931,953,1026
932,956,1028
933,956,1025
934,955,1022
935,948,1018
936,952,1018
937,954,1019
938,955,1019
939,957,1019
940,957,1019
941,955,1017
942,953,1017
943,955,1016
944,956,1019
945,959,1020
946,957,1018
947,960,1018
948,960,1016
949,961,1020
950,968,1022
951,970,1021
952,970,1022
953,970,1019
954,971,1023
955,975,1023
956,978,1030
957,980,1031
958,981,1031
959,981,1027
960,981,1028
961,984,1029
962,986,1033
963,990,1033
964,989,1035
965,987,1032
966,986,1033
967,988,1037
968,990,1038
969,992,1038
970,988,1036
971,991,1034
972,992,1032
973,992,1032
974,996,1035
975,994,1032
976,993,1029
977,993,1023
978,992,1020
979,992,1021
980,993,1022
981,993,1022
982,999,1020
983,994,1017
984,992,1015
985,995,1016
986,1001,1021
987,1003,1021
988,1001,1018
989,1000,1019
990,996,1021
991,1001,1023
992,1003,1026
993,1004,1028
994,1002,1024
995,999,1023
996,998,1023
997,998,1026
998,1001,1026
999,1001,1025
1000,997,1024
1001,997,1024
1002,998,1026
1003,1000,1024
1004,1001,1028
1005,1000,1026
1006,997,1026
1007,998,1027
1008,999,1026
1009,999,1031
1010,1003,1029
1011,1001,1030
1012,1000,1029
1013,998,1029
1014,997,1032
1015,1000,1037
1016,999,1035
1017,998,1035
1018,998,1037
1019,995,1036
1020,998,1038
1021,997,1037
1022,1001,1037
1023,1000,1031
1024,1000,1028
1025,997,1026
1026,999,1026
1027,1001,1028
1028,1006,1025
1029,1002,1022
1030,1002,1019
1031,999,1020
1032,1003,1019
1033,1006,1024
1034,1007,1023
1035,1007,1022
1036,1004,1021
1037,1005,1021
1038,1006,1026
1039,1009,1027
1040,1012,1027
1041,1008,1025
1042,1008,1025
1043,1006,1026
1044,1006,1026
1045,1009,1033
1046,1010,1030
1047,1008,1029
1048,1007,1027
1049,1006,1026
1050,1006,1028
1051,1011,1029
1052,1012,1030
1053,1011,1026
1054,1007,1024
1055,1005,1024
1056,1006,1025
1057,1009,1026
1058,1013,1025
1059,1011,1025
1060,1005,1020
1061,1005,1023
1062,1005,1022
1063,1009,1024
1064,1011,1021
1065,1009,1016
1066,1009,1015
1067,1007,1014
1068,1009,1015
1069,1014,1016
1070,1024,1013
1071,1039,1008
1072,1054,999
1073,1072,994
1074,1095,990
1075,1117,986
1076,1141,982
1077,1161,982
1078,1180,975
1079,1199,969
1080,1213,957
1081,1225,950
1082,1223,949
1083,1208,948
1084,1192,949
1085,1171,957
1086,1139,970
1087,1106,983
1088,1075,991
1089,1051,996
1090,1035,1001
1091,1022,1004
1092,1015,1012
1093,1008,1018
1094,1007,1019
1095,1002,1020
1096,999,1021
1097,996,1023
1098,996,1023
1099,995,1028
1100,994,1029
1101,993,1031
1102,988,1028
1103,983,1029
1104,982,1032
1105,984,1034
1106,981,1034
1107,977,1030
1108,976,1028
1109,974,1027
1110,972,1028
1111,969,1029
1112,970,1026
1113,969,1022
1114,967,1020
1115,961,1020
1116,961,1018
1117,961,1020
1118,964,1015
1119,963,1018
1120,959,1017
1121,959,1018
1122,959,1020
1123,959,1020
1124,959,1021
1125,960,1021
1126,957,1023
1127,956,1025
1128,957,1027
1129,960,1031
1130,961,1034
1131,961,1031
1132,960,1033
1133,957,1032
1134,961,1036
1135,964,1037
1136,965,1037
1137,964,1034
1138,963,1032
1139,960,1031
1140,960,1033
1141,966,1033
1142,968,1034
1143,968,1036
1144,963,1030
1145,965,1029
1146,967,1031
1147,972,1033
1148,972,1035
1149,975,1031
1150,973,1032
1151,973,1032
1152,975,1035
1153,977,1036
1154,980,1035
1155,980,1034
1156,977,1030
1157,979,1033
1158,980,1034
1159,983,1034
1160,986,1034
1161,987,1026
1162,986,1020
1163,986,1012
1164,990,1011
1165,993,1014
1166,996,1012
1167,996,1010
1168,995,1009
1169,994,1009
1170,998,1013
1171,1000,1016
1172,1003,1017
1173,1000,1015
1174,1001,1012
1175,999,1017
1176,1000,1019
1177,1002,1024
1178,1003,1024
1179,1001,1025
1180,1000,1024
1181,999,1026
1182,998,1030
1183,1002,1034
1184,1007,1033
1185,1007,1034
1186,1004,1034
1187,1002,1033
1188,1002,1035
1189,1006,1038
1190,1009,1038
1191,1009,1034
1192,1005,1032
1193,1002,1033
1194,1004,1036
1195,1006,1041
1196,1008,1039
1197,1008,1039
1198,1007,1036
1199,1007,1037
1200,1007,1041
1201,1009,1040
1202,1011,1040
1203,1009,1034
1204,1007,1034
1205,1004,1035
1206,1006,1034
1207,1008,1037
1208,1009,1037
1209,1008,1031
1210,1006,1027
1211,1002,1027
1212,1003,1026
1213,1004,1025
1214,1007,1026
1215,1007,1024
1216,1005,1023
1217,1003,1022
1218,1006,1023
1219,1002,1029
1220,1006,1027
1221,1008,1030
1222,1008,1029
1223,1003,1027
1224,1003,1030
1225,1007,1033
1226,1009,1036
1227,1007,1035
1228,1003,1033
1229,1003,1034
1230,1004,1037
1231,1008,1042
1232,1009,1043
1233,1011,1040
1234,1009,1040
1235,1007,1040
1236,1007,1043
1237,1007,1044
1238,1010,1044
1239,1013,1042
1240,1010,1039
1241,1006,1039
1242,1006,1040
1243,1010,1040
1244,1012,1039
1245,1013,1034
1246,1010,1030
1247,1008,1030
1248,1009,1029
1249,1009,1029
1250,1015,1027
1251,1015,1026
1252,1014,1022
1253,1012,1023
1254,1012,1023
1255,1013,1025
1256,1015,1026
1257,1013,1023
1258,1013,1022
1259,1013,1022
1260,1011,1022
1261,1011,1025
1262,1013,1025
1263,1010,1022
1264,1008,1023
1265,1003,1023
1266,1008,1022
1267,1010,1023
1268,1010,1023
1269,1009,1021
1270,1007,1021
1271,1004,1021
1272,1006,1027
1273,1008,1028
1274,1014,1031
1275,1009,1029
1276,1007,1028
1277,1004,1030
1278,1008,1033
1279,1014,1035
1280,1015,1039
1281,1010,1039
1282,1013,1038
1283,1012,1043
1284,1013,1045
1285,1017,1048
1286,1024,1045
1287,1032,1040
1288,1046,1031
1289,1066,1025
1290,1085,1021
1291,1110,1017
1292,1131,1012
1293,1154,1001
1294,1175,999
1295,1197,995
1296,1216,982
1297,1228,970
1298,1232,965
1299,1224,959
1300,1211,956
1301,1191,963
1302,1165,973
1303,1127,985
1304,1090,992
1305,1058,997
1306,1042,1002
1307,1029,1007
1308,1022,1013
1309,1014,1018
1310,1012,1020
1311,1006,1019
1312,1002,1020
1313,996,1018
1314,995,1018
1315,995,1024
1316,995,1026
1317,992,1023
1318,989,1023
1319,984,1022
1320,984,1026
1321,985,1030
1322,987,1030
1323,984,1028
1324,980,1026
1325,978,1030
1326,978,1035
1327,979,1038
1328,978,1039
1329,976,1038
1330,974,1039
1331,972,1039
1332,970,1045
1333,971,1048
1334,971,1049
1335,968,1048
1336,969,1048
1337,967,1049
1338,969,1049
1339,972,1055
1340,972,1054
1341,972,1051
1342,972,1049
1343,973,1047
1344,976,1049
1345,976,1049
1346,976,1045
1347,977,1041
1348,974,1037
1349,972,1035
1350,974,1035
1351,976,1037
1352,977,1037
1353,978,1039
1354,975,1033
1355,974,1036
1356,975,1036
1357,979,1041
1358,982,1039
1359,983,1038
1360,979,1037
1361,979,1035
1362,980,1035
1363,983,1040
1364,986,1039
1365,985,1040
1366,983,1037
1367,981,1037
1368,982,1042
1369,985,1040
1370,983,1041
1371,983,1040
1372,981,1039
1373,981,1038
1374,984,1041
1375,988,1044
1376,989,1046
1377,988,1043
1378,988,1042
1379,987,1042
1380,990,1043
1381,996,1048
1382,997,1049
1383,997,1050
1384,996,1046
1385,997,1047
1386,998,1051
1387,1000,1052
1388,1001,1050
1389,1002,1047
1390,1002,1041
1391,1000,1036
1392,1002,1038
1393,1005,1040
1394,1006,1039
1395,1009,1037
1396,1007,1033
1397,1007,1032
1398,1008,1033
1399,1010,1033
1400,1010,1033
1401,1014,1036
1402,1012,1033
1403,1012,1032
1404,1014,1034
1405,1014,1036
1406,1015,1037
1407,1013,1037
1408,1015,1038
1409,1012,1039
1410,1013,1042
1411,1018,1048
1412,1019,1045
1413,1019,1045
1414,1017,1045
1415,1016,1045
1416,1018,1050
1417,1019,1050
1418,1021,1048
1419,1018,1049
1420,1018,1049
1421,1013,1047
1422,1016,1048
1423,1017,1052
1424,1018,1051
1425,1015,1051
1426,1011,1046
1427,1013,1048
1428,1014,1048
1429,1019,1052
1430,1019,1050
1431,1019,1050
1432,1016,1048
1433,1014,1048
1434,1012,1052
1435,1014,1055
1436,1014,1055
1437,1013,1052
1438,1011,1048
1439,1012,1048
1440,1009,1050
1441,1011,1050
1442,1012,1048
1443,1011,1048
1444,1008,1045
1445,1010,1047
1446,1010,1049
1447,1011,1051
1448,1011,1053
1449,1013,1051
1450,1011,1047
1451,1010,1047
1452,1010,1050
1453,1014,1049
1454,1014,1049
1455,1016,1048
1456,1014,1045
1457,1013,1045
1458,1014,1049
1459,1016,1051
1460,1019,1051
1461,1018,1052
1462,1017,1050
1463,1016,1051
1464,1018,1053
1465,1020,1056
1466,1022,1059
1467,1022,1056
1468,1022,1055
1469,1020,1055
1470,1021,1056
1471,1021,1059
1472,1025,1054
1473,1023,1052
1474,1022,1051
1475,1019,1047
1476,1022,1048
1477,1021,1045
1478,1024,1043
1479,1023,1040
1480,1020,1036
1481,1019,1034
1482,1018,1035
1483,1020,1036
1484,1023,1037
1485,1020,1034
1486,1017,1034
1487,1015,1036
1488,1017,1038
1489,1020,1041
1490,1021,1043
1491,1021,1044
1492,1016,1043
1493,1011,1042
1494,1009,1045
1495,1013,1046
1496,1014,1044
1497,1013,1042
1498,1009,1039
1499,1007,1044
1500,1008,1047
1501,1009,1051
1502,1014,1048
1503,1009,1047
1504,1012,1046
1505,1009,1047
1506,1009,1049
1507,1009,1053
1508,1011,1051
1509,1011,1052
1510,1006,1046
1511,1006,1047
1512,1009,1049
1513,1010,1051
1514,1014,1052
1515,1013,1053
1516,1011,1051
1517,1009,1051
1518,1012,1055
1519,1016,1058
1520,1019,1058
1521,1019,1057
1522,1016,1055
1523,1014,1057
1524,1018,1060
1525,1020,1063
1526,1023,1061
1527,1021,1061
1528,1017,1059
1529,1016,1060
1530,1016,1060
1531,1017,1060
1532,1020,1060
1533,1015,1054
1534,1011,1049
1535,1011,1047
1536,1012,1046
1537,1013,1044
1538,1014,1041
1539,1016,1037
1540,1013,1035
1541,1011,1035
1542,1012,1035
1543,1013,1037
1544,1013,1037
1545,1012,1035
1546,1007,1032
1547,1007,1035
1548,1005,1037
1549,1010,1038
1550,1011,1039
1551,1009,1037
1552,1007,1039
1553,1004,1037
1554,1002,1041
1555,1003,1045
1556,1011,1047
1557,1009,1046
1558,1007,1045
1559,1005,1046
1560,1007,1050
1561,1009,1053
1562,1012,1053
1563,1013,1051
1564,1010,1048
1565,1010,1049
1566,1010,1050
1567,1013,1051
1568,1015,1051
1569,1014,1051
1570,1013,1052
1571,1014,1053
1572,1014,1055
1573,1018,1064
1574,1017,1062
1575,1022,1061
1576,1031,1055
1577,1045,1053
1578,1065,1053
1579,1088,1051
1580,1113,1045
1581,1132,1034
1582,1152,1027
1583,1175,1024
1584,1200,1018
1585,1217,1008
1586,1225,992
1587,1221,983
1588,1208,978
1589,1193,979
1590,1174,984
1591,1151,994
1592,1117,1003
1593,1076,1009
1594,1045,1015
1595,1028,1015
1596,1021,1022
1597,1013,1029
1598,1005,1033
1599,996,1036
1600,988,1036
1601,988,1035
1602,988,1041
1603,986,1043
1604,985,1046
1605,983,1043
1606,977,1042
1607,976,1044
1608,977,1049
1609,976,1052
1610,979,1053
1611,978,1056
1612,974,1054
1613,973,1058
1614,971,1059
1615,972,1064
1616,974,1065
1617,972,1066
1618,971,1064
1619,966,1066
1620,969,1071
1621,969,1072
1622,972,1073
1623,971,1071
1624,969,1069
1625,968,1069
1626,965,1071
1627,967,1075
1628,969,1076
1629,968,1075
1630,965,1072
1631,966,1073
1632,966,1079
1633,969,1081
1634,972,1081
1635,971,1076
1636,970,1069
1637,969,1063
1638,968,1062
1639,972,1059
1640,973,1057
1641,972,1053
1642,969,1049
1643,968,1047
1644,968,1047
1645,972,1051
1646,970,1050
1647,970,1049
1648,965,1043
1649,964,1044
1650,965,1047
1651,968,1049
1652,969,1049
1653,969,1047
1654,966,1043
1655,967,1045
1656,966,1046
1657,969,1053
1658,972,1052
1659,971,1052
1660,970,1050
1661,968,1050
1662,968,1051
1663,968,1056
1664,970,1055
1665,968,1060
1666,967,1061
1667,969,1063
1668,972,1064
1669,975,1069
1670,975,1067
1671,974,1069
1672,975,1067
1673,976,1067
1674,975,1069
1675,982,1070
1676,983,1071
1677,984,1069
1678,986,1065
1679,988,1063
1680,991,1066
1681,991,1066
1682,993,1064
1683,994,1060
1684,994,1058
1685,993,1055
1686,994,1059
1687,1000,1059
1688,1003,1060
1689,1004,1056
1690,1001,1053
1691,1001,1053
1692,1002,1053
1693,1005,1054
1694,1008,1057
1695,1003,1057
1696,1005,1052
1697,1000,1054
1698,1002,1057
1699,1004,1059
1700,1004,1060
1701,1004,1057
1702,1003,1057
1703,1002,1058
1704,999,1059
1705,1002,1062
1706,1004,1065
1707,1002,1063
1708,1000,1065
1709,996,1065
1710,997,1069
1711,1000,1071
1712,1003,1071
1713,998,1072
1714,997,1069
1715,997,1071
1716,998,1071
1717,997,1074
1718,1001,1072
1719,999,1073
1720,996,1068
1721,996,1071
1722,999,1072
1723,1001,1073
1724,1001,1073
1725,1000,1070
1726,1000,1066
1727,998,1067
1728,1000,1067
1729,1002,1066
1730,1004,1064
1731,1005,1062
1732,1005,1054
1733,1002,1054
1734,1001,1057
1735,1002,1059
1736,1004,1059
1737,1005,1058
1738,1006,1056
1739,1006,1055
1740,1001,1059
1741,1006,1063
1742,1007,1064
1743,1008,1061
1744,1007,1059
1745,1008,1058
1746,1007,1060
1747,1008,1059
1748,1006,1062
1749,1006,1063
1750,1003,1058
1751,1004,1057
1752,1000,1057
1753,1005,1060
1754,1003,1059
1755,1005,1059
1756,1004,1058
1757,1003,1055
1758,1002,1061
1759,1004,1063
1760,1004,1062
1761,1001,1061
1762,999,1062
1763,997,1061
1764,997,1061
1765,1000,1063
1766,1001,1060
1767,1003,1055
1768,999,1051
1769,999,1051
1770,1000,1054
1771,1002,1056
1772,1008,1054
1773,1005,1053
1774,1005,1052
1775,1001,1051
1776,1000,1051
1777,1007,1053
1778,1010,1055
1779,1010,1052
1780,1006,1050
1781,1004,1049
1782,1004,1049
1783,1005,1051
1784,1012,1053
1785,1012,1052
1786,1008,1050
1787,1003,1052
1788,1007,1052
1789,1010,1054
1790,1011,1056
1791,1012,1055
1792,1011,1055
1793,1010,1054
1794,1006,1058
1795,1010,1058
1796,1008,1060
1797,1011,1060
1798,1011,1057
1799,1009,1057
1800,1010,1059
1801,1012,1061
1802,1014,1059
1803,1010,1058
1804,1010,1058
1805,1005,1055
1806,1009,1058
1807,1015,1057
1808,1026,1053
1809,1042,1048
1810,1059,1039
1811,1080,1032
1812,1102,1026
1813,1131,1019
1814,1159,1011
1815,1182,1002
1816,1202,994
1817,1212,983
1818,1214,975
1819,1207,978
1820,1197,981
1821,1175,987
1822,1146,995
1823,1105,1009
1824,1066,1021
1825,1039,1030
1826,1028,1037
1827,1016,1040
1828,1006,1045
1829,995,1046
1830,994,1050
1831,996,1053
1832,997,1051
1833,995,1053
1834,989,1047
1835,987,1049
1836,987,1053
1837,985,1058
1838,988,1058
1839,988,1060
1840,986,1057
1841,985,1055
1842,984,1059
1843,986,1063
1844,985,1065
1845,982,1063
1846,980,1061
1847,981,1061
1848,981,1064
1849,978,1068
1850,980,1066
1851,980,1068
1852,978,1063
1853,976,1057
1854,972,1058
1855,972,1055
1856,974,1051
1857,973,1049
1858,972,1046
1859,970,1048
1860,972,1049
1861,972,1051
1862,972,1052
1863,976,1050
1864,970,1049
1865,969,1046
1866,973,1048
1867,975,1053
1868,975,1053
1869,973,1051
1870,972,1047
1871,970,1045
1872,967,1050
1873,970,1054
1874,970,1055
1875,971,1054
1876,969,1053
1877,968,1054
1878,969,1057
1879,972,1059
1880,976,1059
1881,977,1057
1882,975,1059
1883,973,1057
1884,974,1061
1885,977,1065
1886,978,1067
1887,978,1064
1888,979,1064
1889,980,1061
1890,978,1065
1891,982,1064
1892,985,1063
1893,987,1059
1894,989,1055
1895,989,1053
1896,991,1050
1897,994,1054
1898,998,1053
1899,999,1051
1900,997,1045
1901,1001,1045
1902,1002,1048
1903,1004,1050
1904,1008,1047
1905,1007,1045
1906,1004,1043
1907,1005,1042
1908,1004,1045
1909,1007,1047
1910,1011,1047
1911,1013,1048
1912,1009,1048
1913,1008,1044
1914,1009,1049
1915,1011,1051
1916,1014,1052
1917,1015,1050
1918,1013,1050
1919,1008,1050
1920,1007,1055
1921,1011,1054
1922,1011,1058
1923,1009,1057
1924,1009,1056
1925,1008,1055
1926,1007,1059
1927,1006,1063
1928,1011,1064
1929,1011,1066
1930,1010,1066
1931,1009,1066
1932,1010,1065
1933,1009,1071
1934,1011,1069
1935,1014,1067
1936,1011,1062
1937,1010,1057
1938,1013,1057
1939,1012,1055
1940,1017,1053
1941,1016,1051
1942,1015,1050
1943,1014,1049
1944,1014,1055
1945,1017,1056
1946,1021,1061
1947,1021,1059
1948,1021,1056
1949,1019,1057
1950,1020,1057
1951,1022,1060
1952,1025,1060
1953,1025,1057
1954,1022,1055
1955,1018,1053
1956,1019,1056
1957,1023,1057
1958,1024,1055
1959,1022,1053
1960,1021,1050
1961,1016,1047
1962,1017,1050
1963,1019,1054
1964,1020,1053
1965,1020,1052
1966,1018,1052
1967,1015,1050
1968,1014,1051
1969,1015,1057
1970,1018,1059
1971,1017,1058
1972,1016,1058
1973,1013,1059
1974,1011,1062
1975,1010,1063
1976,1011,1065
1977,1012,1062
1978,1009,1060
1979,1007,1063
1980,1009,1061
1981,1011,1065
1982,1013,1064
1983,1014,1062
1984,1011,1061
1985,1010,1059
1986,1013,1058
1987,1012,1062
1988,1015,1059
1989,1017,1057
1990,1013,1053
1991,1013,1053
1992,1013,1056
1993,1017,1059
1994,1022,1059
1995,1020,1058
1996,1016,1055
1997,1017,1055
1998,1017,1057
1999,1020,1058
2000,1023,1060
2001,1024,1059
2002,1020,1055
2003,1017,1056
2004,1018,1056
2005,1023,1058
2006,1024,1056
2007,1023,1055
2008,1024,1053
2009,1021,1050
2010,1018,1051
2011,1020,1050
2012,1024,1049
2013,1023,1048
2014,1019,1045
2015,1018,1043
2016,1017,1044
2017,1022,1043
2018,1027,1037
2019,1040,1032
2020,1056,1026
2021,1075,1019
2022,1102,1015
2023,1125,1010
2024,1155,1007
2025,1178,1009
2026,1200,1002
2027,1219,992
2028,1230,984
2029,1230,980
2030,1224,980
2031,1203,988
2032,1176,997
2033,1141,1009
2034,1098,1022
2035,1066,1031
2036,1044,1040
2037,1029,1043
2038,1019,1044
2039,1009,1048
2040,1004,1053
2041,1002,1058
2042,999,1055
2043,999,1056
2044,994,1055
2045,989,1056
2046,989,1058
2047,990,1060
2048,990,1060
2049,988,1058
2050,986,1060
2051,982,1060
2052,985,1060
2053,985,1058
2054,987,1057
2055,987,1055
2056,985,1054
2057,980,1049
2058,979,1050
2059,979,1049
2060,983,1048
2061,983,1042
2062,980,1039
2063,975,1039
2064,973,1037
2065,975,1039
2066,977,1037
2067,977,1033
2068,974,1032
2069,973,1034
2070,973,1037
2071,973,1042
2072,972,1042
2073,975,1046
2074,974,1044
2075,970,1044
2076,971,1047
2077,973,1048
2078,973,1055
2079,974,1054
2080,970,1052
2081,971,1054
2082,971,1057
2083,973,1060
2084,975,1061
2085,975,1063
2086,972,1060
2087,971,1062
2088,974,1064
2089,974,1066
2090,978,1063
2091,975,1063
2092,977,1061
2093,975,1058
2094,976,1057
2095,979,1059
2096,982,1058
2097,982,1056
2098,982,1051
2099,981,1049
2100,985,1050
2101,987,1049
2102,992,1047
2103,995,1046
2104,995,1042
2105,997,1041
2106,1000,1045
2107,1004,1043
2108,1007,1044
2109,1008,1040
2110,1007,1038
2111,1003,1041
2112,1002,1040
2113,1006,1044
2114,1009,1043
2115,1010,1042
2116,1009,1041
2117,1008,1041
2118,1009,1045
2119,1011,1048
2120,1016,1050
2121,1013,1051
2122,1012,1051
2123,1010,1051
2124,1010,1053
2125,1011,1059
2126,1014,1058
2127,1015,1056
2128,1011,1054
2129,1008,1057
2130,1007,1059
2131,1007,1064
2132,1009,1062
2133,1009,1061
2134,1010,1060
2135,1007,1059
2136,1004,1059
2137,1005,1060
2138,1008,1057
2139,1011,1056
2140,1009,1049
2141,1007,1047
2142,1008,1046
2143,1006,1048
2144,1009,1050
2145,1008,1049
2146,1007,1047
2147,1007,1047
2148,1007,1052
2149,1011,1053
2150,1013,1052
2151,1016,1052
2152,1015,1049
2153,1014,1048
2154,1014,1051
2155,1016,1053
2156,1017,1053
2157,1015,1055
2158,1010,1048
2159,1011,1049
2160,1011,1050
2161,1013,1048
2162,1012,1052
2163,1013,1051
2164,1012,1049
2165,1009,1046
2166,1007,1049
2167,1011,1049
2168,1012,1049
2169,1010,1049
2170,1006,1047
2171,1004,1043
2172,1005,1047
2173,1007,1052
2174,1010,1049
2175,1008,1049
2176,1006,1045
2177,1004,1045
2178,1006,1047
2179,1004,1053
2180,1005,1049
2181,1006,1049
2182,1005,1049
2183,1004,1047
2184,1005,1050
2185,1009,1051
2186,1009,1050
2187,1011,1047
2188,1009,1047
2189,1008,1046
2190,1006,1047
2191,1009,1049
2192,1007,1048
2193,1009,1049
2194,1009,1046
2195,1008,1048
2196,1008,1049
2197,1010,1053
2198,1011,1054
2199,1012,1053
2200,1013,1053
2201,1010,1053
2202,1008,1054
2203,1013,1054
2204,1013,1055
2205,1012,1054
2206,1009,1052
2207,1011,1050
2208,1011,1052
2209,1013,1054
2210,1013,1054
2211,1013,1052
2212,1010,1045
2213,1007,1041
2214,1007,1037
2215,1009,1037
2216,1010,1034
2217,1012,1032
2218,1010,1030
2219,1008,1029
2220,1009,1030
2221,1009,1034
2222,1013,1033
2223,1014,1033
2224,1011,1033
2225,1009,1032
2226,1009,1036
2227,1011,1035
2228,1012,1035
2229,1010,1034
2230,1010,1034
2231,1008,1032
2232,1006,1036
2233,1010,1041
2234,1011,1041
2235,1011,1043
2236,1006,1046
2237,1007,1045
2238,1009,1048
2239,1018,1047
2240,1032,1042
2241,1053,1037
2242,1076,1027
2243,1099,1023
2244,1121,1015
2245,1144,1012
2246,1169,1014
2247,1195,1006
2248,1209,989
2249,1215,979
2250,1213,977
2251,1205,981
2252,1189,986
2253,1164,995
2254,1125,1005
2255,1078,1014
2256,1045,1024
2257,1028,1031
2258,1020,1033
2259,1006,1033
2260,1000,1029
2261,992,1028
2262,989,1029
2263,991,1031
2264,985,1033
2265,982,1034
2266,980,1029
2267,978,1029
2268,976,1031
2269,977,1037
2270,975,1039
2271,973,1039
2272,972,1037
2273,970,1036
2274,970,1042
2275,971,1044
2276,971,1042
2277,967,1044
2278,963,1044
2279,963,1042
2280,963,1045
2281,962,1052
2282,966,1054
2283,966,1054
2284,966,1052
2285,966,1053
2286,968,1055
2287,970,1055
2288,972,1056
2289,967,1056
2290,969,1053
2291,965,1051
2292,966,1052
2293,970,1057
2294,969,1057
2295,969,1055
2296,969,1052
2297,968,1052
2298,969,1053
2299,970,1051
2300,973,1050
2301,972,1046
2302,968,1044
2303,970,1042
2304,971,1045
2305,975,1048
2306,975,1044
2307,975,1043
2308,974,1039
2309,972,1039
2310,972,1042
2311,974,1044
2312,976,1044
2313,974,1043
2314,974,1036
2315,972,1038
2316,974,1038
2317,978,1041
2318,980,1041
2319,981,1041
2320,981,1035
2321,981,1037
2322,982,1038
2323,986,1038
2324,989,1037
2325,989,1038
2326,988,1037
2327,984,1034
2328,984,1040
2329,988,1045
2330,991,1046
2331,993,1048
2332,993,1046
2333,994,1047
2334,995,1052
2335,997,1055
2336,999,1056
2337,997,1053
2338,1001,1050
2339,998,1051
2340,1001,1052
2341,1002,1056
2342,1002,1054
2343,1003,1054
2344,1002,1054
2345,998,1052
2346,1002,1055
2347,1004,1056
2348,1006,1056
2349,1006,1055
2350,1006,1054
2351,1002,1052
2352,1004,1053
2353,1006,1052
2354,1008,1051
2355,1007,1050
2356,1005,1046
2357,1000,1044
2358,1002,1044
2359,1003,1043
2360,1004,1040
2361,1003,1038
2362,1001,1034
2363,1000,1034
2364,999,1037
2365,1001,1036
2366,1004,1039
2367,1004,1039
2368,1000,1038
2369,997,1038
2370,996,1040
2371,995,1044
2372,999,1043
2373,998,1045
2374,998,1042
2375,992,1042
2376,992,1044
2377,996,1051
2378,998,1052
2379,997,1053
2380,995,1053
2381,994,1055
2382,996,1057
2383,996,1061
2384,998,1062
2385,998,1063
2386,996,1060
2387,996,1061
2388,995,1066
2389,997,1066
2390,1002,1064
2391,1001,1063
2392,999,1060
2393,998,1058
2394,998,1058
2395,999,1063
2396,1004,1061
2397,1004,1059
2398,1003,1055
2399,1001,1052
2400,1003,1053
2401,1006,1053
2402,1009,1051
2403,1006,1051
2404,1005,1046
2405,1003,1044
2406,1004,1044
2407,1007,1045
2408,1011,1044
2409,1010,1044
2410,1005,1039
2411,1002,1039
2412,1004,1041
2413,1004,1043
2414,1007,1039
2415,1005,1040
2416,1003,1036
2417,1000,1037
2418,998,1039
2419,1001,1041
2420,999,1041
2421,1001,1043
2422,999,1039
2423,996,1044
2424,998,1046
2425,997,1047
2426,996,1048
2427,997,1048
2428,994,1046
2429,993,1048
2430,992,1052
2431,994,1052
2432,996,1053
2433,995,1056
2434,992,1054
2435,990,1052
2436,991,1053
2437,995,1056
2438,998,1056
2439,995,1052
2440,994,1051
2441,990,1049
2442,990,1050
2443,991,1053
2444,994,1053
2445,993,1051
2446,990,1047
2447,991,1048
2448,991,1047
2449,995,1049
2450,997,1051
2451,998,1049
2452,995,1049
2453,997,1045
2454,1000,1050
2455,1000,1048
2456,1003,1050
2457,1006,1044
2458,1002,1046
2459,1001,1044
2460,1002,1046
2461,1002,1047
2462,1005,1047
2463,1001,1046
2464,1002,1042
2465,1000,1041
2466,999,1040
2467,1002,1041
2468,1002,1042
2469,1001,1042
2470,997,1041
2471,996,1039
2472,994,1043
2473,998,1045
2474,998,1047
2475,998,1045
2476,996,1045
2477,995,1044
2478,994,1042
2479,996,1048
2480,997,1048
2481,999,1050
2482,993,1046
2483,996,1047
2484,992,1050
2485,995,1051
2486,998,1051
2487,999,1052
2488,994,1048
2489,994,1048
2490,992,1051
2491,997,1053
2492,997,1056
2493,999,1056
2494,997,1055
2495,996,1052
2496,1003,1051
2497,1014,1048
2498,1032,1046
2499,1050,1039
2500,1069,1031
2501,1087,1022
2502,1108,1016
2503,1133,1013
2504,1156,1012
2505,1180,1005
2506,1195,993
2507,1205,982
2508,1208,979
2509,1206,979
2510,1199,980
2511,1185,981
2512,1165,990
2513,1136,1001
2514,1096,1010
2515,1065,1021
2516,1040,1027
2517,1027,1030
2518,1019,1034
2519,1009,1035
2520,1000,1043
2521,993,1049
2522,990,1048
2523,988,1048
2524,983,1046
2525,977,1043
2526,975,1041
2527,975,1045
2528,975,1045
2529,975,1046
2530,971,1044
2531,966,1043
2532,967,1042
2533,968,1045
2534,970,1043
2535,968,1044
2536,965,1043
2537,963,1043
2538,962,1045
2539,962,1046
2540,963,1048
2541,963,1045
2542,958,1046
2543,954,1048
2544,955,1049
2545,956,1051
2546,958,1054
2547,958,1053
2548,956,1051
2549,954,1053
2550,955,1056
2551,957,1058
2552,956,1058
2553,960,1056
2554,957,1055
2555,955,1054
2556,954,1055
2557,957,1056
2558,958,1057
2559,957,1055
2560,954,1056
2561,956,1056
2562,956,1059
2563,960,1063
2564,961,1064
2565,961,1062
2566,960,1061
2567,961,1057
2568,962,1056
2569,965,1060
2570,966,1055
2571,967,1055
2572,965,1054
2573,961,1050
2574,962,1051
2575,965,1052
2576,967,1048
2577,970,1048
2578,964,1046
2579,963,1043
2580,961,1045
2581,964,1046
2582,970,1047
2583,970,1044
2584,967,1042
2585,967,1043
2586,967,1043
2587,967,1046
2588,970,1046
2589,970,1048
2590,972,1046
2591,971,1046
2592,969,1049
2593,972,1049
2594,975,1052
2595,973,1051
2596,974,1051
2597,976,1055
2598,976,1055
2599,979,1059
2600,981,1058
2601,982,1062
2602,986,1059
2603,983,1060
2604,986,1060
2605,988,1063
2606,990,1064
2607,989,1061
2608,990,1057
2609,990,1053
2610,993,1053
2611,994,1054
2612,996,1055
2613,994,1052
2614,994,1049
2615,992,1050
2616,995,1051
2617,997,1051
2618,1000,1050
2619,1000,1050
2620,998,1047
2621,994,1045
2622,997,1047
2623,998,1048
2624,998,1048
2625,998,1045
2626,996,1044
2627,991,1042
2628,992,1044
2629,993,1047
2630,995,1047
2631,993,1049
2632,989,1048
2633,987,1047
2634,988,1052
2635,989,1053
2636,988,1056
2637,991,1056
2638,990,1056
2639,987,1055
2640,986,1057
2641,990,1059
2642,990,1059
2643,989,1060
2644,988,1055
2645,986,1056
2646,986,1058
2647,987,1060
2648,989,1064
2649,989,1060
2650,987,1060
2651,985,1057
2652,987,1058
2653,989,1061
2654,993,1060
2655,991,1056
2656,989,1052
2657,987,1051
2658,991,1052
2659,994,1051
2660,996,1050
2661,994,1047
2662,989,1046
2663,990,1044
2664,990,1045
2665,992,1046
2666,993,1047
2667,992,1047
2668,991,1046
2669,991,1044
2670,993,1048
2671,993,1051
2672,995,1051
2673,996,1050
2674,994,1050
2675,994,1050
2676,994,1055
2677,990,1054
2678,994,1055
2679,995,1054
2680,991,1051
2681,987,1048
2682,987,1052
2683,988,1054
2684,991,1053
2685,988,1051
2686,986,1049
2687,987,1049
2688,985,1050
2689,990,1051
2690,992,1054
2691,989,1051
2692,986,1048
2693,985,1048
2694,989,1051
2695,987,1052
2696,989,1052
2697,988,1051
2698,982,1047
2699,982,1049
2700,982,1048
2701,982,1049
2702,986,1047
2703,986,1048
2704,985,1046
2705,982,1045
2706,986,1046
2707,985,1049
2708,987,1048
2709,990,1047
2710,989,1040
2711,985,1041
2712,987,1042
2713,988,1044
2714,992,1043
2715,992,1041
2716,988,1038
2717,987,1040
2718,990,1043
2719,992,1045
2720,994,1046
2721,993,1045
2722,992,1042
2723,988,1044
2724,992,1044
2725,996,1048
2726,997,1050
2727,995,1050
2728,992,1049
2729,994,1048
2730,993,1048
2731,996,1049
2732,998,1051
2733,998,1052
2734,997,1051
2735,994,1051
2736,992,1051
2737,998,1050
2738,1007,1048
2739,1023,1040
2740,1040,1035
2741,1057,1031
2742,1078,1028
2743,1101,1022
2744,1123,1013
2745,1146,1009
2746,1167,1004
2747,1181,1000
2748,1195,991
2749,1200,985
2750,1199,981
2751,1190,977
2752,1173,976
2753,1155,980
2754,1130,989
2755,1099,1002
2756,1063,1011
2757,1035,1016
2758,1014,1022
2759,1004,1026
2760,994,1035
2761,988,1042
2762,983,1048
2763,981,1048
2764,978,1049
2765,973,1051
2766,971,1050
2767,972,1052
2768,970,1054
2769,972,1051
2770,970,1048
2771,965,1048
2772,961,1048
2773,963,1048
2774,963,1050
2775,964,1050
2776,962,1047
2777,962,1048
2778,960,1049
2779,960,1051
2780,963,1049
2781,963,1048
2782,960,1045
2783,959,1047
2784,959,1046
2785,960,1049
2786,961,1049
2787,956,1047
2788,956,1047
2789,956,1046
2790,957,1046
2791,957,1049
2792,957,1046
2793,958,1044
2794,957,1039
2795,955,1038
2796,953,1039
2797,956,1040
2798,958,1040
2799,957,1039
2800,956,1036
2801,955,1037
2802,954,1036
2803,957,1041
2804,958,1040
2805,956,1039
2806,952,1038
2807,953,1038
2808,953,1042
2809,957,1044
2810,960,1045
2811,957,1044
2812,954,1043
2813,954,1043
2814,951,1044
2815,955,1046
2816,956,1047
2817,957,1049
2818,954,1047
2819,952,1045
2820,953,1049
2821,954,1052
2822,959,1051
2823,961,1052
2824,961,1049
2825,958,1050
2826,960,1048
2827,959,1049
2828,963,1046
2829,963,1044
2830,962,1037
2831,960,1036
2832,962,1038
2833,963,1040
2834,967,1042
2835,970,1040
2836,970,1037
2837,969,1037
2838,973,1042
2839,976,1046
2840,982,1043
2841,984,1042
2842,980,1039
2843,982,1038
2844,985,1039
2845,988,1042
2846,993,1043
2847,994,1043
2848,991,1038
2849,992,1039
2850,991,1040
2851,993,1040
2852,994,1040
2853,995,1042
2854,992,1039
2855,989,1037
2856,988,1041
2857,992,1042
2858,993,1043
2859,992,1042
2860,989,1041
2861,989,1039
2862,989,1041
2863,992,1043
2864,992,1046
2865,990,1045
2866,989,1045
2867,985,1042
2868,985,1046
2869,987,1045
2870,989,1048
2871,988,1045
2872,986,1042
2873,986,1041
2874,983,1042
2875,987,1044
2876,989,1045
2877,990,1041
2878,988,1039
2879,987,1038
2880,988,1041
2881,991,1042
2882,988,1043
2883,991,1043
2884,989,1040
2885,989,1040
2886,991,1042
2887,995,1042
2888,994,1043
2889,994,1046
2890,994,1045
2891,995,1046
2892,995,1051
2893,998,1053
2894,999,1054
2895,1000,1055
2896,1000,1052
2897,998,1052
2898,1000,1054
2899,1002,1057
2900,1004,1057
2901,1002,1057
2902,1001,1053
2903,998,1049
2904,997,1051
2905,1000,1049
2906,1002,1045
2907,1000,1042
2908,997,1038
2909,994,1037
2910,992,1036
2911,995,1037
2912,994,1036
2913,997,1035
2914,994,1031
2915,992,1030
2916,988,1034
2917,990,1033
2918,991,1035
2919,990,1035
2920,990,1033
2921,987,1032
2922,987,1033
2923,989,1038
2924,988,1038
2925,992,1040
2926,991,1037
2927,989,1040
2928,990,1039
2929,990,1045
2930,993,1043
2931,992,1044
2932,990,1044
2933,990,1041
2934,989,1045
2935,993,1044
2936,995,1045
2937,995,1045
2938,993,1041
2939,990,1041
2940,990,1042
2941,994,1045
2942,996,1049
2943,995,1048
2944,993,1046
2945,993,1046
2946,989,1049
2947,990,1049
2948,995,1051
2949,996,1047
2950,997,1044
2951,998,1042
2952,996,1041
2953,996,1043
2954,1000,1043
2955,999,1041
2956,996,1038
2957,997,1035
2958,997,1036
2959,998,1038
2960,999,1040
2961,998,1035
2962,995,1031
2963,996,1030
2964,995,1031
2965,997,1033
2966,996,1035
2967,998,1032
2968,995,1031
2969,992,1029
2970,990,1031
2971,996,1035
2972,997,1034
2973,995,1036
2974,997,1032
2975,1001,1034
2976,1012,1031
2977,1030,1031
2978,1051,1026
2979,1070,1020
2980,1090,1012
2981,1107,1007
2982,1129,1003
2983,1155,1006
2984,1176,1007
2985,1193,998
2986,1201,986
2987,1201,978
2988,1195,976
2989,1184,980
2990,1169,983
2991,1146,989
2992,1112,993
2993,1075,1000
2994,1045,1010
2995,1023,1017
2996,1015,1021
2997,1005,1022
2998,993,1023
2999,983,1027
3000,980,1031
3001,981,1035
3002,981,1036
3003,979,1038
3004,973,1035
3005,969,1036
3006,968,1038
3007,971,1041
3008,973,1043
3009,972,1039
3010,968,1036
3011,966,1037
3012,963,1040
3013,968,1044
3014,970,1040
3015,969,1038
3016,965,1034
3017,962,1033
3018,959,1036
3019,962,1036
3020,963,1035
3021,961,1033
3022,958,1032
3023,954,1033
3024,953,1035
3025,956,1038
3026,958,1036
3027,956,1037
3028,954,1036
3029,951,1034
3030,950,1036
3031,950,1040
3032,952,1041
3033,951,1039
3034,948,1040
3035,946,1036
3036,948,1036
3037,949,1040
3038,947,1039
3039,951,1038
3040,949,1036
3041,946,1034
3042,945,1034
3043,949,1036
3044,951,1038
3045,951,1037
3046,949,1037
3047,951,1036
3048,952,1039
3049,954,1040
3050,955,1042
3051,955,1037
3052,955,1035
3053,953,1034
3054,955,1034
3055,956,1039
3056,958,1038
3057,959,1037
3058,959,1037
3059,956,1037
3060,957,1038
3061,959,1039
3062,963,1041
3063,964,1040
3064,962,1039
3065,961,1039
3066,963,1043
3067,964,1044
3068,967,1044
3069,969,1045
3070,969,1040
3071,971,1040
3072,971,1043
3073,975,1044
3074,977,1043
3075,979,1041
3076,978,1035
3077,978,1035
3078,981,1035
3079,983,1035
3080,985,1035
3081,984,1029
3082,987,1026
3083,984,1024
3084,986,1027
3085,990,1027
3086,992,1025
3087,991,1025
3088,988,1025
3089,986,1023
3090,988,1026
3091,989,1029
3092,993,1027
3093,992,1029
3094,990,1027
3095,986,1029
3096,985,1029
3097,986,1033
3098,988,1037
3099,988,1036
3100,987,1037
3101,987,1037
3102,989,1042
3103,991,1044
3104,993,1043
3105,991,1043
3106,990,1042
3107,987,1042
3108,986,1044
3109,992,1045
3110,994,1048
3111,994,1045
3112,991,1039
3113,988,1038
3114,988,1042
3115,988,1044
3116,995,1047
3117,995,1046
3118,992,1045
3119,990,1043
3120,991,1047
3121,993,1048
3122,998,1047
3123,1000,1042
3124,998,1038
3125,997,1037
3126,995,1038
3127,996,1038
3128,999,1036
3129,998,1036
3130,997,1032
3131,996,1032
3132,996,1030
3133,996,1033
3134,999,1032
3135,996,1031
3136,995,1028
3137,992,1028
3138,994,1031
3139,996,1032
3140,995,1032
3141,992,1032
3142,990,1031
3143,991,1029
3144,990,1031
3145,991,1035
3146,994,1037
3147,992,1035
3148,992,1036
3149,990,1037
3150,986,1038
3151,989,1038
3152,991,1041
3153,991,1041
3154,988,1039
3155,987,1043
3156,984,1046
3157,989,1046
3158,991,1049
3159,990,1048
3160,988,1047
3161,989,1044
3162,987,1044
3163,988,1043
3164,989,1040
3165,990,1035
3166,989,1029
3167,988,1028
3168,987,1027
3169,989,1030
3170,995,1032
3171,995,1031
3172,994,1028
3173,993,1027
3174,994,1030
3175,998,1032
3176,998,1032
3177,997,1033
3178,998,1028
3179,998,1028
3180,994,1030
3181,999,1032
3182,1002,1033
3183,999,1032
3184,1000,1030
3185,999,1029
3186,1001,1030
3187,999,1033
3188,999,1033
3189,1002,1029
3190,998,1024
3191,994,1026
3192,995,1027
3193,997,1029
3194,999,1029
3195,995,1030
3196,994,1025
3197,995,1027
3198,994,1030
3199,996,1031
3200,998,1031
3201,996,1033
3202,993,1034
3203,990,1032
3204,989,1031
3205,991,1031
3206,993,1034
3207,990,1032
3208,987,1029
3209,985,1027
3210,986,1030
3211,985,1033
3212,991,1035
3213,992,1031
3214,989,1030
3215,987,1029
3216,986,1030
3217,987,1030
3218,990,1032
3219,992,1032
3220,992,1029
3221,993,1025
3222,990,1025
3223,990,1026
3224,994,1031
3225,994,1030
3226,993,1027
3227,994,1028
3228,994,1031
3229,996,1033
3230,1004,1036
3231,1003,1034
3232,1001,1031
3233,996,1031
3234,998,1033
3235,1006,1033
3236,1021,1029
3237,1036,1024
3238,1053,1019
3239,1073,1012
3240,1094,1010
3241,1118,1005
3242,1139,998
3243,1162,994
3244,1180,991
3245,1193,983
3246,1201,974
3247,1200,970
3248,1193,968
3249,1183,968
3250,1165,969
3251,1138,975
3252,1101,983
3253,1063,994
3254,1037,1000
3255,1019,1002
3256,1010,1004
3257,1001,1007
3258,991,1011
3259,984,1016
3260,977,1017
3261,977,1022
3262,977,1023
3263,973,1023
3264,973,1027
3265,967,1032
3266,969,1034
3267,969,1030
3268,963,1030
3269,964,1031
3270,962,1034
3271,961,1036
3272,964,1036
3273,962,1036
3274,961,1032
3275,960,1033
3276,959,1034
3277,958,1035
3278,961,1035
3279,958,1036
3280,956,1032
3281,955,1033
3282,956,1036
3283,956,1038
3284,960,1037
3285,960,1038
3286,956,1032
3287,953,1034
3288,954,1037
3289,956,1038
3290,960,1039
3291,959,1037
3292,957,1036
3293,956,1034
3294,952,1037
3295,955,1036
3296,955,1034
3297,957,1033
3298,954,1030
3299,954,1025
3300,951,1028
3301,954,1029
3302,958,1025
3303,957,1022
3304,957,1016
3305,957,1016
3306,959,1018
3307,960,1020
3308,962,1022
3309,963,1023
3310,961,1023
3311,959,1021
3312,960,1020
3313,961,1025
3314,965,1026
3315,964,1025
3316,962,1027
3317,960,1026
3318,960,1028
3319,962,1033
3320,965,1037
3321,967,1037
3322,967,1035
3323,965,1034
3324,964,1034
3325,968,1038
3326,974,1040
3327,972,1041
3328,972,1037
3329,975,1036
3330,975,1036
3331,976,1037
3332,979,1037
3333,981,1035
3334,983,1033
3335,981,1034
3336,981,1034
3337,983,1034
3338,986,1035
3339,990,1034
3340,988,1029
3341,986,1026
3342,987,1027
3343,988,1031
3344,991,1032
3345,988,1029
3346,987,1028
3347,987,1026
3348,988,1025
3349,988,1028
3350,991,1027
3351,990,1028
3352,988,1026
3353,986,1023
3354,988,1026
3355,987,1029
3356,991,1029
3357,990,1031
3358,988,1029
3359,988,1029
3360,986,1030
3361,989,1034
3362,989,1037
3363,989,1035
3364,986,1034
3365,985,1034
3366,982,1036
3367,985,1041
3368,986,1044
3369,988,1045
3370,984,1042
3371,982,1044
3372,985,1048
3373,989,1049
3374,992,1052
3375,991,1050
3376,989,1049
3377,989,1049
3378,987,1052
3379,990,1053
3380,993,1053
3381,992,1050
3382,990,1045
3383,989,1042
3384,989,1041
3385,992,1037
3386,994,1032
3387,995,1027
3388,993,1023
3389,993,1023
3390,994,1025
3391,996,1025
3392,997,1026
3393,999,1024
3394,995,1022
3395,993,1021
3396,993,1024
3397,994,1023
3398,998,1024
3399,998,1024
3400,993,1021
3401,992,1021
3402,993,1022
3403,992,1022
3404,994,1024
3405,993,1021
3406,991,1019
3407,990,1020
3408,988,1022
3409,990,1022
3410,993,1023
3411,991,1025
3412,989,1023
3413,988,1021
3414,987,1025
3415,987,1028
3416,989,1029
3417,990,1029
3418,986,1025
3419,985,1028
3420,985,1030
3421,986,1035
3422,988,1036
3423,988,1036
3424,982,1036
3425,984,1034
3426,984,1040
3427,984,1042
3428,987,1044
3429,984,1044
3430,982,1044
3431,983,1042
3432,984,1044
3433,989,1040
3434,988,1040
3435,991,1033
3436,990,1031
3437,987,1029
3438,990,1030
3439,993,1029
3440,998,1029
3441,998,1027
3442,995,1025
3443,993,1024
3444,995,1025
3445,998,1025
3446,997,1028
3447,998,1026
3448,997,1025
3449,993,1022
3450,993,1027
3451,995,1028
3452,1003,1025
3453,1011,1023
3454,1023,1017
3455,1042,1009
3456,1062,1005
3457,1085,999
3458,1109,993
3459,1130,987
3460,1149,983
3461,1167,982
3462,1187,978
3463,1203,973
3464,1206,968
3465,1196,963
3466,1182,962
3467,1168,962
3468,1147,971
3469,1120,980
3470,1087,993
3471,1049,1002
3472,1019,1004
3473,1003,1009
3474,993,1016
3475,986,1023
3476,978,1026
3477,971,1030
3478,966,1028
3479,965,1028
3480,964,1031
3481,960,1033
3482,964,1034
3483,964,1032
3484,957,1030
3485,954,1028
3486,953,1030
3487,955,1029
3488,957,1029
3489,955,1027
3490,949,1023
3491,954,1026
3492,951,1028
3493,953,1032
3494,955,1033
3495,955,1031
3496,951,1030
3497,951,1029
3498,953,1029
3499,952,1031
3500,954,1034
3501,954,1034
3502,951,1029
3503,947,1028
3504,948,1032
3505,952,1034
3506,953,1032
3507,950,1033
3508,945,1030
3509,945,1030
3510,944,1029
3511,945,1031
3512,947,1033
3513,948,1032
3514,944,1030
3515,945,1026
3516,942,1028
3517,945,1028
3518,949,1026
3519,949,1024
3520,946,1025
3521,944,1024
3522,944,1026
3523,946,1026
3524,947,1031
3525,945,1030
3526,944,1026
3527,942,1026
3528,941,1029
3529,944,1031
3530,945,1031
3531,945,1033
3532,946,1032
3533,946,1030
3534,946,1034
3535,949,1036
3536,951,1040
3537,951,1037
3538,949,1033
3539,948,1036
3540,950,1035
3541,956,1039
3542,960,1040
3543,960,1038
3544,959,1034
3545,959,1035
3546,961,1039
3547,968,1039
3548,970,1040
3549,969,1038
3550,971,1037
3551,973,1038
3552,975,1037
3553,981,1037
3554,984,1035
3555,987,1034
3556,982,1029
3557,983,1028
3558,982,1025
3559,984,1025
3560,984,1024
3561,985,1023
3562,983,1020
3563,980,1017
3564,981,1017
3565,981,1023
3566,982,1023
3567,982,1020
3568,982,1021
3569,976,1020
3570,976,1021
3571,978,1025
3572,979,1027
3573,981,1027
3574,981,1026
3575,979,1028
3576,977,1032
3577,975,1033
3578,979,1036
3579,977,1037
3580,975,1039
3581,975,1038
3582,973,1044
3583,978,1047
3584,978,1048
3585,978,1048
3586,977,1045
3587,976,1045
3588,978,1045
3589,980,1049
3590,982,1048
3591,982,1048
3592,982,1044
3593,982,1043
3594,983,1041
3595,985,1042
3596,988,1042
3597,989,1039
3598,987,1036
3599,986,1033
3600,985,1033
3601,988,1034
3602,992,1035
3603,992,1033
3604,991,1029
3605,990,1028
3606,988,1030
3607,991,1030
3608,993,1029
3609,994,1028
3610,993,1027
3611,991,1029
3612,988,1026
3613,990,1027
3614,990,1027
3615,989,1026
3616,987,1024
3617,985,1023
3618,985,1027
3619,985,1025
3620,987,1027
3621,984,1026
3622,982,1024
3623,982,1024
3624,982,1028
3625,981,1034
3626,981,1035
3627,982,1036
3628,980,1037
3629,976,1035
3630,976,1042
3631,978,1046
3632,979,1050
3633,981,1049
3634,982,1050
3635,980,1049
3636,982,1046
3637,985,1043
3638,986,1046
3639,985,1042
3640,981,1038
3641,979,1037
3642,981,1036
3643,984,1037
3644,985,1037
3645,985,1035
3646,983,1032
3647,983,1031
3648,983,1032
3649,984,1034
3650,988,1033
3651,989,1032
3652,989,1032
3653,988,1030
3654,988,1028
3655,991,1029
3656,994,1030
3657,995,1029
3658,993,1027
3659,991,1026
3660,988,1030
3661,989,1036
3662,992,1035
3663,1000,1031
3664,1008,1025
3665,1021,1019
3666,1039,1016
3667,1065,1012
3668,1089,1006
3669,1110,998
3670,1130,989
3671,1156,988
3672,1175,988
3673,1193,984
3674,1200,980
3675,1197,972
3676,1182,967
3677,1164,970
3678,1141,977
3679,1112,986
3680,1080,995
3681,1038,1002
3682,1008,1006
3683,993,1010
3684,985,1017
3685,979,1026
3686,972,1029
3687,967,1033
3688,963,1032
3689,959,1031
3690,957,1035
3691,957,1041
3692,959,1042
3693,958,1039
3694,955,1036
3695,950,1037
3696,950,1037
3697,952,1037
3698,953,1036
3699,952,1037
3700,952,1035
3701,950,1033
3702,946,1034
3703,948,1036
3704,950,1036
3705,952,1035
3706,951,1032
3707,949,1030
3708,949,1034
3709,948,1037
3710,949,1036
3711,948,1036
3712,947,1035
3713,944,1033
3714,944,1035
3715,945,1040
3716,947,1037
3717,945,1037
3718,942,1036
3719,940,1036
3720,938,1037
3721,942,1041
3722,941,1041
3723,940,1042
3724,938,1039
3725,937,1040
3726,937,1037
3727,941,1040
3728,945,1038
3729,943,1033
3730,941,1028
3731,941,1026
3732,939,1025
3733,938,1031
3734,944,1034
3735,943,1032
3736,941,1029
3737,939,1028
3738,937,1030
3739,939,1034
3740,940,1039
3741,939,1038
3742,941,1034
3743,938,1035
3744,940,1035
3745,944,1038
3746,947,1037
3747,947,1036
3748,946,1034
3749,947,1033
3750,947,1031
3751,950,1033
3752,954,1034
3753,955,1031
3754,956,1030
3755,957,1031
3756,959,1034
3757,965,1036
3758,970,1035
3759,970,1037
3760,972,1035
3761,972,1033
3762,973,1036
3763,977,1039
3764,983,1037
3765,984,1040
3766,978,1037
3767,979,1034
3768,978,1037
3769,978,1040
3770,980,1039
3771,977,1037
3772,979,1035
3773,975,1033
3774,972,1037
3775,975,1039
3776,978,1038
3777,975,1037
3778,975,1032
3779,973,1032
3780,973,1032
3781,974,1032
3782,979,1032
3783,976,1034
3784,976,1032
3785,975,1032
3786,973,1033
3787,974,1036
3788,976,1039
3789,974,1038
3790,972,1039
3791,974,1039
3792,972,1042
3793,975,1044
3794,977,1047
3795,977,1047
3796,976,1049
3797,972,1048
3798,975,1048
3799,977,1050
3800,980,1050
3801,980,1048
3802,977,1047
3803,975,1044
3804,976,1044
3805,978,1047
3806,981,1049
3807,983,1048
3808,979,1045
3809,978,1046
3810,979,1046
3811,982,1050
3812,987,1050
3813,988,1047
3814,983,1044
3815,984,1042
3816,981,1044
3817,984,1042
3818,986,1041
3819,985,1039
3820,984,1034
3821,979,1033
3822,976,1031
3823,975,1033
3824,971,1029
3825,960,1027
3826,946,1025
3827,935,1023
3828,933,1023
3829,930,1025
3830,929,1028
3831,918,1029
3832,910,1032
3833,899,1034
3834,889,1040
3835,885,1046
3836,877,1050
3837,862,1053
3838,852,1054
3839,837,1056
3840,827,1056
3841,824,1057
3842,827,1055
3843,833,1055
3844,839,1054
3845,846,1056
3846,856,1065
3847,867,1080
3848,874,1087
3849,882,1093
3850,888,1092
3851,893,1096
3852,900,1101
3853,907,1106
3854,912,1110
3855,917,1109
3856,921,1105
3857,930,1093
3858,939,1082
3859,956,1072
3860,970,1061
3861,981,1050
3862,987,1042
3863,992,1040
3864,995,1041
3865,998,1042
3866,999,1037
3867,1002,1029
3868,999,1026
3869,1000,1023
3870,1003,1021
3871,1005,1021
3872,1011,1018
3873,1009,1016
3874,1008,1014
3875,1005,1012
3876,1010,1012
3877,1012,1013
3878,1013,1014
3879,1015,1014
3880,1015,1010
3881,1012,1011
3882,1013,1014
3883,1019,1015
3884,1023,1018
3885,1020,1018
3886,1022,1018
3887,1022,1016
3888,1024,1019
3889,1028,1022
3890,1030,1025
3891,1033,1024
3892,1032,1024
3893,1034,1021
3894,1034,1023
3895,1041,1024
3896,1043,1029
3897,1045,1029
3898,1046,1027
3899,1047,1029
3900,1048,1029
3901,1052,1031
3902,1059,1031
3903,1060,1031
3904,1061,1028
3905,1063,1025
3906,1065,1028
3907,1068,1028
3908,1072,1027
3909,1073,1023
3910,1074,1021
3911,1072,1015
3912,1073,1014
3913,1078,1016
3914,1081,1015
3915,1080,1012
3916,1076,1009
3917,1075,1003
3918,1074,1006
3919,1075,1005
3920,1077,1005
3921,1075,1006
3922,1070,1004
3923,1068,1003
3924,1065,1006
3925,1064,1007
3926,1064,1008
3927,1059,1008
3928,1052,1008
3929,1050,1007
3930,1045,1012
3931,1039,1014
3932,1039,1017
3933,1034,1015
3934,1034,1014
3935,1029,1017
3936,1024,1018
3937,1022,1022
3938,1021,1026
3939,1020,1028
3940,1016,1028
3941,1012,1029
3942,1008,1035
3943,1008,1038
3944,1009,1040
3945,1003,1043
3946,998,1042
3947,994,1042
3948,993,1045
3949,994,1047
3950,994,1048
3951,992,1048
3952,986,1049
3953,987,1047
3954,983,1048
3955,983,1051
3956,986,1051
3957,987,1051
3958,985,1049
3959,984,1046
3960,983,1046
3961,985,1048
3962,986,1048
3963,986,1045
3964,986,1041
3965,985,1039
3966,985,1037
3967,985,1038
3968,988,1038
3969,987,1037
3970,987,1040
3971,987,1038
3972,988,1038
3973,990,1042
3974,995,1049
3975,992,1045
3976,991,1043
3977,989,1043
3978,988,1044
3979,992,1047
3980,994,1047
3981,992,1046
3982,987,1045
3983,989,1046
3984,985,1047
3985,986,1050
3986,986,1049
3987,986,1050
3988,983,1048
3989,982,1048
3990,980,1048
3991,980,1050
3992,982,1051
3993,979,1049
3994,979,1049
3995,975,1050
3996,972,1051
3997,974,1053
3998,976,1056
3999,973,1052
4000,972,1050
4001,969,1045
4002,969,1044
4003,971,1044
4004,972,1045
4005,973,1045
4006,968,1041
4007,964,1041
4008,968,1043
4009,968,1046
4010,970,1046
4011,969,1048
4012,967,1048
4013,963,1044
4014,964,1048
4015,966,1051
4016,968,1051
4017,969,1049
4018,967,1045
4019,964,1045
4020,963,1046
4021,965,1048
4022,971,1051
4023,972,1050
4024,967,1047
4025,964,1045
4026,967,1047
4027,970,1051
4028,971,1051
4029,972,1049
4030,970,1044
4031,968,1045
4032,969,1048
4033,969,1048
4034,974,1050
4035,971,1051
4036,971,1049
4037,970,1045
4038,968,1047
4039,971,1048
4040,972,1053
4041,971,1050
4042,966,1046
4043,964,1046
4044,964,1049
4045,966,1049
4046,969,1050
4047,964,1050
4048,964,1047
4049,962,1044
4050,958,1045
4051,960,1046
4052,961,1047
4053,959,1046
4054,958,1039
4055,956,1036
4056,951,1035
4057,956,1035
4058,958,1036
4059,958,1038
4060,957,1034
4061,958,1034
4062,953,1038
4063,956,1042
4064,958,1045
4065,958,1046
4066,958,1045
4067,958,1044
4068,958,1044
4069,956,1049
4070,960,1050
4071,960,1049
4072,958,1046
4073,958,1047
4074,955,1047
4075,957,1048
4076,960,1048
4077,961,1050
4078,959,1046
4079,959,1049
4080,956,1049
4081,960,1053
4082,960,1054
4083,963,1054
4084,963,1051
4085,963,1052
4086,963,1052
4087,964,1053
4088,966,1052
4089,967,1054
4090,965,1051
4091,962,1049
4092,963,1049
4093,963,1052
4094,962,1052
4095,963,1054
4096,964,1050
4097,958,1051
4098,957,1052
4099,959,1057
4100,960,1057
4101,959,1053
4102,957,1046
4103,957,1041
4104,956,1042
4105,958,1043
4106,959,1038
4107,958,1036
4108,958,1033
4109,955,1034
4110,955,1033
4111,962,1036
4112,962,1038
4113,963,1037
4114,959,1037
4115,958,1035
4116,960,1038
4117,960,1043
4118,963,1047
4119,963,1047
4120,963,1046
4121,964,1045
4122,961,1046
4123,963,1048
4124,967,1049
4125,967,1046
4126,966,1046
4127,963,1044
4128,960,1044
4129,964,1043
4130,969,1043
4131,970,1044
4132,969,1043
4133,969,1043
4134,969,1047
4135,969,1050
4136,973,1049
4137,975,1049
4138,972,1048
4139,969,1049
4140,970,1048
4141,981,1049
4142,998,1045
4143,1018,1039
4144,1036,1034
4145,1057,1027
4146,1079,1022
4147,1103,1019
4148,1126,1015
4149,1148,1010
4150,1160,995
4151,1166,982
4152,1162,973
4153,1156,971
4154,1145,972
4155,1120,977
4156,1085,984
4157,1042,996
4158,1004,1007
4159,985,1017
4160,981,1025
4161,972,1031
4162,961,1033
4163,954,1036
4164,949,1042
4165,952,1044
4166,951,1050
4167,949,1050
4168,947,1051
4169,942,1050
4170,941,1053
4171,945,1057
4172,946,1059
4173,944,1060
4174,941,1060
4175,937,1057
4176,939,1057
4177,941,1061
4178,943,1062
4179,941,1060
4180,938,1057
4181,938,1057
4182,933,1058
4183,938,1060
4184,940,1062
4185,940,1060
4186,939,1057
4187,939,1056
4188,938,1059
4189,943,1061
4190,943,1062
4191,941,1058
4192,940,1054
4193,939,1050
4194,938,1048
4195,938,1049
4196,942,1047
4197,940,1043
4198,937,1041
4199,937,1037
4200,935,1035
4201,936,1037
4202,940,1038
4203,937,1037
4204,937,1035
4205,935,1035
4206,939,1036
4207,940,1038
4208,943,1039
4209,945,1039
4210,941,1037
4211,939,1038
4212,942,1042
4213,943,1043
4214,948,1048
4215,947,1047
4216,946,1043
4217,944,1046
4218,944,1048
4219,945,1053
4220,947,1055
4221,948,1056
4222,948,1053
4223,950,1052
4224,949,1054
4225,952,1058
4226,957,1061
4227,956,1058
4228,955,1057
4229,954,1055
4230,954,1056
4231,955,1055
4232,961,1055
4233,960,1054
4234,959,1050
4235,960,1049
4236,960,1048
4237,964,1050
4238,967,1052
4239,970,1050
4240,970,1047
4241,970,1043
4242,973,1040
4243,976,1040
4244,977,1039
4245,975,1039
4246,978,1038
4247,980,1037
4248,978,1040
4249,978,1043
4250,981,1044
4251,982,1042
4252,979,1042
4253,978,1039
4254,977,1040
4255,977,1044
4256,984,1045
4257,984,1044
4258,981,1045
4259,977,1044
4260,978,1048
4261,982,1051
4262,985,1055
4263,983,1053
4264,980,1052
4265,976,1055
4266,974,1055
4267,978,1059
4268,979,1059
4269,982,1062
4270,979,1061
4271,977,1059
4272,976,1064
4273,978,1068
4274,983,1070
4275,983,1069
4276,986,1067
4277,983,1066
4278,980,1067
4279,981,1067
4280,986,1067
4281,986,1066
4282,985,1061
4283,987,1054
4284,984,1054
4285,989,1051
4286,990,1047
4287,989,1045
4288,988,1035
4289,987,1037
4290,986,1040
4291,990,1041
4292,993,1044
4293,994,1042
4294,989,1038
4295,988,1038
4296,988,1041
4297,990,1042
4298,994,1042
4299,991,1043
4300,989,1041
4301,987,1037
4302,988,1039
4303,990,1042
4304,991,1043
4305,990,1043
4306,987,1041
4307,985,1039
4308,987,1040
4309,988,1043
4310,990,1043
4311,987,1044
4312,985,1042
4313,984,1043
4314,986,1048
4315,988,1049
4316,986,1051
4317,988,1052
4318,985,1051
4319,982,1050
4320,981,1053
4321,982,1055
4322,983,1059
4323,984,1059
4324,985,1059
4325,982,1061
4326,981,1062
4327,988,1065
4328,988,1066
4329,987,1065
4330,985,1064
4331,983,1065
4332,983,1067
4333,987,1069
4334,989,1070
4335,989,1063
4336,988,1058
4337,989,1056
4338,989,1054
4339,993,1049
4340,993,1046
4341,995,1041
4342,993,1039
4343,992,1037
4344,992,1036
4345,991,1039
4346,994,1037
4347,996,1033
4348,992,1034
4349,992,1033
4350,987,1031
4351,990,1034
4352,996,1038
4353,994,1035
4354,992,1031
4355,990,1030
4356,988,1031
4357,990,1033
4358,990,1034
4359,991,1035
4360,988,1033
4361,989,1033
4362,989,1036
4363,991,1038
4364,995,1039
4365,994,1038
4366,989,1038
4367,989,1039
4368,989,1045
4369,992,1044
4370,1003,1045
4371,1016,1043
4372,1032,1039
4373,1052,1031
4374,1073,1032
4375,1099,1027
4376,1123,1023
4377,1149,1022
4378,1169,1021
4379,1187,1016
4380,1202,1009
4381,1205,1004
4382,1203,1001
4383,1193,994
4384,1173,993
4385,1146,996
4386,1112,1005
4387,1072,1016
4388,1039,1023
4389,1019,1026
4390,1008,1030
4391,997,1032
4392,989,1036
4393,982,1040
4394,983,1042
4395,982,1042
4396,980,1042
4397,975,1040
4398,972,1043
4399,973,1045
4400,975,1044
4401,971,1044
4402,970,1044
4403,966,1041
4404,965,1044
4405,966,1046
4406,966,1048
4407,962,1048
4408,959,1045
4409,958,1046
4410,958,1046
4411,956,1045
4412,958,1047
4413,956,1046
4414,953,1045
4415,951,1045
4416,949,1046
4417,951,1048
4418,953,1052
4419,952,1049
4420,948,1049
4421,947,1050
4422,947,1054
4423,948,1056
4424,951,1057
4425,946,1057
4426,946,1054
4427,939,1055
4428,940,1054
4429,947,1061
4430,947,1061
4431,949,1062
4432,948,1059
4433,947,1058
4434,945,1056
4435,947,1056
4436,950,1058
4437,946,1053
4438,948,1046
4439,949,1046
4440,949,1046
4441,953,1049
4442,955,1052
4443,957,1051
4444,959,1045
4445,959,1044
4446,961,1049
4447,964,1047
4448,967,1047
4449,968,1048
4450,969,1046
4451,967,1045
4452,969,1044
4453,972,1046
4454,974,1049
4455,976,1047
4456,978,1046
4457,978,1043
4458,979,1047
4459,982,1048
4460,983,1051
4461,985,1050
4462,984,1048
4463,985,1049
4464,987,1053
4465,987,1055
4466,987,1056
4467,988,1057
4468,984,1055
4469,985,1055
4470,984,1057
4471,984,1057
4472,986,1062
4473,983,1059
4474,981,1059
4475,982,1059
4476,984,1062
4477,983,1063
4478,987,1065
4479,987,1062
4480,983,1059
4481,979,1057
4482,979,1054
4483,982,1054
4484,985,1054
4485,982,1055
4486,983,1048
4487,981,1045
4488,979,1043
4489,981,1046
4490,986,1042
4491,987,1039
4492,986,1038
4493,985,1039
4494,983,1041
4495,986,1042
4496,988,1043
4497,990,1045
4498,988,1043
4499,987,1044
4500,987,1047
4501,991,1051
4502,993,1053
4503,993,1056
4504,993,1051
4505,989,1052
4506,986,1053
4507,989,1056
4508,993,1056
4509,993,1054
4510,990,1053
4511,988,1055
4512,986,1055
4513,989,1061
4514,992,1063
4515,993,1062
4516,987,1059
4517,987,1058
4518,984,1061
4519,986,1063
4520,990,1068
4521,987,1068
4522,987,1065
4523,984,1064
4524,986,1065
4525,988,1068
4526,989,1069
4527,989,1067
4528,986,1067
4529,984,1065
4530,987,1063
4531,990,1064
4532,991,1065
4533,989,1062
4534,986,1059
4535,985,1059
4536,987,1058
4537,989,1060
4538,991,1061
4539,988,1060
4540,986,1059
4541,985,1055
4542,984,1056
4543,987,1053
4544,989,1049
4545,990,1047
4546,986,1043
4547,981,1042
4548,982,1041
4549,986,1040
4550,988,1043
4551,989,1041
4552,988,1037
4553,985,1037
4554,984,1038
4555,987,1041
4556,989,1043
4557,990,1043
4558,992,1041
4559,989,1041
4560,989,1041
4561,991,1046
4562,989,1044
4563,991,1045
4564,990,1043
4565,988,1042
4566,988,1045
4567,988,1049
4568,988,1051
4569,989,1049
4570,987,1047
4571,986,1048
4572,986,1050
4573,986,1054
4574,990,1053
4575,990,1057
4576,987,1056
4577,988,1053
4578,986,1056
4579,990,1059
4580,992,1060
4581,991,1060
4582,988,1056
4583,993,1052
4584,1003,1052
4585,1019,1048
4586,1040,1045
4587,1065,1041
4588,1087,1032
4589,1106,1026
4590,1123,1023
4591,1151,1020
4592,1176,1016
4593,1203,1010
4594,1215,1000
4595,1216,989
4596,1208,987
4597,1198,989
4598,1180,990
4599,1152,998
4600,1112,1005
4601,1068,1013
4602,1036,1022
4603,1019,1032
4604,1010,1039
4605,998,1042
4606,982,1041
4607,972,1044
4608,968,1044
4609,965,1048
4610,967,1046
4611,963,1042
4612,959,1035
4613,955,1035
4614,955,1038
4615,957,1040
4616,959,1045
4617,959,1044
4618,956,1042
4619,953,1041
4620,953,1042
4621,955,1046
4622,954,1048
4623,956,1049
4624,951,1047
4625,950,1049
4626,946,1050
4627,944,1054
4628,945,1053
4629,949,1054
4630,947,1054
4631,947,1054
4632,946,1056
4633,944,1059
4634,948,1060
4635,947,1061
4636,946,1057
4637,945,1055
4638,943,1058
4639,945,1060
4640,950,1060
4641,948,1056
4642,944,1055
4643,942,1054
4644,945,1056
4645,948,1057
4646,951,1059
4647,951,1057
4648,950,1056
4649,948,1056
4650,948,1056
4651,952,1056
4652,956,1058
4653,957,1056
4654,952,1055
4655,951,1051
4656,952,1055
4657,953,1057
4658,955,1059
4659,955,1054
4660,953,1055
4661,947,1054
4662,945,1054
4663,948,1054
4664,950,1050
4665,952,1045
4666,951,1039
4667,950,1037
4668,951,1037
4669,955,1037
4670,957,1044
4671,958,1041
4672,957,1041
4673,958,1041
4674,958,1045
4675,958,1046
4676,964,1050
4677,964,1049
4678,964,1042
4679,963,1046
4680,964,1048
4681,968,1050
4682,973,1055
4683,970,1055
4684,972,1052
4685,970,1053
4686,972,1055
4687,973,1061
4688,979,1063
4689,982,1061
4690,978,1060
4691,978,1059
4692,977,1060
4693,981,1062
4694,985,1063
4695,986,1060
4696,984,1059
4697,981,1058
4698,981,1057
4699,985,1060
4700,990,1061
4701,989,1060
4702,988,1061
4703,988,1061
4704,988,1061
4705,991,1063
4706,992,1065
4707,993,1063
4708,992,1061
4709,989,1059
4710,989,1062
4711,990,1060
4712,990,1061
4713,988,1061
4714,984,1058
4715,980,1057
4716,978,1056
4717,980,1055
4718,983,1051
4719,983,1048
4720,981,1045
4721,982,1040
4722,981,1039
4723,985,1043
4724,987,1045
4725,987,1045
4726,986,1047
4727,982,1046
4728,982,1047
4729,987,1051
4730,988,1054
4731,988,1054
4732,984,1051
4733,978,1050
4734,979,1053
4735,980,1058
4736,984,1059
4737,984,1058
4738,983,1059
4739,982,1058
4740,982,1058
4741,981,1063
4742,983,1064
4743,983,1063
4744,984,1061
4745,985,1060
4746,984,1055
4747,984,1059
4748,984,1059
4749,985,1059
4750,986,1057
4751,987,1056
4752,986,1057
4753,988,1058
4754,990,1060
4755,989,1059
4756,988,1059
4757,987,1059
4758,987,1059
4759,990,1060
4760,992,1063
4761,990,1063
4762,985,1061
4763,984,1060
4764,981,1059
4765,985,1061
4766,985,1063
4767,981,1060
4768,982,1051
4769,979,1043
4770,979,1045
4771,982,1045
4772,985,1044
4773,984,1043
4774,986,1043
4775,980,1043
4776,981,1045
4777,983,1048
4778,984,1050
4779,986,1050
4780,985,1049
4781,984,1047
4782,982,1050
4783,984,1054
4784,983,1056
4785,980,1057
4786,980,1055
4787,980,1054
4788,980,1058
4789,983,1062
4790,984,1063
4791,986,1063
4792,983,1061
4793,982,1060
4794,983,1062
4795,985,1063
4796,988,1065
4797,984,1062
4798,985,1063
4799,982,1057
4800,981,1059
4801,984,1061
4802,989,1063
4803,989,1060
4804,987,1058
4805,985,1058
4806,984,1059
4807,989,1062
4808,992,1064
4809,993,1063
4810,992,1062
4811,988,1060
4812,991,1062
4813,993,1063
4814,1005,1061
4815,1021,1056
4816,1039,1050
4817,1059,1042
4818,1078,1039
4819,1097,1034
4820,1120,1023
4821,1141,1015
4822,1162,1008
4823,1178,1005
4824,1191,998
4825,1198,995
4826,1197,986
4827,1186,985
4828,1172,983
4829,1155,982
4830,1133,991
4831,1102,998
4832,1067,1008
4833,1035,1016
4834,1012,1021
4835,1001,1025
4836,993,1032
4837,984,1040
4838,979,1045
4839,974,1047
4840,968,1047
4841,964,1049
4842,958,1054
4843,960,1055
4844,960,1060
4845,959,1059
4846,955,1058
4847,953,1062
4848,955,1061
4849,952,1064
4850,952,1067
4851,953,1066
4852,953,1062
4853,946,1063
4854,947,1062
4855,951,1064
4856,954,1064
4857,952,1061
4858,948,1058
4859,948,1057
4860,947,1061
4861,952,1064
4862,955,1066
4863,953,1066
4864,951,1061
4865,950,1060
4866,948,1063
4867,950,1063
4868,955,1062
4869,954,1065
4870,952,1060
4871,948,1063
4872,946,1062
4873,948,1065
4874,951,1067
4875,952,1065
4876,948,1062
4877,946,1061
4878,945,1058
4879,944,1056
4880,944,1055
4881,944,1053
4882,940,1047
4883,938,1045
4884,939,1045
4885,943,1047
4886,943,1046
4887,945,1047
4888,943,1045
4889,942,1045
4890,942,1047
4891,945,1049
4892,946,1053
4893,950,1054
4894,945,1053
4895,942,1050
4896,940,1053
4897,941,1056
4898,944,1058
4899,947,1060
4900,947,1059
4901,942,1056
4902,940,1060
4903,942,1064
4904,945,1065
4905,946,1066
4906,947,1067
4907,943,1066
4908,947,1067
4909,951,1068
4910,950,1070
4911,954,1067
4912,954,1065
4913,956,1064
4914,957,1064
4915,958,1069
4916,962,1067
4917,967,1062
4918,965,1060
4919,965,1062
4920,967,1063
4921,972,1064
4922,975,1067
4923,975,1065
4924,976,1063
4925,979,1062
4926,978,1064
4927,980,1067
4928,983,1067
4929,984,1066
4930,981,1066
4931,978,1063
4932,979,1063
4933,982,1063
4934,983,1061
4935,982,1058
4936,980,1056
4937,978,1052
4938,977,1054
4939,978,1055
4940,980,1055
4941,980,1052
4942,978,1050
4943,975,1046
4944,976,1046
4945,981,1050
4946,983,1052
4947,984,1051
4948,981,1052
4949,976,1051
4950,976,1053
4951,980,1056
4952,983,1058
4953,983,1057
4954,981,1057
4955,976,1059
4956,976,1061
4957,977,1065
4958,980,1067
4959,977,1066
4960,975,1066
4961,975,1063
4962,975,1068
4963,977,1069
4964,980,1073
4965,980,1072
4966,978,1069
4967,975,1067
4968,977,1068
4969,982,1069
4970,983,1069
4971,983,1067
4972,980,1065
4973,980,1062
4974,977,1064
4975,982,1065
4976,985,1067
4977,989,1065
4978,985,1065
4979,985,1065
4980,984,1066
4981,986,1068
4982,989,1071
4983,992,1070
4984,988,1068
4985,986,1064
4986,985,1062
4987,985,1062
4988,991,1059
4989,991,1057
4990,988,1053
4991,985,1050
4992,983,1047
4993,982,1047
4994,983,1051
4995,981,1050
4996,982,1046
4997,980,1045
4998,981,1046
4999,982,1049
5000,984,1052
5001,986,1055
5002,985,1051
5003,984,1054
5004,982,1056
5005,983,1058
5006,985,1061
5007,988,1060
5008,984,1059
5009,982,1058
5010,978,1062
5011,982,1065
5012,984,1069
5013,986,1072
5014,985,1067
5015,982,1069
5016,978,1073
5017,982,1076
5018,984,1075
5019,985,1074
5020,983,1072
5021,979,1072
5022,978,1072
5023,978,1072
5024,983,1074
5025,984,1073
5026,982,1069
5027,980,1067
5028,980,1068
5029,980,1071
5030,984,1070
5031,986,1069
5032,983,1065
5033,981,1063
5034,980,1063
5035,981,1065
5036,983,1065
5037,984,1067
5038,981,1064
5039,979,1063
5040,975,1061
5041,980,1063
5042,980,1064
5043,979,1059
5044,978,1054
5045,976,1050
5046,975,1051
5047,979,1048
5048,980,1050
5049,981,1049
5050,976,1046
5051,975,1044
5052,977,1045
5053,981,1047
5054,983,1049
5055,984,1052
5056,982,1048
5057,979,1049
5058,978,1050
5059,980,1055
5060,983,1053
5061,981,1053
5062,980,1057
5063,977,1053
5064,977,1057
5065,978,1058
5066,980,1062
5067,981,1063
5068,981,1064
5069,978,1060
5070,979,1064
5071,979,1065
5072,983,1066
5073,981,1065
5074,983,1064
5075,980,1061
5076,981,1063
5077,981,1062
5078,985,1063
5079,984,1062
5080,984,1064
5081,983,1060
5082,983,1060
5083,985,1063
5084,990,1065
5085,992,1064
5086,988,1061
5087,986,1058
5088,986,1059
5089,988,1062
5090,991,1063
5091,990,1061
5092,987,1062
5093,984,1061
5094,981,1062
5095,986,1066
5096,987,1064
5097,986,1060
5098,986,1056
5099,983,1054
5100,980,1051
5101,984,1049
5102,986,1049
5103,989,1047
5104,989,1046
5105,987,1045
5106,987,1048
5107,989,1052
5108,990,1052
5109,992,1055
5110,992,1054
5111,992,1051
5112,996,1051
5113,1007,1051
5114,1022,1050
5115,1041,1045
5116,1059,1038
5117,1078,1035
5118,1097,1029
5119,1120,1027
5120,1142,1028
5121,1165,1026
5122,1184,1022
5123,1195,1013
5124,1198,1005
5125,1194,1003
5126,1191,999
5127,1178,1001
5128,1157,1001
5129,1124,1011
5130,1086,1023
5131,1046,1031
5132,1023,1042
5133,1007,1047
5134,1000,1044
5135,990,1051
5136,980,1055
5137,975,1059
5138,977,1066
5139,976,1064
5140,975,1064
5141,970,1065
5142,966,1065
5143,967,1068
5144,969,1069
5145,967,1070
5146,961,1065
5147,961,1065
5148,960,1068
5149,961,1072
5150,966,1074
5151,961,1072
5152,957,1068
5153,953,1066
5154,950,1065
5155,947,1066
5156,953,1066
5157,952,1063
5158,949,1057
5159,949,1056
5160,949,1053
5161,948,1053
5162,951,1056
5163,951,1053
5164,952,1053
5165,950,1053
5166,949,1055
5167,951,1059
5168,952,1061
5169,951,1060
5170,947,1058
5171,946,1058
5172,946,1059
5173,946,1065
5174,948,1065
5175,946,1065
5176,943,1064
5177,944,1064
5178,945,1065
5179,946,1068
5180,949,1071
5181,951,1070
5182,949,1066
5183,947,1065
5184,946,1066
5185,950,1068
5186,953,1068
5187,954,1066
5188,952,1064
5189,947,1061
5190,949,1061
5191,951,1064
5192,953,1065
5193,954,1067
5194,958,1064
5195,957,1063
5196,955,1062
5197,958,1065
5198,961,1065
5199,963,1067
5200,963,1062
5201,963,1060
5202,963,1062
5203,964,1062
5204,966,1063
5205,966,1063
5206,967,1062
5207,964,1059
5208,964,1061
5209,968,1060
5210,968,1062
5211,968,1061
5212,967,1060
5213,966,1060
5214,964,1058
5215,969,1057
5216,972,1055
5217,973,1050
5218,976,1047
5219,975,1046
5220,974,1045
5221,977,1045
5222,978,1043
5223,982,1044
5224,983,1040
5225,984,1042
5226,982,1049
5227,986,1054
5228,988,1058
5229,985,1058
5230,983,1056
5231,980,1056
5232,982,1058
5233,985,1065
5234,989,1069
5235,984,1068
5236,985,1067
5237,984,1067
5238,985,1070
5239,988,1072
5240,990,1075
5241,990,1074
5242,989,1071
5243,985,1073
5244,985,1072
5245,985,1071
5246,992,1072
5247,991,1073
5248,989,1070
5249,988,1070
5250,986,1070
5251,988,1075
5252,992,1076
5253,994,1079
5254,992,1072
5255,991,1075
5256,991,1075
5257,992,1074
5258,992,1076
5259,991,1075
5260,988,1074
5261,991,1072
5262,990,1073
5263,991,1072
5264,993,1076
5265,990,1076
5266,987,1072
5267,983,1068
5268,982,1068
5269,988,1070
5270,990,1067
5271,991,1064
5272,990,1060
5273,987,1055
5274,985,1053
5275,987,1052
5276,988,1049
5277,991,1049
5278,988,1047
5279,986,1047
5280,984,1049
5281,986,1053
5282,989,1054
5283,990,1057
5284,989,1056
5285,988,1058
5286,986,1058
5287,987,1063
5288,989,1067
5289,991,1067
5290,988,1066
5291,987,1068
5292,987,1069
5293,989,1072
5294,990,1073
5295,990,1073
5296,989,1070
5297,986,1071
5298,984,1070
5299,989,1073
5300,990,1073
5301,988,1071
5302,987,1069
5303,983,1068
5304,985,1069
5305,986,1073
5306,988,1075
5307,991,1074
5308,989,1072
5309,987,1069
5310,985,1071
5311,988,1073
5312,992,1073
5313,992,1072
5314,991,1069
5315,988,1067
5316,987,1066
5317,987,1070
5318,990,1071
5319,990,1068
5320,989,1064
5321,985,1063
5322,984,1062
5323,984,1061
5324,984,1061
5325,986,1059
5326,986,1055
5327,985,1051
5328,979,1051
5329,981,1051
5330,985,1054
5331,986,1049
5332,985,1048
5333,984,1049
5334,984,1052
5335,987,1051
5336,990,1055
5337,990,1056
5338,988,1056
5339,986,1056
5340,985,1059
5341,987,1064
5342,990,1067
5343,990,1066
5344,990,1065
5345,987,1064
5346,987,1067
5347,990,1068
5348,991,1072
5349,993,1072
5350,993,1068
5351,995,1063
5352,1005,1064
5353,1027,1059
5354,1049,1056
5355,1071,1053
5356,1093,1047
5357,1114,1038
5358,1135,1033
5359,1161,1034
5360,1188,1031
5361,1208,1026
5362,1217,1012
5363,1213,1003
5364,1205,1001
5365,1196,1005
5366,1182,1007
5367,1157,1017
5368,1120,1022
5369,1075,1031
5370,1041,1036
5371,1023,1044
5372,1011,1050
5373,1002,1056
5374,988,1057
5375,975,1058
5376,968,1062
5377,969,1065
5378,967,1064
5379,966,1063
5380,963,1058
5381,959,1056
5382,954,1052
5383,954,1054
5384,954,1055
5385,955,1051
5386,954,1049
5387,952,1047
5388,948,1045
5389,950,1049
5390,949,1051
5391,950,1054
5392,947,1053
5393,945,1053
5394,946,1057
5395,947,1062
5396,950,1065
5397,950,1066
5398,947,1065
5399,946,1066
5400,947,1068
5401,946,1069
5402,948,1072
5403,951,1070
5404,946,1069
5405,944,1067
5406,942,1067
5407,945,1069
5408,949,1071
5409,949,1068
5410,947,1067
5411,945,1064
5412,944,1068
5413,947,1070
5414,948,1071
5415,948,1068
5416,949,1071
5417,945,1070
5418,949,1068
5419,950,1072
5420,951,1073
5421,954,1071
5422,952,1069
5423,950,1069
5424,950,1068
5425,952,1068
5426,955,1072
5427,953,1071
5428,951,1067
5429,949,1064
5430,949,1064
5431,951,1067
5432,950,1066
5433,950,1062
5434,949,1064
5435,947,1062
5436,947,1062
5437,946,1062
5438,949,1062
5439,951,1061
5440,950,1055
5441,948,1054
5442,947,1053
5443,949,1054
5444,949,1054
5445,956,1051
5446,955,1047
5447,954,1047
5448,956,1048
5449,958,1050
5450,961,1054
5451,963,1056
5452,964,1055
5453,963,1056
5454,965,1058
5455,969,1060
5456,972,1064
5457,973,1065
5458,972,1063
5459,970,1063
5460,974,1066
5461,976,1066
5462,981,1068
5463,982,1068
5464,982,1066
5465,975,1065
5466,976,1067
5467,978,1067
5468,981,1068
5469,981,1067
5470,981,1070
5471,981,1066
5472,979,1068
5473,979,1071
5474,982,1073
5475,985,1073
5476,984,1068
5477,984,1067
5478,983,1069
5479,983,1069
5480,986,1071
5481,984,1071
5482,983,1067
5483,982,1067
5484,981,1067
5485,981,1071
5486,984,1070
5487,981,1072
5488,977,1067
5489,975,1066
5490,974,1070
5491,978,1068
5492,975,1071
5493,975,1070
5494,973,1068
5495,970,1066
5496,970,1063
5497,973,1064
5498,976,1064
5499,978,1059
5500,977,1055
5501,975,1053
5502,975,1053
5503,976,1058
5504,978,1058
5505,978,1060
5506,980,1057
5507,975,1059
5508,974,1061
5509,976,1064
5510,976,1066
5511,979,1066
5512,978,1064
5513,979,1062
5514,980,1066
5515,980,1067
5516,983,1066
5517,983,1066
5518,983,1063
5519,980,1061
5520,981,1060
5521,982,1062
5522,984,1067
5523,984,1064
5524,982,1061
5525,980,1061
5526,978,1064
5527,983,1064
5528,985,1069
5529,987,1068
5530,985,1068
5531,983,1064
5532,981,1067
5533,981,1067
5534,987,1069
5535,986,1069
5536,984,1064
5537,982,1065
5538,979,1067
5539,981,1069
5540,980,1068
5541,982,1069
5542,978,1065
5543,973,1064
5544,974,1066
5545,974,1067
5546,975,1069
5547,977,1069
5548,975,1067
5549,974,1061
5550,975,1058
5551,974,1056
5552,978,1058
5553,977,1055
5554,978,1055
5555,976,1056
5556,974,1055
5557,978,1059
5558,978,1057
5559,979,1061
5560,975,1059
5561,975,1060
5562,972,1063
5563,976,1070
5564,978,1071
5565,977,1069
5566,978,1068
5567,975,1068
5568,974,1070
5569,977,1071
5570,979,1073
5571,978,1072
5572,977,1070
5573,977,1066
5574,975,1066
5575,976,1070
5576,980,1069
5577,979,1072
5578,980,1070
5579,979,1067
5580,977,1069
5581,974,1075
5582,978,1074
5583,980,1073
5584,980,1071
5585,978,1068
5586,978,1066
5587,982,1066
5588,982,1067
5589,982,1066
5590,982,1062
5591,976,1057
5592,979,1056
5593,978,1059
5594,982,1061
5595,984,1058
5596,977,1055
5597,977,1053
5598,975,1051
5599,978,1051
5600,979,1052
5601,982,1049
5602,975,1047
5603,976,1045
5604,975,1046
5605,978,1050
5606,980,1054
5607,983,1055
5608,980,1052
5609,974,1052
5610,973,1055
5611,975,1057
5612,980,1062
5613,981,1061
5614,982,1064
5615,981,1062
5616,981,1065
5617,983,1070
5618,985,1073
5619,988,1071
5620,990,1065
5621,1003,1062
5622,1021,1057
5623,1044,1057
5624,1071,1051
5625,1093,1044
5626,1113,1033
5627,1132,1032
5628,1159,1032
5629,1183,1029
5630,1200,1018
5631,1205,1006
5632,1200,1000
5633,1187,999
5634,1172,1002
5635,1152,1010
5636,1118,1020
5637,1076,1028
5638,1033,1034
5639,1009,1038
5640,1000,1044
5641,994,1052
5642,984,1055
5643,978,1056
5644,970,1058
5645,965,1054
5646,963,1058
5647,964,1061
5648,961,1061
5649,957,1058
5650,955,1057
5651,952,1056
5652,949,1058
5653,950,1057
5654,951,1058
5655,951,1062
5656,948,1058
5657,946,1058
5658,947,1061
5659,947,1063
5660,947,1065
5661,948,1065
5662,947,1064
5663,944,1063
5664,939,1066
5665,943,1072
5666,942,1073
5667,943,1074
5668,939,1072
5669,940,1072
5670,938,1071
5671,941,1072
5672,942,1074
5673,942,1071
5674,942,1070
5675,939,1068
5676,940,1071
5677,943,1070
5678,943,1072
5679,944,1071
5680,944,1068
5681,940,1069
5682,940,1071
5683,945,1070
5684,946,1072
5685,949,1069
5686,948,1071
5687,947,1069
5688,947,1070
5689,949,1070
5690,954,1071
5691,951,1070
5692,950,1066
5693,949,1064
5694,949,1065
5695,950,1065
5696,950,1066
5697,950,1066
5698,950,1063
5699,945,1058
5700,946,1058
5701,945,1060
5702,949,1061
5703,951,1061
5704,951,1063
5705,949,1059
5706,950,1062
5707,951,1062
5708,951,1066
5709,949,1065
5710,952,1065
5711,955,1062
5712,953,1064
5713,955,1066
5714,957,1066
5715,957,1067
5716,959,1065
5717,958,1066
5718,960,1066
5719,961,1069
5720,963,1070
5721,965,1071
5722,969,1069
5723,969,1069
5724,970,1070
5725,971,1072
5726,974,1074
5727,974,1074
5728,975,1074
5729,973,1071
5730,972,1071
5731,975,1071
5732,975,1070
5733,978,1070
5734,978,1070
5735,976,1067
5736,974,1067
5737,978,1073
5738,981,1072
5739,983,1073
5740,981,1069
5741,978,1067
5742,978,1068
5743,982,1071
5744,981,1071
5745,982,1070
5746,981,1067
5747,977,1066
5748,977,1067
5749,977,1069
5750,979,1071
5751,980,1071
5752,977,1070
5753,973,1069
5754,975,1070
5755,975,1073
5756,975,1073
5757,976,1072
5758,975,1073
5759,972,1068
5760,974,1069
5761,973,1072
5762,974,1073
5763,973,1073
5764,973,1070
5765,969,1069
5766,970,1068
5767,973,1071
5768,974,1075
5769,977,1074
5770,973,1073
5771,973,1073
5772,972,1072
5773,975,1075
5774,977,1076
5775,979,1079
5776,974,1074
5777,971,1075
5778,971,1076
5779,973,1076
5780,976,1075
5781,980,1074
5782,977,1069
5783,974,1067
5784,972,1067
5785,976,1070
5786,978,1069
5787,979,1071
5788,978,1069
5789,977,1065
5790,977,1068
5791,980,1069
5792,982,1069
5793,984,1071
5794,983,1070
5795,981,1066
5796,975,1069
5797,979,1070
5798,978,1074
5799,980,1072
5800,978,1068
5801,976,1069
5802,974,1070
5803,973,1072
5804,974,1073
5805,974,1074
5806,973,1072
5807,971,1069
5808,970,1071
5809,974,1073
5810,976,1074
5811,977,1076
5812,975,1073
5813,972,1074
5814,969,1073
5815,971,1075
5816,980,1074
5817,989,1069
5818,1001,1057
5819,1017,1048
5820,1038,1042
5821,1062,1037
5822,1090,1031
5823,1113,1024
5824,1141,1017
5825,1164,1014
5826,1183,1011
5827,1197,1006
5828,1199,999
5829,1189,997
5830,1177,992
5831,1155,996
5832,1133,1003
5833,1099,1013
5834,1057,1024
5835,1018,1032
5836,996,1035
5837,981,1042
5838,971,1049
5839,963,1057
5840,962,1062
5841,958,1063
5842,954,1063
5843,950,1066
5844,947,1065
5845,950,1070
5846,954,1072
5847,949,1073
5848,946,1072
5849,944,1070
5850,942,1071
5851,941,1074
5852,945,1077
5853,946,1077
5854,945,1075
5855,939,1072
5856,937,1072
5857,932,1072
5858,935,1073
5859,936,1072
5860,932,1068
5861,926,1067
5862,925,1066
5863,927,1068
5864,928,1068
5865,929,1066
5866,926,1065
5867,923,1058
5868,923,1058
5869,927,1058
5870,924,1061
5871,925,1058
5872,924,1058
5873,920,1055
5874,920,1056
5875,920,1057
5876,923,1062
5877,921,1064
5878,921,1064
5879,917,1063
5880,917,1065
5881,918,1068
5882,921,1068
5883,925,1067
5884,922,1065
5885,920,1063
5886,917,1066
5887,919,1066
5888,923,1070
5889,924,1069
5890,922,1067
5891,922,1063
5892,920,1065
5893,921,1068
5894,923,1072
5895,927,1069
5896,927,1068
5897,927,1069
5898,927,1070
5899,928,1073
5900,934,1074
5901,934,1073
5902,935,1070
5903,935,1067
5904,935,1068
5905,938,1069
5906,942,1068
5907,942,1069
5908,942,1065
5909,942,1062
5910,941,1060
5911,946,1063
5912,947,1064
5913,950,1061
5914,951,1059
5915,952,1056
5916,954,1060
5917,957,1059
5918,958,1064
5919,958,1061
5920,956,1058
5921,955,1058
5922,955,1063
5923,956,1063
5924,958,1066
5925,958,1067
5926,956,1067
5927,955,1067
5928,955,1069
5929,959,1073
5930,961,1075
5931,960,1075
5932,959,1075
5933,958,1075
5934,959,1077
5935,963,1078
5936,965,1079
5937,966,1077
5938,964,1074
5939,960,1071
5940,960,1071
5941,961,1070
5942,965,1071
5943,966,1068
5944,963,1067
5945,961,1065
5946,961,1067
5947,962,1071
5948,966,1072
5949,965,1074
5950,967,1072
5951,966,1068
5952,965,1068
5953,967,1072
5954,968,1072
5955,972,1072
5956,969,1069
5957,967,1066
5958,965,1065
5959,965,1067
5960,964,1066
5961,965,1061
5962,965,1057
5963,962,1053
5964,962,1052
5965,966,1054
5966,967,1057
5967,968,1056
5968,966,1055
5969,961,1055
5970,964,1058
5971,967,1059
5972,968,1063
5973,968,1063
5974,965,1062
5975,965,1062
5976,966,1063
5977,966,1070
5978,969,1070
5979,969,1072
5980,968,1068
5981,963,1069
5982,965,1069
5983,969,1071
5984,970,1073
5985,969,1072
5986,965,1072
5987,965,1069
5988,965,1069
5989,968,1068
5990,971,1071
5991,973,1070
5992,971,1065
5993,966,1064
5994,965,1066
5995,971,1067
5996,974,1070
5997,976,1068
5998,972,1064
5999,970,1063
6000,968,1063
6001,971,1066
6002,974,1068
6003,974,1066
6004,973,1063
6005,971,1063
6006,971,1063
6007,974,1062
6008,974,1063
6009,972,1061
6010,970,1055
6011,971,1052
6012,969,1052
6013,970,1051
6014,970,1055
6015,971,1052
6016,971,1052
6017,970,1048
6018,968,1050
6019,969,1054
6020,972,1054
6021,971,1054
6022,971,1052
6023,970,1052
6024,967,1056
6025,971,1059
6026,970,1061
6027,971,1061
6028,968,1060
6029,966,1058
6030,969,1063
6031,970,1063
6032,972,1067
6033,972,1066
6034,971,1064
6035,968,1062
6036,972,1064
6037,974,1067
6038,975,1066
6039,974,1066
6040,970,1064
6041,969,1061
6042,971,1061
6043,974,1064
6044,980,1064
6045,980,1064
6046,979,1064
6047,977,1060
6048,976,1059
6049,980,1064
6050,983,1064
6051,986,1064
6052,980,1065
6053,977,1062
6054,980,1063
6055,981,1062
6056,985,1063
6057,986,1061
6058,984,1053
6059,983,1050
6060,981,1052
6061,979,1052
6062,984,1052
6063,985,1051
6064,985,1049
6065,983,1047
6066,982,1047
6067,984,1048
6068,985,1050
6069,985,1050
6070,982,1048
6071,983,1047
6072,983,1050
6073,988,1051
6074,988,1055
6075,987,1055
6076,987,1050
6077,985,1050
6078,984,1055
6079,987,1057
6080,989,1061
6081,995,1058
6082,1005,1053
6083,1022,1049
6084,1045,1042
6085,1074,1039
6086,1097,1035
6087,1118,1027
6088,1141,1025
6089,1160,1019
6090,1180,1016
6091,1190,1003
6092,1196,997
6093,1189,992
6094,1178,992
6095,1162,993
6096,1138,1008
6097,1105,1022
6098,1070,1032
6099,1036,1039
6100,1015,1043
6101,1003,1045
6102,994,1050
6103,986,1056
6104,984,1062
6105,982,1060
6106,979,1061
6107,976,1063
6108,972,1063
6109,969,1066
6110,971,1064
6111,971,1065
6112,968,1063
6113,963,1061
6114,959,1061
6115,959,1064
6116,962,1063
6117,961,1060
6118,958,1060
6119,959,1057
6120,955,1058
6121,958,1061
6122,956,1059
6123,958,1060
6124,955,1057
6125,953,1053
6126,949,1055
6127,953,1056
6128,954,1058
6129,952,1058
6130,949,1055
6131,946,1053
6132,944,1058
6133,945,1057
6134,951,1061
6135,951,1060
6136,951,1058
6137,949,1058
6138,948,1057
6139,949,1058
6140,951,1060
6141,957,1061
6142,954,1058
6143,951,1056
6144,953,1057
6145,952,1061
6146,957,1062
6147,960,1065
6148,961,1061
6149,957,1061
6150,958,1065
6151,961,1068
6152,964,1068
6153,965,1069
6154,966,1067
6155,962,1065
6156,965,1065
6157,965,1066
6158,965,1070
6159,967,1069
6160,966,1065
6161,966,1062
6162,963,1064
6163,966,1062
6164,968,1062
6165,968,1059
6166,967,1056
6167,965,1056
6168,966,1057
6169,968,1056
6170,969,1057
6171,972,1053
6172,969,1049
6173,972,1047
6174,973,1044
6175,977,1048
6176,980,1049
6177,980,1047
6178,982,1046
6179,979,1042
6180,979,1043
6181,982,1044
6182,986,1048
6183,986,1046
6184,987,1045
6185,986,1044
6186,987,1049
6187,985,1053
6188,991,1057
6189,993,1055
6190,993,1056
6191,992,1054
6192,991,1056
6193,992,1059
6194,992,1060
6195,994,1059
6196,994,1060
6197,991,1056
6198,992,1056
6199,993,1058
6200,994,1062
6201,998,1063
6202,994,1062
6203,997,1060
6204,997,1063
6205,998,1064
6206,1000,1065
6207,1000,1064
6208,996,1062
6209,997,1060
6210,995,1059
6211,998,1060
6212,997,1062
6213,997,1059
6214,996,1055
6215,992,1051
6216,993,1049
6217,993,1049
6218,997,1052
6219,998,1049
6220,994,1050
6221,992,1046
6222,991,1051
6223,994,1052
6224,995,1053
6225,998,1053
6226,994,1051
6227,991,1051
6228,992,1054
6229,992,1054
6230,994,1055
6231,995,1056
6232,991,1057
6233,990,1054
6234,989,1057
6235,988,1059
6236,992,1062
6237,992,1064
6238,992,1064
6239,991,1064
6240,992,1064
6241,994,1068
6242,993,1069
6243,995,1069
6244,992,1066
6245,992,1065
6246,993,1066
6247,993,1061
6248,996,1061
6249,993,1060
6250,990,1057
6251,990,1056
6252,989,1057
6253,990,1058
6254,991,1060
6255,993,1058
6256,994,1054
6257,992,1051
6258,993,1051
6259,997,1053
6260,998,1053
6261,999,1053
6262,996,1052
6263,994,1052
6264,994,1053
6265,996,1052
6266,998,1055
6267,1000,1052
6268,996,1050
6269,993,1046
6270,989,1049
6271,993,1049
6272,995,1050
6273,996,1051
6274,995,1047
6275,992,1044
6276,988,1048
6277,990,1049
6278,992,1052
6279,993,1053
6280,994,1051
6281,993,1050
6282,991,1052
6283,991,1055
6284,990,1060
6285,991,1059
6286,990,1056
6287,987,1056
6288,987,1059
6289,988,1063
6290,991,1066
6291,992,1067
6292,990,1066
6293,987,1064
6294,986,1062
6295,990,1061
6296,990,1060
6297,992,1059
6298,991,1055
6299,988,1051
6300,988,1050
6301,989,1047
6302,988,1046
6303,990,1049
6304,990,1048
6305,988,1045
6306,988,1047
6307,987,1049
6308,993,1052
6309,994,1052
6310,994,1051
6311,993,1049
6312,993,1050
6313,991,1051
6314,995,1054
6315,995,1052
6316,995,1049
6317,992,1049
6318,993,1051
6319,994,1052
6320,995,1055
6321,995,1055
6322,994,1049
6323,992,1048
6324,991,1049
6325,994,1050
6326,994,1053
6327,992,1053
6328,992,1049
6329,991,1048
6330,990,1050
6331,991,1053
6332,993,1054
6333,994,1053
6334,990,1049
6335,991,1048
6336,990,1049
6337,992,1051
6338,993,1052
6339,993,1051
6340,993,1050
6341,991,1050
6342,985,1051
6343,988,1054
6344,992,1059
6345,994,1057
6346,994,1055
6347,993,1053
6348,993,1054
6349,993,1056
6350,992,1057
6351,997,1055
6352,1001,1052
6353,1009,1048
6354,1025,1046
6355,1048,1042
6356,1068,1038
6357,1094,1032
6358,1115,1025
6359,1133,1020
6360,1157,1018
6361,1184,1019
6362,1209,1019
6363,1221,1007
6364,1220,998
6365,1212,991
6366,1201,993
6367,1191,995
6368,1170,1004
6369,1138,1012
6370,1094,1019
6371,1052,1027
6372,1025,1035
6373,1012,1042
6374,1006,1048
6375,1000,1048
6376,990,1046
6377,980,1048
6378,979,1043
6379,978,1046
6380,977,1047
6381,974,1047
6382,970,1045
6383,969,1045
6384,966,1047
6385,969,1049
6386,965,1048
6387,963,1050
6388,962,1049
6389,958,1048
6390,961,1049
6391,961,1054
6392,962,1058
6393,961,1055
6394,958,1056
6395,956,1054
6396,956,1054
6397,957,1055
6398,954,1059
6399,956,1059
6400,952,1057
6401,951,1056
6402,951,1060
6403,954,1062
6404,955,1064
6405,953,1064
6406,956,1063
6407,955,1061
6408,954,1062
6409,955,1063
6410,957,1067
6411,958,1062
6412,957,1063
6413,954,1060
6414,954,1061
6415,957,1063
6416,958,1064
6417,959,1063
6418,958,1062
6419,958,1060
6420,959,1060
6421,961,1061
6422,961,1064
6423,961,1062
6424,961,1061
6425,959,1058
6426,958,1057
6427,959,1060
6428,964,1058
6429,962,1060
6430,961,1057
6431,959,1054
6432,959,1053
6433,959,1052
6434,963,1055
6435,961,1056
6436,962,1052
6437,960,1049
6438,959,1050
6439,963,1055
6440,963,1057
6441,963,1055
6442,963,1054
6443,963,1052
6444,964,1051
6445,963,1056
6446,965,1057
6447,968,1056
6448,967,1054
6449,967,1050
6450,969,1051
6451,972,1055
6452,972,1059
6453,973,1057
6454,974,1058
6455,974,1054
6456,977,1055
6457,981,1056
6458,985,1058
6459,983,1058
6460,985,1056
6461,983,1055
6462,986,1059
6463,985,1060
6464,991,1061
6465,993,1060
6466,990,1057
6467,988,1054
6468,988,1058
6469,990,1060
6470,993,1062
6471,992,1063
6472,994,1061
6473,991,1057
6474,994,1059
6475,992,1062
6476,995,1060
6477,997,1060
6478,995,1059
6479,994,1055
6480,990,1058
6481,991,1061
6482,993,1058
6483,993,1058
6484,990,1058
6485,987,1054
6486,986,1054
6487,987,1053
6488,987,1056
6489,987,1053
6490,986,1051
6491,987,1048
6492,987,1048
6493,989,1047
6494,987,1052
6495,987,1055
6496,987,1053
6497,987,1052
6498,985,1056
6499,988,1060
6500,990,1061
6501,988,1061
6502,987,1058
6503,986,1060
6504,986,1063
6505,988,1064
6506,988,1068
6507,989,1068
6508,987,1065
6509,988,1065
6510,983,1064
6511,985,1066
6512,984,1064
6513,980,1064
6514,970,1058
6515,969,1054
6516,978,1047
6517,987,1045
6518,996,1043
6519,1007,1037
6520,1012,1034
6521,1006,1034
6522,990,1044
6523,965,1057
6524,942,1068
6525,927,1072
6526,916,1079
6527,910,1080
6528,908,1089
6529,905,1090
6530,908,1090
6531,906,1088
6532,908,1087
6533,913,1084
6534,920,1085
6535,925,1093
6536,929,1109
6537,930,1123
6538,924,1130
6539,925,1138
6540,926,1141
6541,930,1149
6542,934,1153
6543,936,1158
6544,937,1157
6545,935,1163
6546,945,1159
6547,958,1141
6548,972,1122
6549,980,1099
6550,980,1079
6551,981,1065
6552,981,1055
6553,984,1055
6554,988,1057
6555,994,1057
6556,988,1055
6557,988,1049
6558,987,1051
6559,993,1053
6560,995,1055
6561,998,1052
6562,999,1050
6563,994,1045
6564,992,1046
6565,998,1046
6566,1002,1044
6567,1002,1042
6568,1001,1039
6569,999,1035
6570,1000,1035
6571,1003,1035
6572,1008,1035
6573,1008,1031
6574,1009,1024
6575,1008,1019
6576,1012,1018
6577,1015,1016
6578,1018,1015
6579,1022,1013
6580,1021,1012
6581,1023,1010
6582,1023,1008
6583,1029,1010
6584,1033,1009
6585,1036,1006
6586,1038,1005
6587,1039,1002
6588,1035,1002
6589,1039,1004
6590,1044,1006
6591,1049,1003
6592,1050,1001
6593,1048,1001
6594,1047,1003
6595,1050,1004
6596,1053,1008
6597,1052,1008
6598,1048,1004
6599,1046,1005
6600,1040,1007
6601,1040,1007
6602,1036,1010
6603,1036,1012
6604,1029,1010
6605,1022,1010
6606,1022,1013
6607,1022,1016
6608,1021,1016
6609,1017,1017
6610,1014,1017
6611,1010,1012
6612,1006,1015
6613,1003,1015
6614,1001,1022
6615,1001,1021
6616,999,1020
6617,999,1020
6618,993,1021
6619,994,1028
6620,995,1031
6621,996,1033
6622,995,1031
6623,992,1033
6624,991,1035
6625,990,1039
6626,993,1041
6627,994,1040
6628,993,1040
6629,990,1039
6630,986,1039
6631,985,1042
6632,985,1045
6633,987,1041
6634,987,1040
6635,986,1042
6636,984,1043
6637,984,1043
6638,986,1047
6639,984,1045
6640,984,1044
6641,983,1045
6642,980,1046
6643,982,1051
6644,982,1051
6645,979,1051
6646,977,1049
6647,976,1047
6648,976,1048
6649,976,1046
6650,977,1049
6651,974,1048
6652,976,1049
6653,974,1049
6654,975,1054
6655,978,1053
6656,981,1055
6657,978,1053
6658,978,1050
6659,976,1047
6660,978,1051
6661,981,1050
6662,981,1052
6663,979,1053
6664,978,1049
6665,976,1046
6666,975,1050
6667,979,1050
6668,981,1052
6669,982,1053
6670,980,1056
6671,980,1053
6672,979,1052
6673,981,1055
6674,984,1055
6675,983,1056
6676,979,1051
6677,979,1051
6678,978,1054
6679,980,1054
6680,982,1058
6681,979,1056
6682,977,1051
6683,977,1049
6684,979,1049
6685,980,1049
6686,978,1052
6687,978,1048
6688,976,1044
6689,975,1042
6690,975,1042
6691,975,1043
6692,975,1044
6693,974,1044
6694,966,1042
6695,971,1041
6696,971,1041
6697,970,1040
6698,974,1044
6699,972,1041
6700,972,1039
6701,970,1038
6702,970,1041
6703,973,1043
6704,974,1047
6705,974,1049
6706,974,1044
6707,973,1045
6708,972,1047
6709,977,1050
6710,977,1051
6711,978,1051
6712,978,1049
6713,975,1047
6714,975,1048
6715,976,1049
6716,978,1053
6717,980,1051
6718,977,1050
6719,980,1050
6720,978,1052
6721,983,1051
6722,985,1055
6723,983,1056
6724,982,1056
6725,981,1051
6726,982,1053
6727,987,1055
6728,991,1055
6729,996,1053
6730,1006,1048
6731,1021,1043
6732,1041,1039
6733,1065,1038
6734,1086,1035
6735,1104,1027
6736,1124,1019
6737,1142,1013
6738,1156,1008
6739,1170,1004
6740,1172,998
6741,1169,993
6742,1158,986
6743,1139,982
6744,1117,986
6745,1090,991
6746,1053,1000
6747,1022,1007
6748,999,1012
6749,989,1018
6750,981,1025
6751,971,1031
6752,968,1036
6753,965,1037
6754,960,1038
6755,959,1042
6756,956,1043
6757,958,1045
6758,956,1049
6759,951,1051
6760,951,1050
6761,951,1047
6762,948,1052
6763,948,1055
6764,952,1057
6765,951,1053
6766,950,1052
6767,948,1050
6768,946,1053
6769,949,1055
6770,951,1055
6771,948,1055
6772,947,1055
6773,946,1055
6774,947,1055
6775,944,1057
6776,950,1059
6777,951,1059
6778,952,1057
6779,947,1057
6780,947,1054
6781,948,1056
6782,949,1058
6783,951,1059
6784,948,1059
6785,946,1057
6786,944,1057
6787,947,1060
6788,949,1066
6789,950,1064
6790,950,1062
6791,946,1061
6792,949,1062
6793,949,1059
6794,951,1058
6795,948,1052
6796,948,1046
6797,949,1042
6798,948,1040
6799,947,1038
6800,950,1040
6801,948,1041
6802,948,1037
6803,945,1035
6804,946,1038
6805,947,1042
6806,947,1041
6807,948,1043
6808,945,1041
6809,942,1041
6810,943,1044
6811,945,1048
6812,947,1049
6813,946,1047
6814,948,1049
6815,945,1048
6816,948,1049
6817,950,1052
6818,952,1053
6819,954,1052
6820,958,1050
6821,956,1047
6822,958,1046
6823,961,1050
6824,965,1051
6825,964,1049
6826,967,1049
6827,968,1049
6828,969,1049
6829,972,1051
6830,976,1053
6831,981,1051
6832,983,1049
6833,983,1050
6834,982,1052
6835,985,1053
6836,985,1056
6837,988,1057
6838,987,1056
6839,987,1058
6840,986,1062
6841,989,1065
6842,991,1071
6843,989,1068
6844,989,1068
6845,984,1065
6846,985,1063
6847,991,1062
6848,994,1059
6849,994,1054
6850,993,1049
6851,991,1045
6852,990,1043
6853,992,1041
6854,995,1042
6855,995,1040
6856,992,1037
6857,987,1037
6858,986,1039
6859,989,1040
6860,990,1042
6861,988,1043
6862,987,1041
6863,984,1041
6864,983,1043
6865,983,1047
6866,987,1050
6867,991,1048
6868,989,1047
6869,984,1045
6870,984,1048
6871,987,1046
6872,991,1050
6873,992,1047
6874,991,1044
6875,987,1043
6876,987,1045
6877,989,1050
6878,993,1050
6879,992,1050
6880,992,1048
6881,992,1046
6882,994,1050
6883,995,1051
6884,998,1052
6885,997,1053
6886,998,1050
6887,994,1048
6888,994,1048
6889,994,1049
6890,997,1051
6891,996,1050
6892,993,1048
6893,991,1045
6894,990,1045
6895,993,1046
6896,996,1047
6897,993,1045
6898,992,1045
6899,991,1042
6900,990,1043
6901,991,1044
6902,991,1047
6903,990,1048
6904,989,1049
6905,987,1052
6906,988,1056
6907,988,1062
6908,991,1066
6909,992,1066
6910,991,1068
6911,987,1065
6912,988,1066
6913,989,1067
6914,998,1066
6915,998,1063
6916,996,1054
6917,994,1049
6918,993,1046
6919,994,1046
6920,997,1046
6921,997,1047
6922,996,1041
6923,994,1037
6924,994,1040
6925,994,1043
6926,996,1042
6927,1000,1044
6928,998,1040
6929,995,1040
6930,997,1042
6931,1001,1044
6932,1002,1046
6933,1003,1047
6934,1002,1045
6935,1000,1042
6936,1006,1042
6937,1023,1039
6938,1044,1036
6939,1068,1030
6940,1088,1018
6941,1107,1011
6942,1124,1004
6943,1147,998
6944,1174,997
6945,1194,990
6946,1207,978
6947,1210,965
6948,1208,959
6949,1200,960
6950,1186,963
6951,1167,966
6952,1136,975
6953,1095,985
6954,1057,998
6955,1031,1010
6956,1018,1018
6957,1008,1020
6958,999,1026
6959,985,1028
6960,977,1033
6961,977,1039
6962,976,1043
6963,975,1045
6964,971,1048
6965,965,1049
6966,962,1049
6967,963,1054
6968,962,1057
6969,962,1054
6970,963,1048
6971,963,1043
6972,961,1040
6973,962,1039
6974,966,1039
6975,965,1038
6976,964,1034
6977,963,1032
6978,961,1032
6979,964,1036
6980,966,1038
6981,964,1040
6982,962,1038
6983,962,1039
6984,963,1040
6985,964,1044
6986,967,1046
6987,966,1044
6988,965,1041
6989,962,1039
6990,963,1043
6991,963,1044
6992,966,1045
6993,964,1045
6994,960,1043
6995,961,1039
6996,960,1040
6997,961,1045
6998,959,1046
6999,962,1044
7000,961,1040
7001,957,1040
7002,957,1040
7003,956,1041
7004,959,1045
7005,961,1042
7006,961,1042
7007,959,1036
7008,959,1038
7009,960,1041
7010,961,1043
7011,961,1042
7012,961,1043
7013,959,1039
7014,960,1042
7015,958,1045
7016,964,1049
7017,963,1048
7018,961,1049
7019,960,1047
7020,962,1046
7021,964,1050
7022,968,1052
7023,968,1051
7024,966,1048
7025,966,1043
7026,967,1039
7027,971,1038
7028,973,1035
7029,976,1033
7030,976,1030
7031,975,1027
7032,977,1028
7033,980,1029
7034,983,1030
7035,985,1029
7036,987,1031
7037,988,1032
7038,989,1036
7039,992,1036
7040,995,1038
7041,997,1040
7042,997,1038
7043,998,1036
7044,1000,1036
7045,1002,1039
7046,1003,1041
7047,1004,1040
7048,1000,1039
7049,999,1036
7050,997,1036
7051,997,1039
7052,1002,1038
7053,1003,1038
7054,996,1036
7055,996,1032
7056,994,1036
7057,993,1038
7058,999,1039
7059,996,1039
7060,997,1038
7061,996,1036
7062,995,1037
7063,996,1042
7064,996,1041
7065,995,1040
7066,995,1041
7067,992,1040
7068,992,1044
7069,994,1046
7070,993,1048
7071,996,1048
7072,994,1049
7073,993,1050
7074,992,1051
7075,994,1052
7076,995,1055
7077,997,1053
7078,996,1050
7079,994,1047
7080,992,1044
7081,1000,1042
7082,1003,1039
7083,1002,1037
7084,1000,1033
7085,997,1030
7086,998,1031
7087,997,1033
7088,1000,1036
7089,1000,1034
7090,999,1035
7091,1000,1034
7092,1000,1037
7093,1001,1038
7094,1004,1039
7095,1006,1042
7096,1007,1042
7097,1004,1040
7098,1001,1039
7099,1006,1042
7100,1009,1044
7101,1007,1043
7102,1008,1041
7103,1006,1040
7104,1003,1039
7105,1004,1041
7106,1008,1044
7107,1007,1042
7108,1005,1039
7109,1006,1038
7110,1004,1037
7111,1002,1037
7112,1005,1040
7113,1005,1037
7114,1003,1037
7115,1000,1035
7116,999,1037
7117,1001,1038
7118,1004,1040
7119,1003,1041
7120,1002,1037
7121,999,1038
7122,997,1038
7123,999,1041
7124,1000,1041
7125,1000,1043
7126,999,1043
7127,993,1042
7128,995,1044
7129,997,1048
7130,998,1050
7131,1001,1043
7132,999,1040
7133,998,1033
7134,997,1031
7135,996,1029
7136,1002,1027
7137,1001,1026
7138,1001,1025
7139,1000,1022
7140,1003,1021
7141,1000,1025
7142,1003,1029
7143,1003,1030
7144,1006,1031
7145,1002,1028
7146,1002,1031
7147,1007,1032
7148,1006,1037
7149,1008,1037
7150,1008,1035
7151,1002,1033
7152,1003,1035
7153,1007,1036
7154,1009,1038
7155,1008,1036
7156,1006,1034
7157,1006,1035
7158,1006,1033
7159,1006,1036
7160,1009,1038
7161,1008,1038
7162,1006,1034
7163,1002,1031
7164,1000,1034
7165,1004,1036
7166,1006,1037
7167,1006,1036
7168,1007,1033
7169,1004,1033
7170,1001,1030
7171,1002,1035
7172,1002,1038
7173,1008,1039
7174,1008,1038
7175,1010,1035
7176,1019,1029
7177,1035,1030
7178,1060,1026
7179,1081,1023
7180,1099,1016
7181,1117,1009
7182,1137,1004
7183,1161,1004
7184,1183,1006
7185,1201,999
7186,1207,990
7187,1206,980
7188,1198,978
7189,1190,978
7190,1178,979
7191,1158,980
7192,1128,987
7193,1093,990
7194,1054,994
7195,1033,1003
7196,1021,1007
7197,1014,1009
7198,1003,1014
7199,992,1018
7200,989,1023
7201,989,1028
7202,992,1033
7203,994,1032
7204,992,1033
7205,987,1032
7206,987,1033
7207,986,1037
7208,987,1040
7209,987,1042
7210,987,1038
7211,984,1034
7212,981,1036
7213,983,1039
7214,985,1041
7215,982,1041
7216,980,1037
7217,978,1034
7218,975,1033
7219,977,1034
7220,977,1039
7221,977,1035
7222,972,1035
7223,970,1034
7224,970,1035
7225,971,1037
7226,974,1040
7227,974,1041
7228,971,1038
7229,967,1035
7230,968,1036
7231,966,1041
7232,969,1043
7233,970,1043
7234,968,1041
7235,966,1040
7236,965,1043
7237,963,1045
7238,963,1048
7239,962,1048
7240,962,1045
7241,959,1043
7242,960,1046
7243,961,1049
7244,964,1049
7245,963,1050
7246,962,1048
7247,960,1042
7248,959,1043
7249,959,1044
7250,964,1045
7251,963,1040
7252,961,1036
7253,960,1032
7254,959,1029
7255,962,1031
7256,965,1031
7257,968,1028
7258,967,1028
7259,967,1026
7260,969,1029
7261,971,1031
7262,976,1033
7263,976,1036
7264,977,1034
7265,978,1033
7266,976,1032
7267,978,1036
7268,981,1039
7269,981,1037
7270,982,1034
7271,982,1036
7272,985,1037
7273,987,1037
7274,989,1040
7275,990,1036
7276,990,1037
7277,991,1035
7278,993,1036
7279,997,1037
7280,1001,1041
7281,1000,1041
7282,998,1039
7283,1000,1037
7284,1000,1039
7285,1002,1040
7286,1003,1043
7287,1004,1043
7288,1005,1043
7289,1001,1040
7290,998,1038
7291,999,1042
7292,1002,1042
7293,1000,1042
7294,1000,1039
7295,997,1036
7296,997,1035
7297,997,1036
7298,999,1037
7299,999,1034
7300,998,1032
7301,995,1031
7302,995,1032
7303,997,1032
7304,1000,1034
7305,1000,1033
7306,997,1032
7307,996,1030
7308,998,1028
7309,1001,1031
7310,1003,1032
7311,1005,1035
7312,1002,1033
7313,1001,1032
7314,1000,1031
7315,1003,1034
7316,1008,1039
7317,1006,1040
7318,1007,1039
7319,1005,1039
7320,1004,1039
7321,1008,1041
7322,1008,1041
7323,1010,1042
7324,1010,1040
7325,1010,1040
7326,1008,1040
7327,1008,1042
7328,1010,1042
7329,1010,1043
7330,1007,1039
7331,1003,1037
7332,1003,1040
7333,1005,1041
7334,1008,1041
7335,1007,1041
7336,1006,1040
7337,1001,1037
7338,1003,1038
7339,1004,1042
7340,1004,1043
7341,1005,1044
7342,1004,1042
7343,998,1039
7344,999,1040
7345,1000,1042
7346,1001,1044
7347,1000,1041
7348,999,1040
7349,998,1038
7350,995,1038
7351,995,1039
7352,999,1040
7353,998,1039
7354,999,1037
7355,999,1038
7356,998,1037
7357,1000,1040
7358,1005,1040
7359,1002,1038
7360,1000,1037
7361,1002,1034
7362,1000,1036
7363,1000,1038
7364,1000,1038
7365,1002,1037
7366,1003,1038
7367,1001,1037
7368,1002,1036
7369,1006,1039
7370,1009,1042
7371,1008,1041
7372,1008,1040
7373,1007,1037
7374,1001,1037
7375,1007,1040
7376,1007,1042
7377,1007,1041
7378,1004,1038
7379,999,1034
7380,1002,1036
7381,1001,1036
7382,1004,1041
7383,1005,1037
7384,1003,1033
7385,1001,1030
7386,998,1031
7387,996,1033
7388,999,1034
7389,1000,1035
7390,997,1029
7391,997,1028
7392,993,1028
7393,996,1028
7394,997,1032
7395,999,1029
7396,999,1027
7397,1000,1021
7398,999,1022
7399,998,1023
7400,997,1027
7401,995,1027
7402,997,1026
7403,1002,1022
7404,1013,1020
7405,1035,1024
7406,1060,1021
7407,1087,1017
7408,1111,1011
7409,1133,1006
7410,1158,1004
7411,1185,1003
7412,1209,1007
7413,1226,998
7414,1234,990
7415,1224,980
7416,1211,977
7417,1196,981
7418,1175,988
7419,1139,998
7420,1090,1006
7421,1050,1014
7422,1028,1024
7423,1020,1028
7424,1012,1037
7425,1006,1039
7426,994,1040
7427,990,1040
7428,986,1043
7429,986,1045
7430,986,1049
7431,984,1049
7432,980,1047
7433,977,1044
7434,974,1043
7435,973,1045
7436,974,1048
7437,971,1044
7438,968,1044
7439,963,1040
7440,962,1042
7441,960,1041
7442,962,1042
7443,962,1041
7444,961,1038
7445,957,1034
7446,958,1032
7447,958,1032
7448,959,1033
7449,957,1031
7450,957,1025
7451,952,1021
7452,951,1020
7453,954,1021
7454,958,1025
7455,953,1024
7456,950,1025
7457,951,1024
7458,949,1028
7459,953,1032
7460,956,1034
7461,959,1037
7462,957,1036
7463,954,1035
7464,954,1036
7465,956,1037
7466,962,1040
7467,962,1041
7468,962,1039
7469,960,1037
7470,960,1038
7471,958,1039
7472,962,1041
7473,961,1039
7474,959,1040
7475,960,1036
7476,959,1038
7477,962,1040
7478,967,1044
7479,967,1044
7480,966,1041
7481,966,1037
7482,965,1039
7483,969,1042
7484,969,1043
7485,972,1042
7486,970,1040
7487,966,1038
7488,966,1038
7489,969,1041
7490,972,1040
7491,975,1039
7492,973,1037
7493,972,1034
7494,969,1032
7495,972,1036
7496,976,1035
7497,978,1036
7498,980,1033
7499,978,1030
7500,978,1031
7501,982,1035
7502,984,1040
7503,988,1039
7504,990,1037
7505,988,1034
7506,990,1032
7507,992,1030
7508,995,1031
7509,995,1030
7510,995,1027
7511,991,1023
7512,990,1028
7513,994,1029
7514,996,1034
7515,997,1037
7516,997,1036
7517,995,1036
7518,995,1038
7519,996,1040
7520,1001,1043
7521,1003,1041
7522,1000,1041
7523,997,1038
7524,995,1039
7525,994,1042
7526,1000,1043
7527,1000,1040
7528,1000,1037
7529,999,1037
7530,998,1038
7531,1000,1041
7532,1001,1042
7533,1003,1044
7534,1002,1039
7535,1003,1038
7536,1002,1040
7537,1004,1043
7538,1005,1046
7539,1004,1047
7540,1005,1043
7541,1002,1039
7542,1002,1041
7543,1001,1043
7544,1004,1044
7545,1002,1042
7546,1001,1038
7547,996,1036
7548,993,1038
7549,998,1039
7550,999,1043
7551,995,1041
7552,998,1043
7553,993,1038
7554,992,1038
7555,994,1037
7556,995,1037
7557,996,1031
7558,995,1028
7559,994,1022
7560,993,1021
7561,995,1023
7562,996,1022
7563,998,1018
7564,993,1019
7565,992,1018
7566,992,1023
7567,995,1028
7568,994,1031
7569,997,1033
7570,997,1035
7571,995,1031
7572,995,1035
7573,999,1034
7574,1000,1037
7575,998,1036
7576,996,1034
7577,995,1034
7578,995,1034
7579,999,1036
7580,1001,1038
7581,998,1035
7582,995,1035
7583,996,1035
7584,994,1035
7585,998,1037
7586,999,1039
7587,1002,1041
7588,1002,1037
7589,1000,1036
7590,1000,1036
7591,1003,1039
7592,1004,1041
7593,1003,1039
7594,1002,1038
7595,1002,1035
7596,1000,1035
7597,998,1035
7598,1002,1038
7599,1005,1035
7600,1003,1034
7601,1001,1030
7602,1000,1031
7603,999,1032
7604,1000,1033
7605,1008,1028
7606,1012,1024
7607,1027,1019
7608,1046,1013
7609,1072,1008
7610,1095,1005
7611,1116,999
7612,1137,990
7613,1156,987
7614,1176,986
7615,1197,986
7616,1214,981
7617,1221,973
7618,1217,966
7619,1208,963
7620,1194,959
7621,1177,963
7622,1157,972
7623,1120,976
7624,1079,982
7625,1044,987
7626,1021,997
7627,1011,1004
7628,1005,1012
7629,997,1017
7630,989,1020
7631,984,1020
7632,980,1023
7633,980,1027
7634,977,1029
7635,981,1028
7636,976,1026
7637,972,1023
7638,969,1025
7639,969,1027
7640,973,1032
7641,973,1031
7642,969,1030
7643,969,1030
7644,963,1029
7645,965,1032
7646,969,1033
7647,972,1033
7648,970,1029
7649,965,1028
7650,963,1028
7651,964,1028
7652,968,1032
7653,970,1031
7654,967,1031
7655,964,1027
7656,962,1028
7657,963,1027
7658,963,1027
7659,963,1025
7660,959,1025
7661,956,1022
7662,955,1024
7663,958,1024
7664,956,1026
7665,957,1024
7666,957,1018
7667,953,1017
7668,951,1014
7669,955,1014
7670,956,1013
7671,958,1011
7672,953,1007
7673,952,1003
7674,950,1001
7675,948,1002
7676,951,1003
7677,957,1003
7678,952,999
7679,948,999
7680,948,1001
7681,953,1003
7682,959,1006
7683,960,1005
7684,958,1003
7685,960,1002
7686,960,1003
7687,964,1010
7688,967,1011
7689,968,1009
7690,967,1008
7691,965,1003
7692,965,1005
7693,969,1007
7694,973,1008
7695,975,1012
7696,975,1010
7697,974,1007
7698,979,1007
7699,985,1011
7700,990,1014
7701,991,1012
7702,991,1008
7703,988,1008
7704,992,1006
7705,996,1008
7706,995,1008
7707,997,1007
7708,995,1005
7709,994,1003
7710,995,1004
7711,996,1005
7712,997,1005
7713,998,1000
7714,993,997
7715,990,993
7716,991,993
7717,995,996
7718,997,994
7719,994,990
7720,991,987
7721,990,985
7722,987,984
7723,991,986
7724,995,984
7725,994,984
7726,993,981
7727,986,981
7728,988,983
7729,989,986
7730,992,990
7731,995,994
7732,994,992
7733,992,990
7734,989,992
7735,990,995
7736,995,1001
7737,999,1003
7738,997,1000
7739,995,999
7740,996,1000
7741,997,1001
7742,998,1000
7743,1000,1001
7744,997,998
7745,996,997
7746,998,994
7747,999,998
7748,1001,1004
7749,1006,1003
7750,1004,1003
7751,999,999
7752,1001,1001
7753,1003,1002
7754,1004,1004
7755,1003,1002
7756,1003,1001
7757,1002,996
7758,1001,998
7759,1002,1000
7760,1002,998
7761,999,999
7762,996,998
7763,995,994
7764,993,992
7765,994,990
7766,995,991
7767,993,990
7768,990,983
7769,989,982
7770,986,980
7771,989,981
7772,992,981
7773,994,978
7774,992,975
7775,986,974
7776,984,974
7777,985,976
7778,985,975
7779,989,975
7780,989,973
7781,984,974
7782,985,979
7783,988,985
7784,991,987
7785,992,990
7786,991,987
7787,991,986
7788,992,987
7789,995,988
7790,995,992
7791,995,992
7792,995,992
7793,994,986
7794,992,984
7795,992,988
7796,998,990
7797,1000,989
7798,999,988
7799,996,988
7800,995,987
7801,996,994
7802,999,994
7803,1001,991
7804,999,988
7805,993,985
7806,992,986
7807,995,987
7808,994,988
7809,997,987
7810,997,982
7811,996,981
7812,993,983
7813,994,982
7814,991,980
7815,995,979
7816,992,975
7817,993,973
7818,991,970
7819,990,970
7820,988,966
7821,990,965
7822,991,963
7823,989,956
7824,989,957
7825,991,957
7826,991,957
7827,991,958
7828,990,954
7829,989,955
7830,992,953
7831,1002,951
7832,1014,949
7833,1036,944
7834,1051,941
7835,1071,940
7836,1093,942
7837,1116,940
7838,1137,940
7839,1159,937
7840,1178,933
7841,1192,926
7842,1198,922
7843,1197,919
7844,1191,922
7845,1173,923
7846,1157,922
7847,1130,925
7848,1097,929
7849,1062,938
7850,1035,949
7851,1018,953
7852,1007,957
7853,998,957
7854,989,961
7855,982,964
7856,981,966
7857,983,970
7858,979,971
7859,975,972
7860,972,971
7861,975,973
7862,975,976
7863,975,977
7864,970,973
7865,966,968
7866,963,969
7867,961,970
7868,964,970
7869,962,970
7870,962,964
7871,958,962
7872,955,960
7873,955,962
7874,955,961
7875,955,958
7876,952,951
7877,951,950
7878,946,949
7879,950,956
7880,951,961
7881,948,961
7882,952,960
7883,951,955
7884,948,959
7885,950,960
7886,951,963
7887,951,966
7888,950,968
7889,947,967
7890,944,971
7891,947,974
7892,950,978
7893,949,979
7894,948,977
7895,948,975
7896,948,979
7897,951,979
7898,953,983
7899,954,985
7900,953,983
7901,949,981
7902,948,981
7903,951,981
7904,956,984
7905,956,985
7906,955,981
7907,952,975
7908,949,974
7909,954,975
7910,959,978
7911,957,977
7912,958,976
7913,957,975
7914,958,975
7915,960,976
7916,961,976
7917,963,975
7918,963,973
7919,962,966
7920,962,966
7921,962,963
7922,965,964
7923,967,961
7924,965,961
7925,965,956
7926,961,959
7927,966,962
7928,971,962
7929,972,962
7930,972,955
7931,968,954
7932,969,954
7933,972,962
7934,979,964
7935,980,965
7936,978,961
7937,977,960
7938,978,962
7939,979,963
7940,984,969
7941,988,974
7942,987,976
7943,983,973
7944,981,973
7945,982,976
7946,981,982
7947,987,986
7948,986,983
7949,984,984
7950,983,987
7951,983,989
7952,985,994
7953,986,992
7954,987,990
7955,983,986
7956,981,986
7957,984,990
7958,988,989
7959,989,988
7960,986,984
7961,981,976
7962,982,975
7963,986,975
7964,989,979
7965,991,979
7966,991,978
7967,986,971
7968,987,972
7969,989,975
7970,992,975
7971,996,974
7972,994,970
7973,991,970
7974,990,966
7975,990,967
7976,993,971
7977,992,973
7978,992,971
7979,990,968
7980,989,968
7981,989,970
7982,988,974
7983,992,971
7984,991,977
7985,986,972
7986,987,973
7987,986,977
7988,988,978
7989,986,983
7990,987,979
7991,987,978
7992,985,978
7993,988,983
7994,986,986
7995,991,984
7996,986,979
7997,985,978
7998,985,978
7999,986,979
8000,988,982
8001,991,980
8002,991,978
8003,986,977
8004,986,978
8005,986,981
8006,991,983
8007,993,979
8008,992,977
8009,988,973
8010,987,973
8011,989,973
8012,990,975
8013,990,974
8014,987,972
8015,985,970
8016,986,971
8017,986,975
8018,992,978
8019,993,981
8020,991,977
8021,989,974
8022,987,972
8023,989,977
8024,990,980
8025,992,983
8026,993,979
8027,989,978
8028,987,977
8029,990,981
8030,991,983
8031,991,981
8032,986,983
8033,985,979
8034,984,981
8035,987,982
8036,985,983
8037,986,980
8038,982,981
8039,982,977
8040,983,977
8041,984,977
8042,988,982
8043,986,978
8044,985,976
8045,987,974
8046,985,973
8047,985,975
8048,989,977
8049,986,975
8050,984,974
8051,979,973
8052,978,971
8053,981,977
8054,983,982
8055,984,982
8056,984,980
8057,982,979
8058,980,979
8059,983,982
8060,987,983
8061,988,983
8062,985,980
8063,982,977
8064,983,979
8065,984,982
8066,985,985
8067,989,986
8068,990,988
8069,988,983
8070,988,986
8071,991,990
8072,990,991
8073,992,990
8074,991,987
8075,991,984
8076,990,985
8077,992,985
8078,991,989
8079,995,989
8080,992,988
8081,992,984
8082,992,983
8083,992,982
8084,991,985
8085,992,985
8086,992,983
8087,989,979
8088,986,978
8089,988,979
8090,989,981
8091,990,983
8092,988,979
8093,985,978
8094,985,983
8095,988,981
8096,988,984
8097,991,982
8098,988,979
8099,986,977
8100,988,975
8101,989,975
8102,995,978
8103,1001,979
8104,1005,978
8105,1010,971
8106,1011,970
8107,1012,973
8108,999,982
8109,971,986
8110,936,989
8111,914,991
8112,908,991
8113,915,996
8114,924,999
8115,928,999
8116,936,997
8117,937,999
8118,942,1002
8119,948,1002
8120,955,998
8121,963,989
8122,974,984
8123,983,978
8124,987,975
8125,993,978
8126,993,984
8127,990,986
8128,990,987
8129,987,986
8130,987,985
8131,989,989
8132,990,991
8133,992,991
8134,986,990
8135,986,989
8136,985,989
8137,988,990
8138,989,992
8139,987,992
8140,987,990
8141,983,987
8142,984,986
8143,988,988
8144,990,989
8145,991,992
8146,989,988
8147,988,987
8148,987,987
8149,990,993
8150,992,998
8151,994,996
8152,990,996
8153,987,993
8154,987,998
8155,990,1001
8156,995,1002
8157,994,1003
8158,994,1001
8159,994,999
8160,996,1004
8161,998,1006
8162,1002,1005
8163,1003,1002
8164,1003,1001
8165,1004,995
8166,1005,998
8167,1005,998
8168,1008,998
8169,1014,996
8170,1015,995
8171,1017,996
8172,1019,997
8173,1024,999
8174,1028,1002
8175,1031,1002
8176,1032,1000
8177,1030,996
8178,1035,995
8179,1039,999
8180,1044,1001
8181,1046,1000
8182,1043,996
8183,1041,995
8184,1042,996
8185,1047,996
8186,1049,996
8187,1048,995
8188,1049,991
8189,1047,988
8190,1046,986
8191,1046,988
8192,1046,989
8193,1051,988
8194,1047,986
8195,1044,983
8196,1041,985
8197,1040,988
8198,1040,991
8199,1037,990
8200,1034,990
8201,1030,989
8202,1027,989
8203,1024,991
8204,1024,995
8205,1019,995
8206,1017,996
8207,1012,994
8208,1007,998
8209,1006,1002
8210,1009,1005
8211,1008,1009
8212,1003,1007
8213,999,1008
8214,1000,1013
8215,1001,1013
8216,1002,1017
8217,1004,1018
8218,1000,1015
8219,996,1018
8220,996,1016
8221,999,1018
8222,1002,1020
8223,1002,1019
8224,1000,1016
8225,999,1016
8226,996,1019
8227,999,1020
8228,1004,1023
8229,1003,1024
8230,1005,1022
8231,1005,1019
8232,1004,1019
8233,1006,1021
8234,1008,1024
8235,1008,1020
8236,1008,1019
8237,1006,1017
8238,1007,1013
8239,1007,1015
8240,1010,1015
8241,1007,1016
8242,1004,1012
8243,1006,1011
8244,1003,1011
8245,1005,1013
8246,1009,1015
8247,1007,1015
8248,1006,1010
8249,1002,1008
8250,1002,1008
8251,1005,1016
8252,1006,1020
8253,1007,1023
8254,1002,1017
8255,998,1017
8256,998,1019
8257,997,1020
8258,1002,1021
8259,1002,1025
8260,998,1022
8261,994,1023
8262,991,1024
8263,994,1027
8264,997,1032
8265,998,1032
8266,997,1029
8267,995,1028
8268,992,1029
8269,994,1030
8270,997,1032
8271,1000,1035
8272,999,1033
8273,995,1029
8274,994,1027
8275,995,1032
8276,995,1035
8277,996,1037
8278,999,1034
8279,994,1031
8280,995,1031
8281,997,1032
8282,999,1032
8283,997,1029
8284,997,1029
8285,995,1023
8286,993,1025
8287,997,1027
8288,994,1030
8289,997,1028
8290,994,1027
8291,992,1024
8292,991,1026
8293,992,1026
8294,993,1029
8295,992,1027
8296,990,1029
8297,985,1025
8298,987,1024
8299,987,1026
8300,988,1028
8301,988,1028
8302,990,1027
8303,985,1026
8304,985,1025
8305,987,1027
8306,990,1032
8307,989,1032
8308,983,1032
8309,986,1032
8310,984,1034
8311,984,1038
8312,990,1043
8313,986,1047
8314,987,1049
8315,986,1043
8316,983,1046
8317,985,1050
8318,987,1051
8319,988,1053
8320,987,1052
8321,983,1047
8322,983,1047
8323,984,1047
8324,986,1049
8325,987,1047
8326,989,1044
8327,987,1042
8328,985,1041
8329,988,1046
8330,991,1047
8331,994,1045
8332,991,1045
8333,990,1041
8334,988,1040
8335,988,1040
8336,992,1044
8337,994,1044
8338,990,1042
8339,991,1038
8340,989,1039
8341,991,1041
8342,991,1041
8343,993,1040
8344,990,1038
8345,988,1036
8346,986,1036
8347,988,1038
8348,988,1041
8349,988,1040
8350,987,1037
8351,986,1036
8352,983,1037
8353,987,1037
8354,989,1039
8355,991,1042
8356,989,1042
8357,986,1040
8358,985,1042
8359,987,1047
8360,989,1052
8361,990,1051
8362,987,1049
8363,982,1048
8364,984,1050
8365,983,1053
8366,990,1057
8367,991,1056
8368,989,1053
8369,988,1051
8370,986,1049
8371,988,1051
8372,991,1051
8373,992,1049
8374,993,1048
8375,989,1043
8376,990,1044
8377,989,1045
8378,993,1049
8379,996,1048
8380,998,1048
8381,996,1047
8382,997,1048
8383,998,1049
8384,999,1051
8385,1002,1050
8386,1004,1050
8387,999,1051
8388,997,1049
8389,1005,1049
8390,1022,1048
8391,1040,1043
8392,1064,1035
8393,1087,1029
8394,1108,1026
8395,1132,1021
8396,1156,1023
8397,1176,1018
8398,1197,1013
8399,1209,998
8400,1206,990
8401,1201,987
8402,1188,993
8403,1168,992
8404,1137,997
8405,1093,1005
8406,1052,1015
8407,1024,1023
8408,1010,1033
8409,1001,1034
8410,994,1038
8411,983,1041
8412,976,1045
8413,977,1049
8414,977,1056
8415,976,1058
8416,972,1058
8417,969,1057
8418,962,1058
8419,965,1063
8420,967,1064
8421,970,1063
8422,967,1062
8423,966,1058
8424,963,1061
8425,966,1062
8426,968,1067
8427,970,1068
8428,968,1069
8429,964,1070
8430,961,1077
8431,963,1079
8432,967,1084
8433,970,1083
8434,968,1080
8435,965,1078
8436,962,1081
8437,961,1080
8438,964,1080
8439,965,1080
8440,967,1073
8441,963,1065
8442,961,1064
8443,960,1063
8444,960,1063
8445,959,1062
8446,958,1057
8447,959,1056
8448,959,1058
8449,958,1059
8450,959,1061
8451,961,1062
8452,959,1062
8453,956,1060
8454,956,1061
8455,959,1063
8456,960,1068
8457,960,1069
8458,958,1066
8459,955,1064
8460,954,1066
8461,957,1070
8462,957,1075
8463,959,1074
8464,957,1073
8465,956,1071
8466,957,1074
8467,961,1078
8468,963,1080
8469,963,1081
8470,963,1079
8471,960,1078
8472,962,1078
8473,964,1080
8474,966,1080
8475,971,1082
8476,972,1077
8477,972,1076
8478,969,1081
8479,973,1079
8480,979,1082
8481,982,1083
8482,985,1080
8483,987,1077
8484,986,1075
8485,991,1076
8486,993,1077
8487,997,1073
8488,997,1069
8489,997,1067
8490,993,1068
8491,994,1068
8492,996,1071
8493,998,1070
8494,999,1068
8495,995,1064
8496,992,1066
8497,996,1067
8498,998,1069
8499,998,1067
8500,995,1066
8501,996,1065
8502,994,1066
8503,996,1071
8504,997,1074
8505,997,1075
8506,995,1073
8507,992,1072
8508,990,1075
8509,993,1076
8510,992,1079
8511,991,1079
8512,992,1078
8513,988,1077
8514,986,1079
8515,986,1084
8516,988,1087
8517,989,1089
8518,991,1085
8519,988,1086
8520,987,1087
8521,988,1089
8522,991,1090
8523,992,1088
8524,991,1084
8525,991,1082
8526,990,1079
8527,992,1081
8528,993,1081
8529,996,1079
8530,996,1078
8531,996,1075
8532,991,1076
8533,995,1079
8534,997,1082
8535,1000,1081
8536,1003,1080
8537,1001,1079
8538,998,1078
8539,1000,1080
8540,998,1083
8541,1002,1081
8542,1000,1079
8543,998,1077
8544,997,1078
8545,998,1079
8546,1000,1081
8547,997,1080
