'sample #','MLII','V1'
0,924,1034
1,924,1034
2,924,1034
3,924,1034
4,924,1034
5,924,1034
6,924,1034
7,924,1034
8,932,1034
9,944,1032
10,956,1028
11,966,1023
12,969,1014
13,968,1005
14,968,1004
15,967,1004
16,971,1008
17,976,1007
18,981,1003
19,982,995
20,983,987
21,985,989
22,987,993
23,989,994
24,990,993
25,987,988
26,987,989
27,990,986
28,995,984
29,1000,982
30,1005,978
31,1004,972
32,999,968
33,1001,966
34,1002,970
35,1010,972
36,1013,965
37,1014,960
38,1012,948
39,1014,944
40,1020,941
41,1024,941
42,1027,936
43,1029,930
44,1029,927
45,1034,923
46,1042,921
47,1046,919
48,1052,912
49,1053,909
50,1054,906
51,1052,903
52,1052,904
53,1060,910
54,1066,905
55,1069,901
56,1071,902
57,1073,903
58,1074,910
59,1079,915
60,1079,920
61,1076,918
62,1070,927
63,1070,932
64,1065,940
65,1068,947
66,1067,952
67,1059,956
68,1052,960
69,1046,969
70,1042,976
71,1040,987
72,1036,992
73,1031,993
74,1024,997
75,1018,1003
76,1016,1007
77,1012,1017
78,1008,1020
79,1001,1022
80,994,1026
81,988,1028
82,986,1036
83,986,1041
84,986,1040
85,980,1037
86,976,1034
87,971,1034
88,968,1043
89,971,1050
90,971,1047
91,970,1043
92,966,1041
93,964,1041
94,962,1042
95,965,1044
96,965,1045
97,963,1046
98,961,1045
99,959,1048
100,963,1051
101,968,1049
102,968,1045
103,968,1043
104,964,1040
105,963,1042
106,962,1046
107,966,1051
108,969,1051
109,968,1047
110,967,1044
111,971,1042
112,972,1046
113,977,1046
114,975,1043
115,972,1042
116,970,1042
117,966,1047
118,970,1047
119,977,1047
120,981,1043
121,980,1040
122,976,1038
123,974,1041
124,974,1043
125,975,1048
126,978,1048
127,978,1043
128,978,1041
129,977,1040
130,980,1042
131,981,1042
132,981,1040
133,979,1040
134,975,1039
135,974,1040
136,976,1043
137,980,1045
138,981,1042
139,979,1038
140,976,1035
141,973,1038
142,977,1042
143,978,1047
144,979,1045
145,976,1043
146,976,1040
147,975,1038
148,978,1039
149,979,1042
150,981,1045
151,979,1048
152,975,1046
153,979,1050
154,986,1051
155,994,1057
156,999,1054
157,1002,1046
158,1000,1044
159,1002,1039
160,1007,1045
161,1011,1043
162,1018,1042
163,1023,1034
164,1026,1031
165,1026,1030
166,1029,1034
167,1032,1038
168,1031,1040
169,1029,1039
170,1028,1037
171,1027,1037
172,1028,1038
173,1026,1039
174,1019,1036
175,1009,1031
176,998,1032
177,991,1033
178,988,1039
179,989,1040
180,986,1038
181,982,1035
182,979,1029
183,976,1027
184,978,1032
185,978,1037
186,974,1038
187,971,1039
188,968,1036
189,969,1035
190,970,1036
191,972,1036
192,975,1037
193,970,1032
194,967,1032
195,966,1035
196,966,1043
197,970,1045
198,974,1041
199,974,1037
200,973,1033
201,973,1035
202,975,1042
203,980,1050
204,983,1053
205,987,1042
206,991,1027
207,1005,1022
208,1027,1018
209,1065,1016
210,1109,1018
211,1155,1029
212,1207,1058
213,1251,1108
214,1283,1152
215,1287,1185
216,1250,1203
217,1172,1202
218,1079,1193
219,991,1191
220,930,1194
221,903,1210
222,902,1226
223,906,1240
224,909,1251
225,904,1263
226,901,1273
227,895,1282
228,886,1288
229,879,1300
230,873,1311
231,873,1325
232,878,1334
233,881,1335
234,883,1325
235,879,1301
236,874,1270
237,875,1236
238,881,1205
239,894,1171
240,904,1138
241,914,1105
242,923,1075
243,934,1057
244,951,1046
245,968,1039
246,977,1030
247,985,1022
248,987,1019
249,990,1018
250,993,1016
251,996,1018
252,999,1012
253,1003,1006
254,1003,998
255,1005,997
256,1007,997
257,1010,999
258,1011,999
259,1009,997
260,1010,990
261,1010,989
262,1016,986
263,1020,987
264,1019,982
265,1019,977
266,1015,974
267,1017,973
268,1022,979
269,1027,978
270,1030,975
271,1028,968
272,1030,962
273,1030,962
274,1034,965
275,1037,963
276,1038,961
277,1039,956
278,1041,946
279,1042,941
280,1050,940
281,1056,934
282,1061,930
283,1062,922
284,1061,919
285,1061,918
286,1068,919
287,1074,917
288,1080,910
289,1078,906
290,1081,900
291,1083,900
292,1088,902
293,1095,908
294,1097,907
295,1098,908
296,1096,908
297,1097,911
298,1103,920
299,1103,924
300,1103,924
301,1095,929
302,1089,934
303,1085,945
304,1082,955
305,1081,962
306,1078,967
307,1070,971
308,1061,975
309,1055,982
310,1048,994
311,1044,1007
312,1040,1010
313,1034,1014
314,1028,1013
315,1024,1015
316,1019,1020
317,1022,1023
318,1020,1028
319,1013,1028
320,1008,1031
321,1006,1035
322,1004,1038
323,1002,1040
324,1001,1037
325,1000,1032
326,996,1031
327,990,1031
328,990,1041
329,992,1043
330,991,1045
331,986,1043
332,983,1039
333,985,1039
334,989,1039
335,992,1042
336,992,1041
337,986,1041
338,984,1039
339,986,1044
340,988,1045
341,992,1043
342,994,1041
343,990,1038
344,989,1037
345,986,1038
346,989,1045
347,994,1051
348,996,1047
349,996,1039
350,995,1032
351,995,1034
352,995,1040
353,997,1040
354,997,1042
355,995,1039
356,994,1035
357,994,1035
358,997,1036
359,999,1038
360,1003,1035
361,999,1036
362,992,1036
363,991,1035
364,995,1040
365,999,1038
366,1000,1037
367,999,1036
368,994,1028
369,995,1033
370,993,1037
371,997,1041
372,994,1042
373,996,1035
374,995,1035
375,995,1034
376,997,1036
377,999,1038
378,998,1040
379,996,1037
380,993,1037
381,991,1037
382,993,1039
383,997,1039
384,1000,1037
385,1000,1034
386,996,1036
387,993,1042
388,995,1046
389,997,1051
390,1002,1049
391,1004,1047
392,1005,1046
393,1005,1048
394,1012,1053
395,1018,1057
396,1021,1057
397,1024,1052
398,1026,1046
399,1028,1039
400,1034,1041
401,1043,1037
402,1045,1035
403,1048,1033
404,1050,1034
405,1051,1037
406,1051,1040
407,1053,1041
408,1056,1039
409,1058,1038
410,1051,1034
411,1047,1037
412,1039,1042
413,1032,1045
414,1025,1043
415,1018,1036
416,1011,1032
417,1008,1030
418,1003,1035
419,1007,1036
420,999,1041
421,995,1039
422,997,1039
423,995,1036
424,997,1038
425,994,1038
426,997,1039
427,995,1037
428,992,1037
429,988,1040
430,990,1043
431,992,1042
432,997,1039
433,994,1034
434,992,1033
435,991,1036
436,992,1037
437,997,1046
438,997,1045
439,997,1044
440,999,1044
441,997,1046
442,1003,1044
443,1014,1029
444,1025,1021
445,1041,1011
446,1060,1016
447,1096,1021
448,1146,1033
449,1199,1061
450,1248,1099
451,1285,1135
452,1294,1167
453,1272,1195
454,1210,1207
455,1124,1207
456,1040,1197
457,970,1198
458,940,1199
459,937,1215
460,947,1234
461,950,1252
462,944,1264
463,931,1274
464,921,1282
465,913,1291
466,910,1306
467,913,1319
468,917,1327
469,913,1333
470,907,1333
471,905,1328
472,903,1317
473,901,1297
474,903,1268
475,907,1232
476,912,1195
477,920,1158
478,930,1127
479,942,1100
480,953,1075
481,960,1058
482,969,1046
483,978,1045
484,993,1044
485,1003,1040
486,1012,1030
487,1012,1022
488,1013,1013
489,1014,1010
490,1017,1013
491,1024,1015
492,1027,1013
493,1028,1006
494,1029,1001
495,1028,997
496,1029,997
497,1033,997
498,1036,996
499,1031,992
500,1026,988
501,1029,990
502,1035,992
503,1038,989
504,1040,984
505,1042,978
506,1041,975
507,1037,972
508,1041,975
509,1045,976
510,1045,975
511,1043,967
512,1047,960
513,1049,954
514,1053,955
515,1060,949
516,1062,945
517,1064,942
518,1059,938
519,1063,936
520,1067,933
521,1070,931
522,1074,923
523,1076,916
524,1074,908
525,1079,907
526,1081,909
527,1088,912
528,1089,907
529,1091,904
530,1092,899
531,1094,899
532,1099,902
533,1104,904
534,1105,905
535,1103,906
536,1100,910
537,1098,919
538,1101,927
539,1103,930
540,1102,935
541,1099,938
542,1091,935
543,1088,943
544,1085,952
545,1083,963
546,1082,973
547,1074,977
548,1071,980
549,1066,985
550,1063,992
551,1061,997
552,1058,1003
553,1050,1006
554,1039,1011
555,1037,1018
556,1034,1026
557,1034,1029
558,1033,1030
559,1029,1025
560,1024,1023
561,1019,1025
562,1017,1035
563,1015,1042
564,1015,1041
565,1011,1040
566,1008,1037
567,1005,1038
568,1007,1042
569,1008,1043
570,1007,1041
571,1005,1038
572,1000,1039
573,999,1043
574,1004,1044
575,1004,1048
576,1006,1044
577,1005,1038
578,1002,1034
579,1001,1039
580,1002,1043
581,1005,1047
582,1005,1049
583,1003,1043
584,1002,1035
585,1002,1037
586,1006,1038
587,1009,1041
588,1007,1040
589,1004,1038
590,997,1039
591,1003,1041
592,1007,1046
593,1007,1045
594,1009,1036
595,1010,1035
596,1005,1036
597,1003,1037
598,1006,1042
599,1009,1046
600,1011,1044
601,1010,1041
602,1007,1034
603,1002,1033
604,1002,1039
605,1005,1043
606,1010,1041
607,1008,1043
608,1004,1037
609,1004,1040
610,1004,1041
611,1008,1042
612,1008,1040
613,1004,1035
614,1000,1037
615,998,1039
616,1001,1045
617,1003,1050
618,1004,1044
619,1001,1035
620,995,1033
621,1000,1036
622,1003,1039
623,1005,1044
624,1004,1044
625,1004,1043
626,999,1040
627,997,1039
628,1001,1043
629,1006,1048
630,1009,1049
631,1007,1051
632,1002,1052
633,1004,1052
634,1009,1060
635,1014,1064
636,1018,1062
637,1021,1059
638,1023,1049
639,1021,1044
640,1025,1044
641,1028,1045
642,1037,1043
643,1043,1035
644,1043,1032
645,1047,1038
646,1053,1041
647,1057,1040
648,1056,1041
649,1049,1038
650,1043,1038
651,1042,1041
652,1044,1043
653,1042,1048
654,1041,1047
655,1033,1041
656,1023,1039
657,1012,1036
658,1008,1037
659,1007,1043
660,1003,1043
661,1000,1037
662,996,1037
663,993,1035
664,993,1037
665,992,1041
666,989,1035
667,988,1035
668,983,1032
669,979,1034
670,980,1038
671,985,1043
672,985,1039
673,985,1036
674,978,1033
675,979,1032
676,980,1035
677,982,1039
678,981,1040
679,981,1038
680,973,1035
681,977,1038
682,983,1037
683,986,1040
684,987,1039
685,989,1042
686,988,1042
687,989,1035
688,994,1027
689,1012,1021
690,1033,1019
691,1062,1017
692,1098,1021
693,1147,1041
694,1197,1079
695,1240,1123
696,1265,1162
697,1261,1186
698,1210,1201
699,1130,1198
700,1044,1193
701,976,1192
702,936,1194
703,921,1202
704,925,1215
705,922,1234
706,921,1252
707,919,1264
708,911,1267
709,902,1272
710,894,1278
711,889,1285
712,886,1302
713,891,1321
714,887,1328
715,887,1331
716,880,1326
717,880,1315
718,878,1291
719,883,1263
720,886,1225
721,889,1187
722,892,1150
723,898,1115
724,910,1088
725,925,1067
726,937,1050
727,952,1039
728,960,1029
729,971,1026
730,976,1023
731,980,1020
732,982,1016
733,982,1010
734,980,1006
735,985,1000
736,991,1002
737,995,1001
738,992,996
739,992,993
740,989,985
741,990,987
742,990,991
743,999,994
744,999,989
745,1002,982
746,999,974
747,997,972
748,1000,973
749,1003,977
750,1003,974
751,1003,972
752,1000,966
753,1003,963
754,1006,962
755,1012,959
756,1015,954
757,1014,949
758,1011,944
759,1009,943
760,1012,944
761,1015,944
762,1019,937
763,1019,927
764,1020,920
765,1023,916
766,1026,915
767,1030,917
768,1032,913
769,1033,908
770,1031,904
771,1031,901
772,1039,901
773,1046,898
774,1050,897
775,1047,894
776,1048,890
777,1047,897
778,1053,903
779,1055,908
780,1056,912
781,1058,911
782,1053,909
783,1052,914
784,1052,921
785,1053,927
786,1051,935
787,1045,939
788,1037,944
789,1034,951
790,1034,960
791,1031,966
792,1028,970
793,1022,969
794,1015,975
795,1010,982
796,1007,991
797,1005,1002
798,1002,1005
799,996,1004
800,990,1004
801,988,1007
802,985,1014
803,986,1018
804,979,1023
805,974,1024
806,967,1024
807,964,1025
808,962,1029
809,964,1028
810,962,1026
811,959,1024
812,952,1023
813,950,1027
814,952,1035
815,955,1036
816,958,1031
817,956,1027
818,950,1023
819,949,1023
820,950,1026
821,950,1029
822,951,1031
823,951,1031
824,948,1031
825,950,1027
826,956,1026
827,956,1030
828,957,1026
829,952,1026
830,949,1029
831,947,1028
832,951,1033
833,956,1033
834,955,1029
835,952,1023
836,950,1022
837,949,1022
838,949,1027
839,951,1029
840,952,1029
841,950,1026
842,949,1026
843,953,1027
844,953,1027
845,956,1026
846,955,1026
847,951,1022
848,947,1025
849,946,1028
850,948,1030
851,952,1032
852,955,1026
853,952,1024
854,947,1021
855,945,1024
856,944,1030
857,946,1033
858,950,1038
859,947,1037
860,947,1033
861,952,1033
862,954,1035
863,960,1040
864,960,1040
865,960,1041
866,958,1037
867,961,1036
868,966,1035
869,973,1032
870,979,1023
871,983,1017
872,984,1016
873,987,1021
874,992,1026
875,994,1027
876,993,1029
877,994,1026
878,990,1024
879,988,1027
880,990,1031
881,985,1028
882,983,1030
883,975,1029
884,966,1027
885,959,1028
886,953,1026
887,952,1027
888,946,1023
889,943,1020
890,939,1018
891,933,1022
892,934,1026
893,931,1029
894,931,1027
895,930,1025
896,927,1019
897,923,1019
898,923,1019
899,924,1027
900,925,1026
901,922,1025
902,920,1023
903,919,1022
904,922,1023
905,926,1024
906,930,1024
907,927,1019
908,923,1018
909,920,1023
910,927,1031
911,930,1033
912,930,1034
913,931,1031
914,931,1029
915,933,1023
916,941,1012
917,956,1005
918,974,1001
919,1002,1005
920,1040,1012
921,1090,1032
922,1145,1061
923,1191,1094
924,1218,1118
925,1215,1144
926,1181,1165
927,1113,1171
928,1030,1169
929,955,1167
930,900,1165
931,875,1171
932,874,1179
933,881,1194
934,882,1206
935,876,1221
936,871,1233
937,860,1243
938,852,1250
939,848,1258
940,848,1268
941,851,1283
942,852,1293
943,852,1302
944,848,1304
945,841,1296
946,839,1284
947,838,1262
948,843,1228
949,847,1192
950,856,1154
951,864,1122
952,876,1094
953,885,1076
954,895,1058
955,900,1041
956,909,1034
957,924,1031
958,938,1024
959,951,1023
960,957,1016
961,960,1006
962,959,1001
963,959,1001
964,961,1002
965,964,1004
966,970,1000
967,972,992
968,972,988
969,975,989
970,978,987
971,979,988
972,981,988
973,982,985
974,979,981
975,981,980
976,987,983
977,991,979
978,994,974
979,992,967
980,992,963
981,989,961
982,993,967
983,1000,966
984,1001,965
985,1004,955
986,1003,947
987,1006,944
988,1009,941
989,1014,940
990,1016,937
991,1018,932
992,1014,930
993,1018,928
994,1022,925
995,1029,921
996,1033,917
997,1032,912
998,1031,909
999,1033,907
1000,1035,911
1001,1042,907
1002,1044,903
1003,1046,900
1004,1051,900
1005,1055,902
1006,1058,907
1007,1061,906
1008,1061,905
1009,1057,909
1010,1054,920
1011,1057,927
1012,1057,933
1013,1060,934
1014,1059,934
1015,1052,938
1016,1049,943
1017,1044,951
1018,1044,959
1019,1038,965
1020,1036,970
1021,1027,974
1022,1021,979
1023,1022,987
1024,1023,993
1025,1020,994
1026,1017,994
1027,1008,995
1028,1003,1005
1029,1004,1010
1030,1000,1018
1031,995,1024
1032,990,1025
1033,987,1023
1034,984,1027
1035,983,1030
1036,984,1033
1037,981,1034
1038,976,1034
1039,970,1032
1040,968,1039
1041,970,1042
1042,970,1043
1043,972,1039
1044,972,1034
1045,969,1029
1046,967,1034
1047,968,1040
1048,967,1041
1049,970,1044
1050,967,1040
1051,967,1038
1052,967,1037
1053,970,1038
1054,972,1040
1055,973,1038
1056,971,1037
1057,969,1036
1058,967,1037
1059,967,1042
1060,972,1046
1061,973,1041
1062,975,1036
1063,972,1033
1064,971,1034
1065,973,1036
1066,975,1038
1067,973,1038
1068,973,1040
1069,971,1039
1070,973,1039
1071,975,1043
1072,979,1037
1073,978,1034
1074,978,1033
1075,974,1033
1076,971,1036
1077,974,1042
1078,975,1043
1079,977,1044
1080,972,1040
1081,973,1035
1082,972,1032
1083,975,1035
1084,979,1038
1085,978,1036
1086,977,1036
1087,972,1037
1088,970,1038
1089,973,1041
1090,976,1042
1091,980,1039
1092,980,1036
1093,976,1034
1094,978,1033
1095,975,1039
1096,978,1045
1097,982,1049
1098,977,1050
1099,975,1049
1100,979,1047
1101,988,1048
1102,993,1050
1103,995,1048
1104,996,1047
1105,995,1047
1106,995,1045
1107,1000,1045
1108,1003,1044
1109,1010,1042
1110,1012,1035
1111,1017,1027
1112,1019,1026
1113,1024,1031
1114,1029,1036
1115,1026,1039
1116,1027,1037
1117,1022,1036
1118,1023,1038
1119,1027,1039
1120,1029,1041
1121,1027,1036
1122,1024,1033
1123,1015,1034
1124,1006,1034
1125,999,1039
1126,996,1040
1127,992,1041
1128,987,1033
1129,980,1032
1130,978,1030
1131,978,1030
1132,977,1033
1133,976,1030
1134,970,1031
1135,967,1031
1136,963,1035
1137,963,1036
1138,964,1041
1139,965,1037
1140,962,1030
1141,963,1029
1142,962,1029
1143,965,1035
1144,965,1035
1145,964,1038
1146,960,1036
1147,959,1035
1148,959,1036
1149,963,1039
1150,967,1038
1151,972,1038
1152,968,1036
1153,965,1033
1154,963,1039
1155,966,1045
1156,974,1052
1157,972,1054
1158,975,1044
1159,981,1032
1160,990,1023
1161,1013,1018
1162,1039,1013
1163,1071,1019
1164,1110,1023
1165,1152,1037
1166,1200,1068
1167,1242,1106
1168,1274,1142
1169,1284,1169
1170,1265,1187
1171,1216,1197
1172,1144,1196
1173,1067,1199
1174,997,1201
1175,944,1202
1176,909,1205
1177,898,1210
1178,898,1221
1179,906,1238
1180,910,1252
1181,905,1259
1182,896,1262
1183,885,1273
1184,878,1282
1185,873,1295
1186,873,1308
1187,878,1319
1188,878,1323
1189,878,1324
1190,877,1323
1191,876,1320
1192,874,1309
1193,873,1286
1194,868,1257
1195,871,1227
1196,875,1193
1197,886,1166
1198,898,1136
1199,910,1106
1200,916,1080
1201,923,1055
1202,935,1043
1203,947,1039
1204,961,1034
1205,971,1030
1206,977,1021
1207,978,1015
1208,981,1015
1209,987,1010
1210,993,1008
1211,996,1003
1212,999,997
1213,998,993
1214,996,992
1215,1000,998
1216,1003,998
1217,1003,996
1218,1005,992
1219,1003,988
1220,1004,985
1221,1006,987
1222,1010,987
1223,1014,986
1224,1010,978
1225,1011,976
1226,1012,980
1227,1015,981
1228,1019,981
1229,1023,975
1230,1021,967
1231,1021,961
1232,1020,956
1233,1023,959
1234,1026,961
1235,1031,959
1236,1032,954
1237,1031,946
1238,1035,941
1239,1037,938
1240,1043,936
1241,1045,930
1242,1045,925
1243,1045,923
1244,1047,922
1245,1054,925
1246,1057,924
1247,1058,922
1248,1059,915
1249,1061,907
1250,1059,903
1251,1065,903
1252,1070,903
1253,1074,902
1254,1074,895
1255,1076,897
1256,1074,900
1257,1074,902
1258,1081,904
1259,1087,902
1260,1087,897
1261,1086,899
1262,1088,901
1263,1090,906
1264,1092,917
1265,1091,919
1266,1089,923
1267,1083,925
1268,1080,932
1269,1078,940
1270,1077,947
1271,1073,949
1272,1070,950
1273,1063,957
1274,1057,965
1275,1052,978
1276,1052,986
1277,1047,994
1278,1039,993
1279,1034,996
1280,1029,998
1281,1030,1004
1282,1028,1009
1283,1027,1012
1284,1020,1013
1285,1013,1016
1286,1008,1022
1287,1007,1029
1288,1008,1032
1289,1008,1030
1290,1002,1028
1291,997,1027
1292,996,1028
1293,993,1030
1294,995,1036
1295,994,1036
1296,989,1035
1297,987,1035
1298,984,1038
1299,987,1043
1300,990,1045
1301,991,1041
1302,986,1036
1303,980,1030
1304,980,1035
1305,979,1038
1306,982,1044
1307,982,1041
1308,978,1040
1309,980,1040
1310,977,1039
1311,982,1038
1312,982,1039
1313,983,1036
1314,978,1034
1315,976,1034
1316,978,1037
1317,979,1039
1318,983,1041
1319,983,1040
1320,984,1037
1321,985,1035
1322,986,1032
1323,987,1035
1324,991,1038
1325,990,1034
1326,986,1032
1327,985,1032
1328,984,1035
1329,985,1038
1330,988,1041
1331,988,1042
1332,988,1038
1333,985,1032
1334,983,1031
1335,987,1035
1336,992,1038
1337,991,1035
1338,991,1032
1339,984,1035
1340,984,1036
1341,984,1041
1342,984,1039
1343,989,1039
1344,989,1030
1345,986,1027
1346,983,1030
1347,981,1034
1348,984,1039
1349,987,1042
1350,986,1036
1351,984,1036
1352,984,1036
1353,986,1039
1354,990,1037
1355,989,1037
1356,985,1033
1357,981,1033
1358,981,1036
1359,981,1042
1360,986,1048
1361,985,1043
1362,983,1042
1363,984,1042
1364,982,1038
1365,983,1040
1366,990,1045
1367,992,1044
1368,988,1043
1369,986,1044
1370,988,1048
1371,992,1053
1372,999,1057
1373,1001,1057
1374,1006,1054
1375,1006,1049
1376,1004,1046
1377,1009,1045
1378,1014,1043
1379,1016,1039
1380,1017,1037
1381,1014,1032
1382,1020,1034
1383,1030,1038
1384,1037,1039
1385,1039,1035
1386,1040,1033
1387,1034,1033
1388,1032,1036
1389,1032,1043
1390,1032,1044
1391,1032,1043
1392,1024,1040
1393,1016,1039
1394,1005,1038
1395,1005,1038
1396,1000,1041
1397,996,1037
1398,991,1032
1399,983,1031
1400,982,1035
1401,983,1041
1402,983,1041
1403,983,1039
1404,978,1035
1405,974,1032
1406,974,1030
1407,974,1035
1408,974,1039
1409,973,1036
1410,969,1035
1411,964,1035
1412,963,1038
1413,965,1041
1414,968,1040
1415,969,1039
1416,967,1037
1417,966,1030
1418,964,1030
1419,967,1037
1420,968,1043
1421,972,1044
1422,971,1040
1423,968,1036
1424,969,1036
1425,975,1044
1426,978,1050
1427,980,1049
1428,983,1045
1429,982,1036
1430,986,1027
1431,998,1026
1432,1016,1027
1433,1032,1023
1434,1057,1020
1435,1085,1019
1436,1119,1027
1437,1162,1044
1438,1203,1075
1439,1237,1105
1440,1262,1136
1441,1273,1167
1442,1262,1196
1443,1227,1215
1444,1168,1222
1445,1088,1212
1446,1004,1204
1447,934,1200
1448,901,1207
1449,896,1223
1450,907,1245
1451,912,1264
1452,906,1275
1453,897,1283
1454,890,1291
1455,884,1301
1456,880,1313
1457,877,1325
1458,879,1335
1459,874,1340
1460,874,1343
1461,874,1334
1462,875,1308
1463,878,1270
1464,877,1226
1465,883,1186
1466,892,1154
1467,902,1126
1468,911,1105
1469,922,1083
1470,931,1065
1471,936,1053
1472,949,1044
1473,961,1042
1474,972,1035
1475,979,1029
1476,985,1021
1477,986,1019
1478,986,1016
1479,990,1018
1480,994,1018
1481,998,1016
1482,998,1009
1483,999,1000
1484,1001,998
1485,1004,999
1486,1007,1002
1487,1006,1002
1488,1006,997
1489,1003,992
1490,1005,993
1491,1008,992
1492,1012,992
1493,1012,988
1494,1014,981
1495,1015,981
1496,1016,982
1497,1017,982
1498,1022,984
1499,1025,980
1500,1025,973
1501,1021,967
1502,1024,963
1503,1028,966
1504,1031,965
1505,1033,960
1506,1030,958
1507,1029,955
1508,1030,950
1509,1036,955
1510,1041,950
1511,1043,945
1512,1044,939
1513,1047,932
1514,1049,928
1515,1050,929
1516,1056,928
1517,1058,929
1518,1059,923
1519,1060,918
1520,1060,918
1521,1066,915
1522,1074,916
1523,1076,909
1524,1076,906
1525,1074,907
1526,1077,915
1527,1079,919
1528,1085,927
1529,1090,930
1530,1087,929
1531,1082,933
1532,1080,937
1533,1077,948
1534,1074,955
1535,1072,964
1536,1066,963
1537,1060,969
1538,1057,975
1539,1052,982
1540,1053,989
1541,1050,990
1542,1040,995
1543,1035,997
1544,1030,1005
1545,1028,1012
1546,1027,1021
1547,1026,1025
1548,1019,1026
1549,1013,1028
1550,1008,1028
1551,1008,1032
1552,1009,1038
1553,1005,1039
1554,999,1039
1555,994,1039
1556,988,1049
1557,989,1051
1558,991,1052
1559,990,1048
1560,986,1044
1561,981,1048
1562,977,1049
1563,978,1052
1564,983,1056
1565,982,1059
1566,982,1054
1567,979,1050
1568,979,1050
1569,981,1052
1570,987,1053
1571,985,1054
1572,979,1049
1573,974,1048
1574,975,1052
1575,977,1056
1576,980,1059
1577,984,1059
1578,985,1054
1579,982,1050
1580,983,1047
1581,984,1051
1582,985,1052
1583,984,1053
1584,981,1053
1585,979,1052
1586,978,1056
1587,981,1055
1588,983,1058
1589,983,1052
1590,986,1045
1591,986,1044
1592,982,1048
1593,983,1053
1594,986,1059
1595,986,1058
1596,989,1051
1597,985,1048
1598,984,1048
1599,985,1048
1600,989,1050
1601,989,1052
1602,985,1053
1603,981,1052
1604,979,1052
1605,980,1055
1606,985,1056
1607,985,1051
1608,985,1050
1609,984,1046
1610,978,1048
1611,982,1052
1612,984,1053
1613,983,1055
1614,981,1054
1615,977,1055
1616,976,1054
1617,983,1056
1618,983,1060
1619,984,1056
1620,982,1050
1621,979,1049
1622,980,1049
1623,979,1053
1624,980,1056
1625,980,1056
1626,979,1059
1627,976,1055
1628,977,1058
1629,981,1060
1630,985,1061
1631,986,1063
1632,984,1058
1633,982,1062
1634,987,1062
1635,992,1071
1636,998,1075
1637,1002,1070
1638,1003,1063
1639,1002,1057
1640,1007,1055
1641,1011,1055
1642,1016,1054
1643,1019,1049
1644,1019,1047
1645,1017,1046
1646,1020,1048
1647,1027,1050
1648,1030,1055
1649,1034,1052
1650,1031,1048
1651,1031,1045
1652,1030,1049
1653,1032,1052
1654,1034,1054
1655,1035,1052
1656,1033,1051
1657,1029,1049
1658,1026,1053
1659,1026,1054
1660,1023,1059
1661,1019,1057
1662,1014,1054
1663,1006,1052
1664,999,1053
1665,995,1051
1666,990,1053
1667,986,1050
1668,978,1049
1669,975,1050
1670,973,1050
1671,970,1054
1672,970,1055
1673,970,1048
1674,965,1045
1675,961,1045
1676,959,1051
1677,959,1057
1678,964,1055
1679,962,1051
1680,961,1050
1681,959,1048
1682,958,1051
1683,958,1054
1684,962,1060
1685,966,1058
1686,963,1058
1687,962,1054
1688,964,1053
1689,966,1059
1690,973,1058
1691,973,1060
1692,974,1060
1693,972,1058
1694,973,1055
1695,976,1051
1696,982,1050
1697,988,1045
1698,996,1035
1699,1001,1031
1700,1017,1031
1701,1043,1038
1702,1075,1042
1703,1106,1045
1704,1145,1062
1705,1185,1089
1706,1220,1130
1707,1251,1173
1708,1255,1212
1709,1213,1225
1710,1129,1219
1711,1031,1205
1712,954,1204
1713,913,1214
1714,913,1231
1715,924,1252
1716,921,1269
1717,907,1281
1718,897,1293
1719,893,1302
1720,891,1306
1721,888,1311
1722,884,1317
1723,881,1324
1724,882,1334
1725,880,1347
1726,879,1354
1727,878,1350
1728,880,1348
1729,876,1342
1730,874,1332
1731,874,1321
1732,875,1311
1733,873,1290
1734,876,1264
1735,875,1240
1736,880,1219
1737,888,1200
1738,895,1179
1739,902,1153
1740,906,1124
1741,912,1099
1742,922,1082
1743,929,1072
1744,949,1064
1745,960,1056
1746,969,1038
1747,976,1031
1748,981,1028
1749,984,1028
1750,987,1028
1751,991,1024
1752,994,1017
1753,992,1010
1754,996,1006
1755,998,1009
1756,999,1009
1757,1000,1006
1758,999,1004
1759,999,1000
1760,1000,1002
1761,1000,1000
1762,1007,1002
1763,1010,1001
1764,1005,994
1765,1001,989
1766,1003,988
1767,1007,989
1768,1010,991
1769,1014,991
1770,1009,986
1771,1008,985
1772,1010,986
1773,1013,989
1774,1016,986
1775,1020,982
1776,1017,979
1777,1016,969
1778,1018,967
1779,1020,967
1780,1024,964
1781,1027,960
1782,1026,954
1783,1026,949
1784,1028,943
1785,1035,942
1786,1041,939
1787,1044,931
1788,1044,926
1789,1040,921
1790,1044,923
1791,1051,922
1792,1056,922
1793,1060,917
1794,1062,914
1795,1059,911
1796,1059,912
1797,1062,918
1798,1067,923
1799,1066,928
1800,1066,926
1801,1064,925
1802,1063,933
1803,1067,935
1804,1067,940
1805,1067,940
1806,1067,941
1807,1062,942
1808,1059,949
1809,1057,959
1810,1057,969
1811,1052,977
1812,1047,977
1813,1041,980
1814,1036,987
1815,1034,994
1816,1033,1001
1817,1024,1006
1818,1019,1011
1819,1013,1014
1820,1010,1025
1821,1005,1032
1822,1006,1034
1823,1006,1035
1824,1001,1034
1825,996,1036
1826,988,1038
1827,988,1048
1828,988,1053
1829,984,1055
1830,980,1054
1831,976,1051
1832,975,1050
1833,971,1052
1834,976,1053
1835,977,1054
1836,972,1054
1837,971,1052
1838,968,1058
1839,968,1062
1840,973,1064
1841,973,1062
1842,974,1056
1843,970,1052
1844,970,1054
1845,972,1055
1846,974,1057
1847,974,1059
1848,969,1057
1849,969,1057
1850,966,1057
1851,969,1059
1852,974,1064
1853,974,1060
1854,974,1057
1855,972,1052
1856,971,1051
1857,971,1055
1858,971,1058
1859,971,1055
1860,967,1055
1861,966,1053
1862,968,1054
1863,972,1055
1864,976,1057
1865,976,1054
1866,975,1051
1867,968,1049
1868,965,1053
1869,968,1058
1870,973,1061
1871,974,1058
1872,973,1054
1873,969,1050
1874,969,1051
1875,968,1053
1876,969,1055
1877,969,1057
1878,968,1054
1879,964,1056
1880,962,1058
1881,961,1060
1882,966,1063
1883,971,1060
1884,967,1053
1885,965,1047
1886,964,1050
1887,964,1055
1888,963,1058
1889,965,1063
1890,964,1062
1891,962,1065
1892,963,1063
1893,970,1064
1894,974,1065
1895,977,1062
1896,979,1062
1897,981,1062
1898,981,1061
1899,987,1064
1900,992,1061
1901,996,1057
1902,999,1044
1903,1003,1042
1904,1005,1042
1905,1009,1051
1906,1013,1056
1907,1015,1058
1908,1013,1055
1909,1009,1053
1910,1004,1051
1911,1004,1052
1912,999,1057
1913,993,1056
1914,977,1056
1915,969,1053
1916,965,1054
1917,962,1054
1918,963,1048
1919,961,1049
1920,955,1045
1921,950,1044
1922,947,1047
1923,946,1053
1924,947,1056
1925,947,1057
1926,944,1050
1927,941,1047
1928,940,1046
1929,941,1051
1930,938,1050
1931,941,1050
1932,936,1050
1933,931,1052
1934,932,1052
1935,934,1052
1936,938,1054
1937,938,1052
1938,939,1047
1939,932,1044
1940,931,1045
1941,937,1054
1942,942,1064
1943,948,1068
1944,949,1055
1945,954,1037
1946,967,1022
1947,988,1024
1948,1022,1028
1949,1060,1039
1950,1107,1055
1951,1154,1087
1952,1193,1125
1953,1215,1160
1954,1211,1189
1955,1163,1202
1956,1088,1197
1957,1006,1191
1958,939,1194
1959,901,1199
1960,889,1208
1961,895,1217
1962,894,1227
1963,890,1233
1964,882,1243
1965,874,1256
1966,869,1274
1967,862,1284
1968,852,1290
1969,846,1295
1970,848,1309
1971,852,1324
1972,855,1331
1973,851,1330
1974,843,1318
1975,838,1294
1976,835,1271
1977,841,1244
1978,851,1208
1979,862,1165
1980,870,1125
1981,874,1091
1982,878,1067
1983,897,1059
1984,906,1053
1985,920,1048
1986,930,1039
1987,938,1029
1988,942,1022
1989,947,1017
1990,950,1016
1991,950,1016
1992,949,1010
1993,946,1007
1994,948,1011
1995,953,1013
1996,954,1012
1997,957,1003
1998,955,997
1999,958,991
2000,960,994
2001,958,996
2002,962,997
2003,966,995
2004,963,994
2005,965,991
2006,964,990
2007,969,987
2008,971,983
2009,972,979
2010,969,975
2011,965,972
2012,966,971
2013,969,974
2014,974,975
2015,977,967
2016,981,957
2017,980,952
2018,981,948
2019,984,945
2020,985,944
2021,985,939
2022,988,938
2023,988,929
2024,993,927
2025,997,927
2026,1002,923
2027,1008,920
2028,1007,914
2029,1003,910
2030,1006,913
2031,1011,912
2032,1016,918
2033,1020,920
2034,1022,916
2035,1023,915
2036,1022,916
2037,1025,919
2038,1027,927
2039,1026,930
2040,1025,935
2041,1020,937
2042,1018,945
2043,1018,953
2044,1021,957
2045,1014,960
2046,1005,961
2047,1003,966
2048,995,972
2049,994,983
2050,992,991
2051,990,1000
2052,983,998
2053,977,999
2054,969,1004
2055,972,1012
2056,974,1019
2057,970,1018
2058,963,1023
2059,953,1025
2060,952,1029
2061,954,1034
2062,956,1038
2063,953,1039
2064,949,1038
2065,944,1036
2066,942,1039
2067,941,1040
2068,940,1045
2069,938,1048
2070,935,1046
2071,930,1046
2072,928,1046
2073,930,1048
2074,938,1051
2075,937,1045
2076,934,1043
2077,930,1042
2078,927,1045
2079,927,1051
2080,931,1051
2081,932,1051
2082,933,1048
2083,929,1044
2084,930,1044
2085,933,1045
2086,936,1047
2087,935,1043
2088,931,1040
2089,927,1041
2090,929,1045
2091,929,1052
2092,936,1053
2093,938,1048
2094,934,1043
2095,936,1039
2096,935,1041
2097,939,1040
2098,941,1047
2099,937,1048
2100,938,1047
2101,935,1046
2102,932,1043
2103,936,1045
2104,939,1045
2105,941,1039
2106,939,1037
2107,937,1034
2108,936,1042
2109,935,1044
2110,939,1052
2111,939,1047
2112,936,1041
2113,937,1038
2114,937,1036
2115,940,1039
2116,940,1045
2117,942,1046
2118,939,1048
2119,936,1051
2120,938,1049
2121,943,1053
2122,948,1053
2123,954,1050
2124,956,1044
2125,956,1044
2126,956,1048
2127,958,1050
2128,959,1052
2129,963,1049
2130,963,1045
2131,964,1040
2132,970,1036
2133,978,1036
2134,989,1034
2135,995,1038
2136,994,1036
2137,993,1033
2138,987,1040
2139,990,1044
2140,994,1049
2141,994,1050
2142,990,1044
2143,984,1038
2144,978,1040
2145,974,1041
2146,967,1046
2147,960,1043
2148,950,1041
2149,942,1042
2150,939,1038
2151,940,1038
2152,941,1037
2153,941,1038
2154,939,1034
2155,937,1030
2156,936,1034
2157,934,1037
2158,935,1041
2159,933,1045
2160,933,1041
2161,930,1039
2162,928,1038
2163,931,1036
2164,933,1039
2165,935,1035
2166,933,1035
2167,931,1032
2168,930,1036
2169,934,1038
2170,931,1043
2171,935,1043
2172,936,1037
2173,937,1033
2174,938,1033
2175,940,1039
2176,943,1042
2177,942,1043
2178,940,1048
2179,942,1049
2180,943,1048
2181,954,1037
2182,965,1028
2183,976,1015
2184,991,1012
2185,1011,1008
2186,1043,1014
2187,1089,1026
2188,1140,1050
2189,1185,1081
2190,1224,1107
2191,1246,1130
2192,1243,1153
2193,1213,1177
2194,1148,1182
2195,1068,1176
2196,978,1170
2197,916,1170
2198,884,1184
2199,887,1203
2200,898,1221
2201,900,1226
2202,895,1231
2203,883,1236
2204,869,1253
2205,866,1262
2206,867,1272
2207,861,1285
2208,860,1295
2209,860,1306
2210,861,1312
2211,864,1314
2212,863,1310
2213,861,1291
2214,862,1265
2215,856,1239
2216,861,1210
2217,869,1187
2218,882,1163
2219,890,1130
2220,899,1098
2221,906,1071
2222,913,1050
2223,927,1042
2224,942,1035
2225,950,1032
2226,958,1028
2227,965,1025
2228,969,1022
2229,977,1018
2230,982,1015
2231,985,1006
2232,987,999
2233,988,996
2234,990,996
2235,989,1000
2236,997,1002
2237,1002,997
2238,1003,993
2239,1001,987
2240,1003,986
2241,1007,984
2242,1012,985
2243,1011,983
2244,1011,984
2245,1009,980
2246,1012,980
2247,1017,981
2248,1022,976
2249,1029,967
2250,1028,959
2251,1026,956
2252,1026,958
2253,1028,962
2254,1036,957
2255,1038,952
2256,1039,944
2257,1046,933
2258,1050,930
2259,1054,931
2260,1059,929
2261,1061,926
2262,1061,919
2263,1066,909
2264,1072,905
2265,1077,906
2266,1083,909
2267,1082,907
2268,1082,905
2269,1084,904
2270,1085,908
2271,1092,916
2272,1094,915
2273,1098,917
2274,1098,911
2275,1096,915
2276,1094,926
2277,1092,938
2278,1094,948
2279,1091,950
2280,1086,953
2281,1081,956
2282,1077,963
2283,1075,971
2284,1071,980
2285,1065,984
2286,1056,991
2287,1053,999
2288,1049,1013
2289,1048,1021
2290,1043,1024
2291,1039,1023
2292,1032,1027
2293,1025,1031
2294,1021,1037
2295,1021,1044
2296,1021,1045
2297,1021,1042
2298,1018,1037
2299,1016,1037
2300,1014,1039
2301,1015,1045
2302,1015,1052
2303,1015,1053
2304,1013,1051
2305,1010,1045
2306,1009,1044
2307,1010,1049
2308,1011,1051
2309,1013,1051
2310,1011,1051
2311,1011,1048
2312,1013,1047
2313,1013,1048
2314,1017,1045
2315,1017,1044
2316,1018,1047
2317,1016,1048
2318,1015,1047
2319,1019,1042
2320,1022,1047
2321,1024,1047
2322,1023,1043
2323,1019,1046
2324,1017,1045
2325,1017,1051
2326,1027,1053
2327,1028,1047
2328,1027,1040
2329,1020,1040
2330,1020,1039
2331,1020,1043
2332,1023,1050
2333,1023,1053
2334,1023,1051
2335,1022,1051
2336,1023,1052
2337,1031,1057
2338,1033,1057
2339,1035,1056
2340,1039,1058
2341,1040,1053
2342,1044,1050
2343,1047,1049
2344,1055,1045
2345,1058,1039
2346,1059,1033
2347,1061,1034
2348,1064,1038
2349,1066,1044
2350,1070,1049
2351,1074,1048
2352,1070,1045
2353,1067,1043
2354,1066,1042
2355,1062,1048
2356,1054,1053
2357,1053,1052
2358,1041,1051
2359,1034,1047
2360,1026,1046
2361,1023,1042
2362,1021,1041
2363,1019,1042
2364,1013,1042
2365,1009,1042
2366,1005,1045
2367,1006,1050
2368,1008,1051
2369,1010,1046
2370,1007,1040
2371,999,1039
2372,1000,1040
2373,998,1046
2374,1001,1049
2375,999,1050
2376,997,1044
2377,996,1043
2378,998,1039
2379,1001,1043
2380,1002,1046
2381,1001,1046
2382,998,1049
2383,998,1048
2384,998,1052
2385,1004,1058
2386,1011,1064
2387,1016,1057
2388,1020,1044
2389,1021,1028
2390,1031,1023
2391,1049,1023
2392,1083,1031
2393,1120,1037
2394,1166,1048
2395,1212,1078
2396,1255,1116
2397,1290,1156
2398,1294,1188
2399,1252,1211
2400,1171,1212
2401,1077,1204
2402,998,1205
2403,952,1212
2404,945,1224
2405,954,1235
2406,955,1245
2407,944,1258
2408,930,1273
2409,923,1287
2410,921,1297
2411,918,1306
2412,911,1312
2413,910,1323
2414,911,1335
2415,914,1347
2416,916,1353
2417,911,1346
2418,906,1324
2419,900,1295
2420,903,1263
2421,914,1227
2422,928,1188
2423,937,1148
2424,946,1111
2425,953,1085
2426,965,1070
2427,977,1062
2428,994,1058
2429,1008,1048
2430,1015,1038
2431,1015,1029
2432,1020,1028
2433,1023,1028
2434,1027,1027
2435,1028,1024
2436,1030,1022
2437,1030,1018
2438,1030,1015
2439,1034,1013
2440,1041,1011
2441,1043,1010
2442,1041,1003
2443,1038,1001
2444,1037,1003
2445,1040,1006
2446,1044,1005
2447,1044,999
2448,1047,995
2449,1044,989
2450,1047,987
2451,1050,985
2452,1052,984
2453,1052,984
2454,1050,980
2455,1051,976
2456,1054,971
2457,1059,970
2458,1064,963
2459,1066,960
2460,1066,953
2461,1061,950
2462,1067,949
2463,1069,949
2464,1073,949
2465,1079,944
2466,1080,933
2467,1080,925
2468,1083,922
2469,1088,921
2470,1091,921
2471,1097,921
2472,1096,919
2473,1096,914
2474,1101,915
2475,1105,917
2476,1110,920
2477,1107,919
2478,1106,923
2479,1103,925
2480,1100,932
2481,1102,940
2482,1103,945
2483,1104,950
2484,1101,953
2485,1093,955
2486,1087,964
2487,1082,970
2488,1081,987
2489,1075,991
2490,1071,998
2491,1063,998
2492,1060,1008
2493,1054,1014
2494,1050,1018
2495,1047,1024
2496,1041,1028
2497,1035,1034
2498,1031,1037
2499,1029,1048
2500,1027,1048
2501,1026,1046
2502,1021,1047
2503,1012,1045
2504,1008,1051
2505,1007,1059
2506,1009,1063
2507,1008,1061
2508,1006,1057
2509,1003,1053
2510,1002,1056
2511,1007,1058
2512,1007,1061
2513,1006,1061
2514,1003,1063
2515,998,1063
2516,1001,1062
2517,1003,1063
2518,1007,1063
2519,1004,1057
2520,1002,1059
2521,998,1063
2522,999,1068
2523,1002,1069
2524,1007,1066
2525,1004,1062
2526,1007,1059
2527,1004,1053
2528,1006,1057
2529,1007,1063
2530,1006,1068
2531,1002,1068
2532,1000,1064
2533,1003,1060
2534,1006,1054
2535,1009,1059
2536,1011,1061
2537,1010,1062
2538,1007,1062
2539,1004,1062
2540,1002,1058
2541,1008,1061
2542,1011,1061
2543,1014,1059
2544,1010,1055
2545,1003,1054
2546,1006,1063
2547,1009,1071
2548,1016,1073
2549,1023,1068
2550,1025,1063
2551,1021,1065
2552,1023,1068
2553,1029,1064
2554,1036,1064
2555,1041,1061
2556,1043,1055
2557,1046,1051
2558,1051,1047
2559,1056,1051
2560,1057,1060
2561,1055,1059
2562,1053,1059
2563,1050,1058
2564,1050,1058
2565,1046,1058
2566,1041,1059
2567,1034,1060
2568,1020,1055
2569,1009,1056
2570,1003,1057
2571,1002,1058
2572,1002,1059
2573,999,1056
2574,994,1052
2575,989,1052
2576,983,1053
2577,984,1056
2578,985,1058
2579,985,1060
2580,985,1052
2581,983,1051
2582,978,1051
2583,977,1056
2584,979,1058
2585,979,1057
2586,980,1054
2587,976,1050
2588,978,1051
2589,978,1051
2590,985,1054
2591,987,1051
2592,984,1051
2593,983,1057
2594,981,1063
2595,988,1066
2596,996,1056
2597,1004,1038
2598,1019,1027
2599,1042,1025
2600,1079,1031
2601,1126,1048
2602,1183,1087
2603,1234,1129
2604,1269,1166
2605,1277,1195
2606,1242,1211
2607,1173,1215
2608,1085,1212
2609,1000,1209
2610,941,1213
2611,917,1222
2612,924,1239
2613,933,1256
2614,933,1268
2615,921,1278
2616,908,1286
2617,899,1298
2618,889,1311
2619,891,1332
2620,895,1346
2621,897,1351
2622,893,1354
2623,888,1342
2624,885,1323
2625,881,1297
2626,883,1267
2627,890,1229
2628,898,1188
2629,908,1148
2630,918,1115
2631,932,1089
2632,941,1070
2633,956,1062
2634,966,1055
2635,971,1046
2636,982,1045
2637,988,1040
2638,994,1039
2639,997,1028
2640,999,1023
2641,998,1016
2642,999,1016
2643,998,1017
2644,1002,1021
2645,1005,1018
2646,1005,1011
2647,1003,1008
2648,1005,1004
2649,1008,1004
2650,1012,1005
2651,1011,1000
2652,1013,995
2653,1010,996
2654,1008,995
2655,1013,997
2656,1018,994
2657,1021,992
2658,1022,980
2659,1018,979
2660,1018,975
2661,1020,979
2662,1026,980
2663,1027,974
2664,1028,969
2665,1028,960
2666,1029,956
2667,1032,949
2668,1037,947
2669,1042,943
2670,1044,939
2671,1043,934
2672,1045,931
2673,1048,931
2674,1054,931
2675,1057,925
2676,1058,919
2677,1057,912
2678,1058,913
2679,1064,917
2680,1066,919
2681,1067,920
2682,1068,917
2683,1069,918
2684,1069,922
2685,1071,923
2686,1076,931
2687,1074,936
2688,1066,939
2689,1062,945
2690,1056,955
2691,1055,967
2692,1057,975
2693,1052,975
2694,1046,977
2695,1037,985
2696,1031,990
2697,1027,1000
2698,1024,1010
2699,1020,1018
2700,1018,1017
2701,1013,1020
2702,1008,1024
2703,1003,1029
2704,1004,1032
2705,998,1039
2706,992,1041
2707,987,1043
2708,985,1047
2709,983,1049
2710,986,1050
2711,985,1050
2712,979,1046
2713,973,1045
2714,971,1050
2715,971,1055
2716,974,1057
2717,974,1054
2718,972,1054
2719,969,1052
2720,966,1052
2721,970,1055
2722,972,1056
2723,970,1059
2724,970,1058
2725,967,1056
2726,963,1054
2727,968,1056
2728,968,1057
2729,971,1055
2730,968,1052
2731,965,1052
2732,963,1055
2733,967,1062
2734,968,1064
2735,969,1058
2736,968,1054
2737,966,1051
2738,968,1050
2739,969,1054
2740,966,1055
2741,964,1056
2742,965,1055
2743,964,1054
2744,964,1049
2745,971,1050
2746,973,1047
2747,973,1049
2748,970,1043
2749,967,1045
2750,965,1050
2751,965,1052
2752,968,1054
2753,969,1050
2754,968,1046
2755,963,1044
2756,966,1046
2757,966,1048
2758,964,1056
2759,964,1056
2760,962,1054
2761,960,1054
2762,959,1056
2763,965,1060
2764,969,1062
2765,973,1057
2766,974,1055
2767,973,1058
2768,977,1063
2769,982,1066
2770,986,1065
2771,989,1054
2772,990,1048
2773,992,1042
2774,994,1041
2775,1001,1039
2776,1006,1046
2777,1008,1046
2778,1011,1048
2779,1009,1044
2780,1010,1044
2781,1010,1047
2782,1009,1051
2783,1009,1046
2784,1002,1045
2785,992,1043
2786,986,1048
2787,978,1052
2788,972,1052
2789,966,1048
2790,959,1043
2791,952,1036
2792,949,1039
2793,943,1044
2794,946,1047
2795,943,1046
2796,938,1046
2797,935,1043
2798,934,1038
2799,935,1038
2800,935,1042
2801,934,1042
2802,930,1040
2803,925,1039
2804,924,1043
2805,924,1043
2806,929,1046
2807,928,1039
2808,927,1037
2809,923,1032
2810,923,1034
2811,922,1041
2812,927,1044
2813,925,1043
2814,925,1044
2815,925,1045
2816,930,1044
2817,934,1039
2818,943,1029
2819,949,1016
2820,965,1009
2821,985,1012
2822,1018,1022
2823,1065,1031
2824,1113,1054
2825,1159,1086
2826,1196,1120
2827,1218,1151
2828,1210,1179
2829,1157,1197
2830,1078,1203
2831,984,1195
2832,901,1190
2833,855,1189
2834,851,1205
2835,864,1223
2836,867,1242
2837,858,1254
2838,847,1262
2839,835,1272
2840,828,1281
2841,825,1292
2842,823,1305
2843,825,1315
2844,826,1322
2845,821,1325
2846,816,1325
2847,812,1310
2848,812,1289
2849,812,1255
2850,814,1218
2851,817,1179
2852,830,1144
2853,839,1115
2854,847,1087
2855,856,1069
2856,865,1057
2857,874,1048
2858,887,1039
2859,896,1034
2860,903,1030
2861,909,1025
2862,909,1016
2863,909,1013
2864,907,1012
2865,911,1014
2866,917,1012
2867,920,1009
2868,921,1000
2869,921,996
2870,920,992
2871,922,995
2872,922,995
2873,921,995
2874,926,991
2875,924,990
2876,927,989
2877,931,988
2878,932,986
2879,932,984
2880,930,976
2881,929,975
2882,928,972
2883,931,973
2884,932,973
2885,939,965
2886,939,961
2887,935,953
2888,938,951
2889,940,947
2890,944,948
2891,946,947
2892,947,937
2893,948,931
2894,950,926
2895,955,924
2896,960,921
2897,965,919
2898,965,911
2899,964,908
2900,964,909
2901,967,912
2902,973,912
2903,979,911
2904,978,903
2905,980,903
2906,981,905
2907,984,911
2908,987,919
2909,990,923
2910,989,925
2911,984,928
2912,982,934
2913,983,940
2914,981,946
2915,978,949
2916,969,958
2917,963,958
2918,956,971
2919,952,978
2920,952,990
2921,951,990
2922,940,990
2923,933,995
2924,929,998
2925,928,1006
2926,926,1017
2927,922,1021
2928,919,1022
2929,913,1024
2930,909,1027
2931,910,1027
2932,909,1033
2933,908,1031
2934,901,1029
2935,893,1032
2936,891,1033
2937,891,1042
2938,896,1046
2939,897,1043
2940,895,1035
2941,891,1035
2942,887,1038
2943,889,1044
2944,889,1047
2945,890,1046
2946,887,1044
2947,883,1042
2948,884,1038
2949,889,1040
2950,893,1041
2951,892,1043
2952,889,1039
2953,888,1038
2954,887,1042
2955,890,1046
2956,895,1046
2957,896,1039
2958,894,1033
2959,891,1034
2960,892,1036
2961,897,1041
2962,898,1043
2963,897,1043
2964,896,1042
2965,894,1036
2966,896,1038
2967,899,1039
2968,905,1040
2969,903,1039
2970,899,1033
2971,899,1034
2972,895,1039
2973,897,1042
2974,903,1045
2975,904,1041
2976,904,1036
2977,901,1032
2978,899,1037
2979,902,1041
2980,904,1046
2981,905,1043
2982,902,1047
2983,901,1044
2984,902,1044
2985,907,1046
2986,915,1048
2987,918,1045
2988,916,1048
2989,916,1045
2990,914,1046
2991,922,1048
2992,929,1046
2993,931,1039
2994,933,1031
2995,937,1024
2996,941,1025
2997,946,1032
2998,950,1033
2999,950,1036
3000,949,1035
3001,948,1032
3002,948,1036
3003,951,1035
3004,954,1036
3005,950,1032
3006,945,1032
3007,938,1037
3008,933,1036
3009,923,1041
3010,918,1042
3011,913,1037
3012,909,1032
3013,906,1026
3014,902,1025
3015,898,1030
3016,898,1032
3017,896,1034
3018,894,1034
3019,893,1033
3020,894,1035
3021,896,1036
3022,897,1034
3023,896,1029
3024,891,1027
3025,888,1029
3026,886,1034
3027,889,1038
3028,891,1039
3029,891,1036
3030,891,1028
3031,891,1028
3032,895,1031
3033,895,1033
3034,898,1034
3035,894,1037
3036,896,1036
3037,896,1037
3038,900,1041
3039,903,1040
3040,911,1030
3041,915,1020
3042,927,1008
3043,944,1007
3044,969,1011
3045,1008,1021
3046,1059,1039
3047,1110,1061
3048,1156,1084
3049,1191,1109
3050,1207,1135
3051,1189,1165
3052,1136,1181
3053,1052,1179
3054,963,1174
3055,889,1169
3056,848,1174
3057,847,1187
3058,855,1199
3059,858,1209
3060,850,1217
3061,839,1225
3062,833,1241
3063,828,1254
3064,825,1262
3065,820,1268
3066,820,1275
3067,820,1283
3068,823,1295
3069,824,1305
3070,823,1311
3071,819,1304
3072,812,1288
3073,807,1259
3074,809,1233
3075,819,1204
3076,832,1171
3077,839,1134
3078,845,1102
3079,853,1073
3080,859,1057
3081,874,1049
3082,888,1044
3083,901,1034
3084,911,1028
3085,918,1020
3086,923,1015
3087,927,1011
3088,932,1010
3089,933,1006
3090,931,1003
3091,932,1000
3092,935,1002
3093,939,1003
3094,946,1000
3095,948,995
3096,945,988
3097,946,983
3098,946,986
3099,947,986
3100,950,988
3101,951,987
3102,955,981
3103,955,978
3104,958,974
3105,960,973
3106,964,972
3107,966,969
3108,967,965
3109,966,961
3110,965,964
3111,968,963
3112,974,962
3113,977,953
3114,978,947
3115,979,939
3116,982,938
3117,986,936
3118,989,938
3119,992,932
3120,991,925
3121,995,922
3122,996,920
3123,1005,918
3124,1012,916
3125,1017,908
3126,1017,901
3127,1016,900
3128,1017,902
3129,1024,905
3130,1028,907
3131,1034,908
3132,1035,905
3133,1036,896
3134,1037,897
3135,1042,904
3136,1046,909
3137,1046,911
3138,1044,917
3139,1038,919
3140,1039,926
3141,1041,934
3142,1043,938
3143,1039,940
3144,1032,945
3145,1023,950
3146,1020,961
3147,1018,969
3148,1016,980
3149,1011,982
3150,1007,982
3151,1001,987
3152,998,993
3153,995,1000
3154,993,1008
3155,989,1010
3156,983,1011
3157,977,1017
3158,974,1022
3159,970,1024
3160,976,1030
3161,972,1029
3162,970,1027
3163,963,1030
3164,958,1031
3165,958,1037
3166,956,1041
3167,957,1039
3168,957,1038
3169,956,1035
3170,954,1035
3171,956,1037
3172,956,1040
3173,956,1041
3174,950,1036
3175,947,1038
3176,950,1043
3177,957,1045
3178,960,1047
3179,961,1042
3180,959,1037
3181,957,1036
3182,956,1039
3183,961,1042
3184,964,1045
3185,966,1044
3186,966,1042
3187,963,1040
3188,965,1039
3189,967,1040
3190,972,1042
3191,971,1042
3192,968,1038
3193,965,1037
3194,966,1041
3195,967,1041
3196,974,1044
3197,974,1045
3198,974,1036
3199,972,1035
3200,972,1033
3201,973,1035
3202,978,1040
3203,978,1040
3204,977,1038
3205,971,1036
3206,970,1038
3207,971,1042
3208,979,1045
3209,982,1038
3210,983,1036
3211,979,1031
3212,975,1032
3213,977,1037
3214,980,1045
3215,979,1047
3216,980,1044
3217,980,1045
3218,983,1048
3219,987,1043
3220,997,1047
3221,999,1045
3222,999,1041
3223,1002,1042
3224,998,1045
3225,1004,1044
3226,1010,1046
3227,1018,1040
3228,1020,1033
3229,1024,1028
3230,1026,1026
3231,1031,1027
3232,1037,1034
3233,1038,1033
3234,1035,1035
3235,1035,1034
3236,1035,1033
3237,1036,1041
3238,1038,1041
3239,1038,1037
3240,1033,1035
3241,1027,1031
3242,1017,1036
3243,1011,1042
3244,1004,1043
3245,998,1042
3246,996,1037
3247,991,1032
3248,987,1033
3249,986,1036
3250,986,1039
3251,982,1041
3252,981,1041
3253,976,1035
3254,974,1036
3255,975,1036
3256,976,1037
3257,980,1037
3258,972,1035
3259,971,1034
3260,967,1035
3261,970,1042
3262,974,1044
3263,977,1041
3264,979,1034
3265,976,1031
3266,975,1037
3267,978,1040
3268,981,1046
3269,981,1047
3270,983,1050
3271,985,1045
3272,993,1040
3273,1002,1030
3274,1023,1021
3275,1048,1020
3276,1084,1023
3277,1129,1034
3278,1186,1059
3279,1241,1102
3280,1286,1142
3281,1300,1174
3282,1277,1194
3283,1207,1203
3284,1107,1205
3285,1014,1205
3286,945,1209
3287,915,1216
3288,912,1226
3289,917,1232
3290,922,1248
3291,921,1261
3292,914,1275
3293,907,1284
3294,898,1290
3295,895,1299
3296,888,1310
3297,894,1322
3298,900,1331
3299,899,1334
3300,897,1327
3301,894,1319
3302,889,1299
3303,888,1278
3304,891,1250
3305,901,1216
3306,908,1177
3307,912,1140
3308,924,1108
3309,934,1083
3310,951,1069
3311,958,1059
3312,969,1045
3313,978,1041
3314,987,1036
3315,996,1033
3316,1006,1028
3317,1010,1022
3318,1011,1009
3319,1011,1005
3320,1011,1004
3321,1013,1009
3322,1014,1009
3323,1015,1007
3324,1018,1000
3325,1020,996
3326,1020,994
3327,1025,994
3328,1029,995
3329,1028,988
3330,1026,986
3331,1024,985
3332,1025,985
3333,1024,988
3334,1030,988
3335,1036,985
3336,1036,980
3337,1034,972
3338,1033,971
3339,1037,971
3340,1040,970
3341,1042,969
3342,1041,963
3343,1041,959
3344,1043,955
3345,1049,957
3346,1054,951
3347,1056,947
3348,1057,937
3349,1056,934
3350,1056,930
3351,1062,929
3352,1068,931
3353,1075,923
3354,1076,916
3355,1078,906
3356,1082,906
3357,1084,907
3358,1088,905
3359,1091,904
3360,1090,901
3361,1091,900
3362,1096,903
3363,1100,906
3364,1106,909
3365,1105,906
3366,1107,905
3367,1104,906
3368,1104,910
3369,1105,916
3370,1105,928
3371,1105,930
3372,1102,934
3373,1097,934
3374,1095,939
3375,1090,946
3376,1094,953
3377,1089,957
3378,1084,959
3379,1074,968
3380,1069,976
3381,1067,986
3382,1063,997
3383,1057,999
3384,1055,998
3385,1044,1002
3386,1043,1004
3387,1043,1014
3388,1041,1021
3389,1037,1025
3390,1031,1026
3391,1025,1028
3392,1020,1031
3393,1018,1037
3394,1023,1041
3395,1021,1041
3396,1018,1037
3397,1014,1035
3398,1011,1038
3399,1012,1041
3400,1013,1046
3401,1006,1045
3402,1005,1044
3403,999,1045
3404,997,1045
3405,998,1051
3406,1003,1053
3407,1003,1049
3408,1001,1046
3409,992,1042
3410,994,1043
3411,994,1048
3412,997,1051
3413,996,1050
3414,994,1049
3415,991,1048
3416,990,1051
3417,993,1056
3418,997,1055
3419,997,1056
3420,995,1048
3421,994,1047
3422,995,1049
3423,994,1049
3424,996,1053
3425,995,1052
3426,994,1051
3427,991,1049
3428,993,1053
3429,992,1056
3430,995,1060
3431,999,1055
3432,996,1051
3433,993,1046
3434,995,1047
3435,996,1051
3436,1000,1052
3437,1000,1055
3438,995,1053
3439,995,1051
3440,995,1053
3441,1000,1055
3442,1003,1054
3443,1003,1049
3444,1001,1048
3445,998,1048
3446,995,1045
3447,1000,1045
3448,999,1053
3449,998,1052
3450,995,1051
3451,995,1049
3452,998,1049
3453,1001,1054
3454,1005,1051
3455,1006,1050
3456,1002,1044
3457,1000,1043
3458,997,1044
3459,996,1050
3460,997,1054
3461,998,1053
3462,999,1054
3463,995,1049
3464,997,1051
3465,999,1051
3466,1001,1054
3467,1003,1052
3468,999,1049
3469,997,1049
3470,994,1056
3471,996,1062
3472,999,1065
3473,1000,1062
3474,1002,1062
3475,1005,1060
3476,1008,1062
3477,1014,1062
3478,1018,1062
3479,1017,1056
3480,1018,1054
3481,1018,1050
3482,1018,1051
3483,1022,1055
3484,1027,1058
3485,1030,1054
3486,1033,1047
3487,1032,1041
3488,1038,1037
3489,1044,1041
3490,1051,1043
3491,1048,1039
3492,1048,1036
3493,1045,1039
3494,1045,1042
3495,1044,1049
3496,1048,1055
3497,1049,1054
3498,1047,1050
3499,1042,1048
3500,1034,1043
3501,1031,1045
3502,1028,1048
3503,1021,1044
3504,1007,1044
3505,1000,1043
3506,994,1045
3507,994,1047
3508,996,1049
3509,993,1045
3510,991,1041
3511,989,1038
3512,983,1039
3513,985,1041
3514,984,1044
3515,980,1046
3516,977,1045
3517,974,1044
3518,978,1044
3519,978,1046
3520,982,1049
3521,980,1046
3522,978,1044
3523,972,1038
3524,972,1043
3525,973,1047
3526,972,1051
3527,971,1055
3528,972,1047
3529,972,1047
3530,972,1047
3531,979,1051
3532,980,1054
3533,982,1049
3534,980,1050
3535,976,1052
3536,976,1063
3537,983,1068
3538,991,1062
3539,997,1046
3540,1011,1028
3541,1029,1020
3542,1051,1023
3543,1089,1027
3544,1134,1037
3545,1177,1057
3546,1222,1088
3547,1264,1127
3548,1297,1166
3549,1308,1198
3550,1297,1221
3551,1253,1228
3552,1175,1224
3553,1091,1216
3554,1011,1216
3555,950,1219
3556,918,1226
3557,911,1238
3558,918,1247
3559,925,1259
3560,925,1271
3561,924,1282
3562,921,1291
3563,916,1297
3564,909,1305
3565,898,1314
3566,891,1324
3567,890,1341
3568,894,1356
3569,896,1362
3570,897,1364
3571,894,1356
3572,893,1339
3573,891,1313
3574,889,1283
3575,890,1247
3576,896,1206
3577,903,1166
3578,914,1128
3579,930,1097
3580,943,1074
3581,956,1058
3582,969,1050
3583,981,1041
3584,988,1037
3585,994,1037
3586,996,1036
3587,1004,1031
3588,1004,1020
3589,1007,1014
3590,1004,1010
3591,1007,1009
3592,1014,1013
3593,1015,1012
3594,1010,1010
3595,1010,1004
3596,1010,1005
3597,1014,1001
3598,1021,1002
3599,1024,995
3600,1022,993
3601,1018,988
3602,1016,989
3603,1018,995
3604,1024,993
3605,1025,987
3606,1028,979
3607,1027,972
3608,1029,969
3609,1030,971
3610,1033,975
3611,1035,971
3612,1035,964
3613,1039,954
3614,1041,953
3615,1047,950
3616,1053,949
3617,1053,941
3618,1051,935
3619,1052,927
3620,1052,929
3621,1058,930
3622,1065,930
3623,1066,924
3624,1069,916
3625,1069,909
3626,1069,906
3627,1072,910
3628,1078,913
3629,1080,911
3630,1080,911
3631,1082,908
3632,1083,913
3633,1083,917
3634,1088,917
3635,1090,920
3636,1093,921
3637,1089,925
3638,1086,932
3639,1086,940
3640,1085,954
3641,1083,957
3642,1075,960
3643,1070,964
3644,1059,972
3645,1061,982
3646,1054,993
3647,1048,1001
3648,1042,1009
3649,1031,1013
3650,1029,1016
3651,1028,1022
3652,1025,1029
3653,1020,1035
3654,1010,1035
3655,1005,1041
3656,999,1044
3657,1003,1048
3658,1004,1047
3659,1001,1046
3660,997,1044
3661,993,1042
3662,992,1048
3663,989,1049
3664,989,1055
3665,990,1058
3666,988,1057
3667,986,1054
3668,985,1055
3669,988,1053
3670,987,1057
3671,987,1053
3672,984,1051
3673,979,1050
3674,977,1055
3675,979,1060
3676,982,1062
3677,982,1060
3678,984,1057
3679,980,1051
3680,984,1051
3681,986,1053
3682,986,1056
3683,985,1060
3684,984,1057
3685,983,1055
3686,985,1057
3687,985,1059
3688,992,1059
3689,994,1057
3690,988,1059
3691,983,1057
3692,980,1061
3693,984,1062
3694,989,1064
3695,991,1058
3696,991,1054
3697,987,1050
3698,984,1053
3699,985,1060
3700,987,1064
3701,989,1065
3702,986,1062
3703,984,1060
3704,984,1056
3705,986,1059
3706,988,1062
3707,986,1059
3708,982,1056
3709,977,1057
3710,975,1060
3711,978,1062
3712,979,1063
3713,982,1060
3714,980,1056
3715,977,1057
3716,976,1055
3717,975,1062
3718,976,1067
3719,975,1068
3720,974,1067
3721,975,1067
3722,975,1067
3723,977,1070
3724,986,1072
3725,992,1072
3726,992,1069
3727,992,1072
3728,994,1076
3729,996,1077
3730,998,1074
3731,1004,1067
3732,1005,1061
3733,1008,1054
3734,1013,1053
3735,1020,1052
3736,1024,1051
3737,1029,1053
3738,1029,1054
3739,1026,1051
3740,1028,1055
3741,1029,1054
3742,1030,1056
3743,1025,1058
3744,1022,1054
3745,1014,1053
3746,1006,1053
3747,996,1058
3748,986,1061
3749,984,1055
3750,979,1049
3751,972,1044
3752,968,1043
3753,968,1048
3754,965,1052
3755,964,1054
3756,960,1052
3757,956,1053
3758,955,1050
3759,956,1050
3760,958,1051
3761,955,1050
3762,952,1049
3763,949,1052
3764,947,1057
3765,947,1060
3766,949,1063
3767,951,1058
3768,951,1055
3769,947,1051
3770,947,1052
3771,949,1054
3772,951,1058
3773,948,1058
3774,946,1060
3775,945,1061
3776,946,1059
3777,947,1066
3778,956,1070
3779,961,1065
3780,959,1051
3781,964,1039
3782,975,1033
3783,995,1032
3784,1028,1037
3785,1071,1044
3786,1120,1054
3787,1174,1080
3788,1224,1118
3789,1265,1160
3790,1279,1192
3791,1245,1213
3792,1165,1220
3793,1056,1213
3794,962,1211
3795,899,1213
3796,882,1222
3797,892,1233
3798,903,1244
3799,901,1255
3800,892,1271
3801,884,1286
3802,876,1298
3803,873,1305
3804,864,1308
3805,859,1314
3806,858,1324
3807,861,1337
3808,868,1346
3809,864,1351
3810,861,1347
3811,852,1339
3812,850,1321
3813,851,1299
3814,855,1267
3815,866,1230
3816,873,1191
3817,878,1147
3818,886,1115
3819,897,1091
3820,910,1076
3821,920,1067
3822,933,1054
3823,944,1049
3824,951,1044
3825,958,1036
3826,964,1030
3827,965,1023
3828,966,1020
3829,967,1017
3830,966,1020
3831,970,1023
3832,974,1021
3833,976,1016
3834,972,1007
3835,975,1004
3836,974,1002
3837,974,1004
3838,979,1004
3839,979,1002
3840,978,999
3841,973,994
3842,974,994
3843,981,994
3844,988,995
3845,992,989
3846,990,986
3847,989,978
3848,988,980
3849,991,981
3850,995,986
3851,998,983
3852,997,975
3853,993,967
3854,999,965
3855,1002,961
3856,1007,960
3857,1009,957
3858,1004,947
3859,1005,944
3860,1007,942
3861,1014,943
3862,1017,942
3863,1022,937
3864,1025,926
3865,1023,919
3866,1026,916
3867,1031,923
3868,1036,927
3869,1042,922
3870,1042,921
3871,1041,913
3872,1046,916
3873,1051,915
3874,1056,920
3875,1057,922
3876,1056,922
3877,1052,926
3878,1051,932
3879,1051,939
3880,1054,949
3881,1053,948
3882,1049,950
3883,1042,952
3884,1038,961
3885,1034,972
3886,1033,981
3887,1027,986
3888,1021,993
3889,1013,995
3890,1010,999
3891,1008,1006
3892,1006,1013
3893,1002,1017
3894,998,1020
3895,987,1025
3896,981,1031
3897,975,1039
3898,977,1042
3899,977,1041
3900,974,1039
3901,969,1039
3902,964,1041
3903,961,1044
3904,961,1051
3905,959,1053
3906,957,1053
3907,951,1053
3908,950,1051
3909,951,1056
3910,952,1057
3911,950,1055
3912,948,1051
3913,942,1049
3914,939,1048
3915,940,1055
3916,942,1060
3917,943,1062
3918,942,1059
3919,942,1052
3920,941,1055
3921,940,1055
3922,947,1057
3923,946,1058
3924,945,1055
3925,942,1052
3926,942,1053
3927,944,1054
3928,948,1055
3929,946,1053
3930,947,1049
3931,942,1046
3932,941,1047
3933,944,1051
3934,947,1056
3935,950,1053
3936,954,1050
3937,951,1046
3938,950,1048
3939,953,1050
3940,951,1050
3941,955,1050
3942,950,1051
3943,946,1049
3944,945,1050
3945,948,1054
3946,953,1060
3947,955,1055
3948,955,1050
3949,952,1048
3950,948,1045
3951,949,1048
3952,948,1053
3953,948,1053
3954,947,1051
3955,947,1051
3956,948,1056
3957,946,1058
3958,951,1055
3959,952,1053
3960,949,1052
3961,948,1053
3962,947,1058
3963,949,1064
3964,949,1069
3965,953,1068
3966,957,1063
3967,962,1062
3968,966,1063
3969,968,1059
3970,970,1059
3971,973,1061
3972,975,1059
3973,975,1056
3974,980,1052
3975,988,1050
3976,996,1050
3977,1000,1047
3978,1001,1044
3979,998,1045
3980,997,1050
3981,995,1054
3982,995,1057
3983,990,1061
3984,991,1054
3985,989,1050
3986,985,1048
3987,975,1050
3988,966,1053
3989,959,1053
3990,951,1050
3991,945,1049
3992,941,1051
3993,946,1053
3994,946,1050
3995,945,1047
3996,944,1043
3997,940,1039
3998,936,1043
3999,934,1046
4000,930,1050
4001,931,1049
4002,930,1048
4003,928,1050
4004,928,1045
4005,932,1045
4006,934,1047
4007,931,1048
4008,927,1048
4009,925,1047
4010,924,1050
4011,929,1052
4012,934,1056
4013,936,1051
4014,935,1047
4015,932,1042
4016,934,1045
4017,934,1051
4018,939,1063
4019,943,1061
4020,945,1053
4021,950,1040
4022,959,1031
4023,977,1025
4024,1001,1026
4025,1037,1029
4026,1076,1034
4027,1121,1047
4028,1170,1076
4029,1217,1114
4030,1248,1141
4031,1254,1173
4032,1214,1190
4033,1142,1192
4034,1048,1186
4035,963,1183
4036,903,1187
4037,880,1199
4038,881,1209
4039,892,1223
4040,892,1237
4041,887,1245
4042,880,1254
4043,872,1262
4044,865,1266
4045,859,1271
4046,850,1283
4047,854,1298
4048,858,1313
4049,861,1322
4050,858,1330
4051,855,1329
4052,853,1322
4053,853,1313
4054,857,1296
4055,854,1273
4056,855,1243
4057,857,1213
4058,865,1181
4059,877,1154
4060,892,1124
4061,902,1096
4062,910,1072
4063,921,1058
4064,933,1049
4065,945,1046
4066,957,1048
4067,962,1042
4068,965,1034
4069,967,1031
4070,969,1030
4071,975,1026
4072,981,1025
4073,984,1019
4074,986,1009
4075,981,1013
4076,983,1012
4077,986,1015
4078,989,1016
4079,994,1013
4080,993,1006
4081,993,1002
4082,989,997
4083,996,997
4084,1000,1000
4085,1000,1000
4086,1000,995
4087,1001,994
4088,1003,995
4089,1006,992
4090,1011,992
4091,1016,986
4092,1015,981
4093,1012,972
4094,1012,970
4095,1017,975
4096,1023,973
4097,1026,971
4098,1028,968
4099,1029,960
4100,1032,954
4101,1035,951
4102,1040,949
4103,1043,946
4104,1043,937
4105,1042,932
4106,1047,934
4107,1051,934
4108,1060,932
4109,1064,931
4110,1068,923
4111,1068,918
4112,1066,916
4113,1069,918
4114,1074,926
4115,1075,922
4116,1074,923
4117,1075,926
4118,1081,928
4119,1084,933
4120,1088,936
4121,1088,939
4122,1085,944
4123,1080,944
4124,1076,952
4125,1071,962
4126,1070,970
4127,1071,980
4128,1067,978
4129,1060,981
4130,1055,986
4131,1053,997
4132,1051,1007
4133,1044,1012
4134,1038,1016
4135,1031,1018
4136,1026,1029
4137,1026,1034
4138,1026,1042
4139,1022,1042
4140,1021,1042
4141,1011,1042
4142,1007,1050
4143,1005,1054
4144,1005,1060
4145,1004,1058
4146,1002,1060
4147,998,1053
4148,995,1058
4149,994,1060
4150,996,1063
4151,996,1063
4152,994,1063
4153,991,1064
4154,990,1067
4155,992,1069
4156,996,1070
4157,997,1068
4158,994,1063
4159,995,1063
4160,989,1060
4161,992,1066
4162,992,1069
4163,994,1068
4164,990,1066
4165,990,1067
4166,993,1062
4167,996,1063
4168,1000,1064
4169,1001,1062
4170,995,1060
4171,992,1063
4172,994,1062
4173,998,1067
4174,1001,1068
4175,1005,1066
4176,1002,1061
4177,1001,1055
4178,1002,1057
4179,1000,1060
4180,1004,1065
4181,1005,1066
4182,1005,1065
4183,1007,1061
4184,1007,1061
4185,1010,1064
4186,1013,1061
4187,1014,1064
4188,1010,1059
4189,1007,1060
4190,1003,1064
4191,1007,1069
4192,1010,1071
4193,1009,1069
4194,1012,1062
4195,1011,1060
4196,1011,1060
4197,1009,1064
4198,1013,1067
4199,1013,1069
4200,1009,1066
4201,1007,1065
4202,1005,1065
4203,1010,1070
4204,1012,1071
4205,1015,1066
4206,1014,1064
4207,1008,1064
4208,1009,1069
4209,1012,1073
4210,1016,1080
4211,1017,1082
4212,1018,1080
4213,1021,1078
4214,1027,1075
4215,1030,1078
4216,1036,1081
4217,1040,1078
4218,1039,1070
4219,1038,1067
4220,1039,1069
4221,1045,1072
4222,1057,1070
4223,1061,1062
4224,1063,1059
4225,1063,1056
4226,1064,1061
4227,1066,1063
4228,1067,1071
4229,1066,1072
4230,1064,1070
4231,1058,1066
4232,1055,1065
4233,1054,1068
4234,1049,1066
4235,1041,1065
4236,1030,1060
4237,1024,1057
4238,1017,1062
4239,1016,1065
4240,1015,1070
4241,1017,1067
4242,1012,1060
4243,1008,1057
4244,1005,1058
4245,1008,1061
4246,1004,1062
4247,1003,1063
4248,999,1060
4249,992,1061
4250,992,1063
4251,994,1065
4252,999,1064
4253,999,1062
4254,1000,1055
4255,994,1056
4256,992,1059
4257,992,1067
4258,1000,1071
4259,999,1070
4260,1000,1065
4261,998,1064
4262,998,1063
4263,1002,1066
4264,1006,1066
4265,1008,1068
4266,1004,1073
4267,1003,1075
4268,1004,1074
4269,1015,1069
4270,1028,1060
4271,1043,1053
4272,1064,1042
4273,1090,1040
4274,1127,1047
4275,1174,1057
4276,1223,1085
4277,1268,1124
4278,1303,1158
4279,1320,1188
4280,1308,1215
4281,1270,1237
4282,1201,1240
4283,1112,1231
4284,1028,1229
4285,964,1229
4286,930,1236
4287,928,1250
4288,938,1267
4289,943,1278
4290,943,1287
4291,933,1291
4292,925,1300
4293,920,1315
4294,917,1324
4295,908,1336
4296,905,1349
4297,907,1359
4298,907,1366
4299,907,1373
4300,911,1365
4301,911,1346
4302,910,1313
4303,905,1283
4304,909,1249
4305,918,1218
4306,928,1183
4307,939,1148
4308,946,1116
4309,957,1092
4310,965,1080
4311,979,1071
4312,994,1064
4313,1003,1060
4314,1007,1051
4315,1010,1046
4316,1011,1044
4317,1018,1039
4318,1023,1038
4319,1028,1033
4320,1029,1028
4321,1029,1023
4322,1028,1019
4323,1029,1020
4324,1031,1023
4325,1034,1021
4326,1035,1019
4327,1035,1014
4328,1035,1013
4329,1040,1008
4330,1042,1008
4331,1043,1008
4332,1043,1004
4333,1039,1003
4334,1035,1000
4335,1042,1001
4336,1045,1002
4337,1050,999
4338,1053,991
4339,1052,984
4340,1053,981
4341,1055,983
4342,1058,983
4343,1059,983
4344,1060,976
4345,1061,970
4346,1063,967
4347,1069,961
4348,1072,958
4349,1077,951
4350,1075,946
4351,1075,939
4352,1075,940
4353,1081,940
4354,1086,942
4355,1091,935
4356,1095,931
4357,1095,924
4358,1097,922
4359,1101,922
4360,1107,925
4361,1109,927
4362,1108,928
4363,1108,927
4364,1110,930
4365,1112,933
4366,1115,939
4367,1116,944
4368,1112,946
4369,1106,949
4370,1100,957
4371,1098,968
4372,1098,975
4373,1096,979
4374,1092,984
4375,1085,988
4376,1079,994
4377,1071,1004
4378,1067,1016
4379,1060,1024
4380,1053,1029
4381,1046,1032
4382,1042,1036
4383,1038,1041
4384,1039,1048
4385,1032,1050
4386,1026,1049
4387,1020,1054
4388,1016,1056
4389,1016,1062
4390,1018,1065
4391,1018,1062
4392,1013,1060
4393,1009,1055
4394,1006,1056
4395,1005,1067
4396,1002,1068
4397,1004,1068
4398,1003,1066
4399,1001,1064
4400,1002,1063
4401,1001,1063
4402,1004,1070
4403,1005,1067
4404,1001,1066
4405,995,1062
4406,993,1067
4407,999,1068
4408,1001,1070
4409,1004,1065
4410,1005,1063
4411,1002,1058
4412,1000,1061
4413,1002,1067
4414,1001,1074
4415,1003,1070
4416,1004,1066
4417,999,1060
4418,1000,1063
4419,1004,1064
4420,1005,1068
4421,1005,1068
4422,1001,1066
4423,1000,1066
4424,1003,1063
4425,1006,1065
4426,1009,1064
4427,1008,1063
4428,1008,1061
4429,1002,1058
4430,1001,1062
4431,1004,1064
4432,1005,1068
4433,1006,1068
4434,1007,1064
4435,1005,1061
4436,1004,1063
4437,1006,1060
4438,1007,1063
4439,1005,1067
4440,1000,1065
4441,1000,1063
4442,1001,1066
4443,1002,1069
4444,1005,1067
4445,1004,1062
4446,1003,1064
4447,998,1062
4448,996,1065
4449,999,1073
4450,1002,1076
4451,1008,1074
4452,1006,1075
4453,1007,1072
4454,1008,1073
4455,1011,1079
4456,1018,1082
4457,1022,1086
4458,1024,1081
4459,1022,1075
4460,1027,1075
4461,1031,1076
4462,1037,1072
4463,1042,1064
4464,1042,1061
4465,1044,1059
4466,1048,1059
4467,1049,1069
4468,1056,1070
4469,1059,1067
4470,1056,1064
4471,1051,1062
4472,1047,1061
4473,1045,1067
4474,1041,1070
4475,1036,1073
4476,1024,1070
4477,1015,1065
4478,1008,1061
4479,1006,1061
4480,1006,1064
4481,1004,1065
4482,995,1061
4483,989,1061
4484,986,1062
4485,987,1064
4486,988,1064
4487,989,1064
4488,986,1058
4489,984,1056
4490,980,1055
4491,980,1062
4492,980,1068
4493,981,1065
4494,976,1064
4495,978,1062
4496,976,1061
4497,979,1060
4498,981,1065
4499,984,1065
4500,978,1062
4501,979,1063
4502,978,1067
4503,982,1070
4504,988,1074
4505,990,1079
4506,991,1069
4507,991,1062
4508,996,1049
4509,1010,1039
4510,1033,1043
4511,1064,1048
4512,1107,1050
4513,1155,1064
4514,1205,1095
4515,1259,1139
4516,1299,1183
4517,1302,1218
4518,1253,1234
4519,1155,1234
4520,1046,1229
4521,960,1228
4522,917,1236
4523,916,1248
4524,927,1262
4525,927,1275
4526,920,1290
4527,910,1306
4528,903,1321
4529,900,1327
4530,888,1334
4531,889,1342
4532,892,1355
4533,894,1365
4534,897,1371
4535,891,1365
4536,882,1344
4537,880,1318
4538,882,1287
4539,890,1250
4540,902,1212
4541,914,1171
4542,920,1132
4543,927,1104
4544,937,1089
4545,952,1086
4546,968,1079
4547,982,1072
4548,990,1060
4549,992,1051
4550,992,1047
4551,995,1047
4552,1001,1046
4553,1001,1043
4554,1001,1038
4555,998,1034
4556,1002,1034
4557,1009,1034
4558,1012,1033
4559,1013,1028
4560,1011,1018
4561,1010,1014
4562,1010,1017
4563,1013,1021
4564,1015,1025
4565,1020,1020
4566,1021,1013
4567,1018,1007
4568,1022,1003
4569,1024,1002
4570,1026,1003
4571,1027,1001
4572,1027,998
4573,1026,996
4574,1028,991
4575,1032,990
4576,1036,985
4577,1040,978
4578,1042,970
4579,1041,969
4580,1040,970
4581,1041,968
4582,1049,969
4583,1050,965
4584,1050,957
4585,1053,949
4586,1056,946
4587,1062,942
4588,1069,941
4589,1069,938
4590,1068,935
4591,1067,933
4592,1070,932
4593,1075,929
4594,1082,931
4595,1086,929
4596,1088,927
4597,1087,930
4598,1085,937
4599,1083,947
4600,1087,954
4601,1086,956
4602,1084,959
4603,1081,961
4604,1075,968
4605,1069,981
4606,1067,992
4607,1062,999
4608,1056,1004
4609,1049,1007
4610,1044,1011
4611,1041,1019
4612,1038,1026
4613,1036,1031
4614,1028,1039
4615,1023,1042
4616,1012,1047
4617,1016,1051
4618,1015,1056
4619,1012,1056
4620,1008,1054
4621,1004,1055
4622,998,1055
4623,996,1063
4624,996,1068
4625,992,1069
4626,988,1068
4627,986,1065
4628,985,1066
4629,986,1068
4630,988,1071
4631,989,1069
4632,983,1068
4633,980,1069
4634,978,1069
4635,977,1072
4636,982,1075
4637,980,1070
4638,983,1067
4639,981,1061
4640,979,1062
4641,979,1066
4642,979,1070
4643,983,1073
4644,980,1068
4645,979,1065
4646,980,1065
4647,986,1065
4648,987,1071
4649,987,1067
4650,984,1067
4651,977,1065
4652,977,1066
4653,981,1067
4654,986,1069
4655,988,1064
4656,988,1061
4657,984,1057
4658,982,1058
4659,981,1066
4660,984,1068
4661,984,1075
4662,984,1065
4663,982,1063
4664,979,1060
4665,982,1060
4666,984,1064
4667,984,1062
4668,980,1061
4669,975,1063
4670,976,1067
4671,977,1067
4672,981,1065
4673,983,1066
4674,979,1060
4675,977,1057
4676,973,1059
4677,973,1065
4678,973,1071
4679,977,1070
4680,974,1066
4681,971,1063
4682,975,1061
4683,977,1062
4684,975,1061
4685,976,1067
4686,971,1066
4687,971,1070
4688,969,1078
4689,973,1082
4690,980,1084
4691,986,1077
4692,987,1071
4693,988,1072
4694,989,1076
4695,992,1081
4696,996,1082
4697,1000,1078
4698,1000,1072
4699,1003,1066
4700,1008,1061
4701,1014,1060
4702,1020,1061
4703,1022,1062
4704,1024,1061
4705,1019,1063
4706,1020,1066
4707,1017,1071
4708,1022,1073
4709,1023,1069
4710,1017,1064
4711,1011,1060
4712,1002,1064
4713,995,1069
4714,987,1073
4715,979,1070
4716,976,1063
4717,969,1060
4718,969,1059
4719,969,1063
4720,968,1065
4721,965,1065
4722,956,1063
4723,953,1063
4724,952,1063
4725,952,1067
4726,958,1064
4727,958,1064
4728,956,1062
4729,951,1059
4730,947,1061
4731,947,1065
4732,949,1070
4733,951,1073
4734,950,1066
4735,947,1063
4736,946,1066
4737,949,1065
4738,953,1066
4739,953,1064
4740,947,1061
4741,947,1061
4742,946,1066
4743,952,1075
4744,958,1078
4745,963,1064
4746,970,1046
4747,985,1033
4748,1004,1032
4749,1038,1037
4750,1082,1050
4751,1135,1072
4752,1188,1104
4753,1232,1136
4754,1264,1175
4755,1262,1205
4756,1216,1221
4757,1125,1225
4758,1020,1219
4759,934,1215
4760,887,1218
4761,882,1231
4762,895,1244
4763,908,1256
4764,903,1264
4765,892,1275
4766,882,1286
4767,873,1299
4768,864,1309
4769,862,1320
4770,862,1331
4771,860,1338
4772,864,1348
4773,865,1352
4774,862,1351
4775,857,1335
4776,850,1311
4777,847,1279
4778,850,1241
4779,863,1204
4780,877,1169
4781,889,1128
4782,901,1094
4783,908,1075
4784,918,1068
4785,930,1067
4786,940,1065
4787,951,1058
4788,956,1048
4789,958,1042
4790,960,1038
4791,965,1032
4792,965,1035
4793,967,1031
4794,967,1029
4795,962,1025
4796,966,1022
4797,969,1024
4798,976,1021
4799,974,1017
4800,975,1013
4801,973,1008
4802,974,1008
4803,975,1014
4804,980,1013
4805,983,1010
4806,985,1004
4807,984,1000
4808,984,999
4809,987,996
4810,990,994
4811,990,992
4812,987,990
4813,985,983
4814,986,980
4815,987,978
4816,994,973
4817,1001,965
4818,1003,955
4819,1001,951
4820,1001,948
4821,1003,952
4822,1008,953
4823,1014,946
4824,1013,935
4825,1017,931
4826,1019,926
4827,1021,927
4828,1029,929
4829,1028,927
4830,1031,923
4831,1031,920
4832,1033,924
4833,1039,929
4834,1046,930
4835,1047,929
4836,1044,935
4837,1039,941
4838,1037,950
4839,1039,957
4840,1040,964
4841,1037,968
4842,1029,968
4843,1024,969
4844,1019,977
4845,1016,989
4846,1013,1000
4847,1009,1007
4848,1002,1012
4849,995,1015
4850,989,1017
4851,987,1027
4852,984,1030
4853,982,1034
4854,973,1036
4855,967,1042
4856,961,1045
4857,960,1049
4858,964,1054
4859,964,1052
4860,961,1051
4861,953,1050
4862,949,1052
4863,947,1060
4864,944,1064
4865,948,1061
4866,947,1057
4867,945,1055
4868,947,1056
4869,947,1059
4870,949,1060
4871,948,1061
4872,944,1061
4873,941,1058
4874,939,1060
4875,943,1062
4876,947,1063
4877,948,1061
4878,947,1058
4879,944,1055
4880,945,1057
4881,941,1062
4882,943,1067
4883,947,1065
4884,949,1060
4885,946,1055
4886,945,1051
4887,942,1055
4888,947,1064
4889,951,1065
4890,950,1062
4891,952,1055
4892,950,1052
4893,954,1056
4894,955,1056
4895,954,1055
4896,952,1054
4897,948,1057
4898,947,1059
4899,950,1062
4900,952,1064
4901,954,1060
4902,951,1055
4903,947,1053
4904,943,1053
4905,943,1056
4906,948,1063
4907,947,1063
4908,947,1061
4909,944,1059
4910,945,1062
4911,948,1065
4912,952,1068
4913,957,1067
4914,953,1065
4915,953,1062
4916,953,1071
4917,961,1074
4918,967,1076
4919,971,1068
4920,972,1061
4921,974,1058
4922,976,1054
4923,980,1054
4924,989,1055
4925,998,1059
4926,999,1054
4927,999,1050
4928,998,1054
4929,1001,1058
4930,1003,1063
4931,1002,1060
4932,995,1057
4933,988,1055
4934,982,1058
4935,975,1063
4936,972,1063
4937,964,1061
4938,957,1051
4939,948,1049
4940,949,1051
4941,948,1056
4942,947,1062
4943,944,1058
4944,940,1055
4945,937,1053
4946,936,1051
4947,937,1053
4948,937,1055
4949,936,1052
4950,933,1052
4951,929,1056
4952,929,1057
4953,934,1062
4954,937,1062
4955,936,1057
4956,933,1053
4957,933,1050
4958,931,1055
4959,934,1058
4960,935,1064
4961,936,1059
4962,936,1057
4963,935,1056
4964,938,1055
4965,942,1066
4966,946,1066
4967,949,1056
4968,952,1041
4969,960,1033
4970,980,1036
4971,1014,1039
4972,1057,1048
4973,1109,1057
4974,1162,1081
4975,1209,1111
4976,1245,1145
4977,1257,1177
4978,1231,1204
4979,1162,1207
4980,1064,1200
4981,971,1193
4982,907,1192
4983,881,1204
4984,890,1217
4985,899,1231
4986,899,1245
4987,888,1254
4988,877,1264
4989,875,1274
4990,869,1285
4991,865,1288
4992,863,1293
4993,863,1301
4994,863,1318
4995,865,1332
4996,867,1342
4997,863,1338
4998,859,1324
4999,855,1300
5000,856,1277
5001,863,1245
5002,874,1210
5003,882,1171
5004,889,1136
5005,897,1108
5006,907,1087
5007,923,1071
5008,936,1066
5009,952,1056
5010,961,1044
5011,969,1038
5012,973,1034
5013,975,1031
5014,979,1031
5015,982,1028
5016,984,1025
5017,983,1022
5018,986,1018
5019,990,1015
5020,992,1013
5021,995,1011
5022,994,1008
5023,993,1005
5024,992,1005
5025,995,1007
5026,999,1007
5027,1004,1001
5028,1005,995
5029,1005,991
5030,1004,991
5031,1007,990
5032,1008,993
5033,1012,990
5034,1014,986
5035,1017,979
5036,1020,972
5037,1024,969
5038,1025,969
5039,1031,964
5040,1029,956
5041,1028,950
5042,1029,948
5043,1040,948
5044,1048,944
5045,1054,938
5046,1053,930
5047,1054,923
5048,1055,923
5049,1060,925
5050,1066,928
5051,1072,924
5052,1075,917
5053,1076,912
5054,1076,913
5055,1080,917
5056,1085,925
5057,1087,928
5058,1084,933
5059,1082,934
5060,1081,939
5061,1085,946
5062,1084,953
5063,1079,957
5064,1067,962
5065,1060,972
5066,1057,983
5067,1054,990
5068,1054,999
5069,1052,998
5070,1043,1001
5071,1038,1005
5072,1031,1014
5073,1028,1025
5074,1026,1030
5075,1024,1036
5076,1020,1037
5077,1016,1037
5078,1013,1041
5079,1010,1046
5080,1008,1050
5081,1004,1052
5082,1002,1055
5083,997,1055
5084,995,1056
5085,1000,1056
5086,1000,1061
5087,998,1058
5088,995,1054
5089,991,1057
5090,989,1061
5091,990,1064
5092,991,1067
5093,996,1065
5094,995,1062
5095,994,1057
5096,993,1057
5097,990,1060
5098,996,1066
5099,996,1069
5100,999,1062
5101,994,1059
5102,994,1057
5103,1001,1059
5104,1002,1061
5105,1004,1061
5106,1000,1058
5107,1001,1057
5108,997,1058
5109,1000,1063
5110,1008,1064
5111,1009,1060
5112,1006,1055
5113,1005,1052
5114,1003,1054
5115,1004,1059
5116,1009,1063
5117,1007,1062
5118,1002,1061
5119,1004,1058
5120,1005,1056
5121,1008,1055
5122,1009,1059
5123,1010,1056
5124,1007,1055
5125,1000,1058
5126,1005,1058
5127,1007,1060
5128,1008,1062
5129,1010,1058
5130,1010,1055
5131,1003,1056
5132,1004,1060
5133,1005,1065
5134,1006,1070
5135,1007,1068
5136,1008,1067
5137,1009,1067
5138,1014,1067
5139,1016,1069
5140,1023,1071
5141,1028,1076
5142,1028,1073
5143,1028,1072
5144,1028,1070
5145,1036,1066
5146,1043,1064
5147,1045,1060
5148,1052,1055
5149,1051,1052
5150,1055,1057
5151,1055,1061
5152,1059,1066
5153,1061,1064
5154,1057,1059
5155,1056,1058
5156,1052,1060
5157,1048,1061
5158,1045,1068
5159,1038,1066
5160,1028,1061
5161,1016,1061
5162,1012,1056
5163,1009,1058
5164,1009,1058
5165,1006,1058
5166,1001,1059
5167,994,1057
5168,993,1059
5169,993,1061
5170,996,1059
5171,997,1059
5172,995,1055
5173,994,1055
5174,988,1052
5175,990,1058
5176,989,1064
5177,988,1064
5178,985,1061
5179,987,1060
5180,987,1055
5181,988,1057
5182,991,1061
5183,992,1063
5184,990,1063
5185,988,1064
5186,988,1062
5187,991,1068
5188,995,1072
5189,999,1074
5190,1004,1066
5191,1004,1053
5192,1014,1041
5193,1031,1041
5194,1056,1044
5195,1096,1047
5196,1144,1054
5197,1194,1073
5198,1246,1110
5199,1287,1154
5200,1313,1192
5201,1298,1222
5202,1239,1234
5203,1148,1234
5204,1054,1228
5205,982,1228
5206,941,1230
5207,930,1239
5208,932,1244
5209,938,1256
5210,933,1270
5211,926,1289
5212,922,1299
5213,917,1310
5214,911,1317
5215,902,1323
5216,899,1333
5217,902,1345
5218,908,1359
5219,908,1363
5220,905,1363
5221,899,1359
5222,893,1348
5223,891,1331
5224,894,1310
5225,900,1279
5226,903,1239
5227,910,1202
5228,921,1164
5229,931,1135
5230,939,1112
5231,947,1089
5232,963,1077
5233,975,1067
5234,987,1061
5235,998,1056
5236,1005,1052
5237,1007,1042
5238,1009,1039
5239,1008,1031
5240,1010,1028
5241,1013,1031
5242,1016,1032
5243,1021,1028
5244,1021,1023
5245,1021,1016
5246,1022,1012
5247,1023,1015
5248,1027,1017
5249,1029,1014
5250,1025,1012
5251,1025,1009
5252,1025,1006
5253,1028,1006
5254,1034,1004
5255,1037,1001
5256,1035,996
5257,1033,994
5258,1033,990
5259,1032,993
5260,1038,992
5261,1045,986
5262,1046,979
5263,1045,971
5264,1043,970
5265,1048,970
5266,1052,968
5267,1054,969
5268,1056,961
5269,1057,957
5270,1060,956
5271,1066,948
5272,1071,946
5273,1076,941
5274,1075,936
5275,1075,928
5276,1075,931
5277,1080,933
5278,1087,936
5279,1095,934
5280,1096,926
5281,1096,922
5282,1094,921
5283,1097,927
5284,1099,936
5285,1101,943
5286,1099,945
5287,1094,945
5288,1094,950
5289,1094,956
5290,1093,961
5291,1095,967
5292,1088,970
5293,1080,974
5294,1071,983
5295,1068,995
5296,1067,1004
5297,1064,1010
5298,1057,1012
5299,1049,1011
5300,1045,1018
5301,1041,1024
5302,1036,1034
5303,1037,1037
5304,1028,1041
5305,1022,1043
5306,1020,1047
5307,1019,1051
5308,1016,1055
5309,1017,1053
5310,1012,1051
5311,1004,1054
5312,1000,1057
5313,1002,1062
5314,1002,1069
5315,1002,1067
5316,997,1063
5317,996,1057
5318,994,1057
5319,995,1059
5320,998,1063
5321,994,1065
5322,993,1062
5323,989,1061
5324,986,1060
5325,989,1063
5326,992,1063
5327,996,1061
5328,994,1058
5329,988,1055
5330,985,1062
5331,988,1069
5332,992,1070
5333,992,1067
5334,992,1061
5335,991,1056
5336,990,1056
5337,989,1059
5338,991,1060
5339,994,1064
5340,990,1061
5341,989,1059
5342,989,1061
5343,992,1063
5344,996,1059
5345,997,1059
5346,993,1052
5347,990,1051
5348,987,1056
5349,990,1063
5350,993,1067
5351,994,1065
5352,994,1056
5353,992,1054
5354,989,1052
5355,989,1057
5356,993,1063
5357,994,1059
5358,989,1061
5359,987,1058
5360,991,1060
5361,993,1061
5362,997,1061
5363,997,1061
5364,994,1056
5365,989,1055
5366,985,1058
5367,986,1067
5368,989,1069
5369,989,1068
5370,990,1062
5371,989,1059
5372,991,1061
5373,991,1067
5374,995,1076
5375,996,1075
5376,995,1077
5377,999,1074
5378,1002,1073
5379,1010,1077
5380,1017,1079
5381,1019,1069
5382,1017,1065
5383,1017,1061
5384,1019,1062
5385,1026,1061
5386,1033,1060
5387,1039,1059
5388,1044,1055
5389,1041,1051
5390,1041,1054
5391,1041,1058
5392,1043,1061
5393,1042,1060
5394,1039,1060
5395,1032,1058
5396,1032,1058
5397,1026,1063
5398,1022,1065
5399,1012,1060
5400,1003,1054
5401,995,1050
5402,992,1054
5403,990,1057
5404,987,1061
5405,988,1060
5406,984,1054
5407,981,1054
5408,980,1055
5409,978,1057
5410,976,1058
5411,977,1058
5412,973,1058
5413,969,1060
5414,969,1061
5415,973,1064
5416,974,1065
5417,973,1060
5418,970,1054
5419,965,1055
5420,969,1059
5421,969,1064
5422,971,1070
5423,970,1068
5424,971,1063
5425,968,1061
5426,969,1061
5427,973,1068
5428,979,1077
5429,979,1073
5430,984,1063
5431,988,1051
5432,1006,1042
5433,1033,1042
5434,1070,1049
5435,1116,1051
5436,1170,1069
5437,1222,1103
5438,1263,1150
5439,1289,1193
5440,1276,1228
5441,1217,1237
5442,1128,1232
5443,1029,1223
5444,955,1218
5445,917,1225
5446,906,1234
5447,915,1250
5448,920,1266
5449,917,1277
5450,910,1287
5451,906,1298
5452,900,1309
5453,896,1314
5454,889,1319
5455,884,1328
5456,883,1342
5457,885,1360
5458,887,1369
5459,888,1368
5460,883,1358
5461,879,1337
5462,878,1310
5463,881,1285
5464,889,1248
5465,892,1212
5466,900,1173
5467,908,1135
5468,917,1107
5469,933,1089
5470,949,1081
5471,965,1070
5472,974,1055
5473,982,1050
5474,983,1045
5475,984,1044
5476,988,1045
5477,992,1042
5478,994,1034
5479,996,1029
5480,998,1028
5481,1004,1022
5482,1006,1023
5483,1008,1022
5484,1004,1019
5485,1002,1016
5486,998,1017
5487,1004,1016
5488,1007,1020
5489,1012,1015
5490,1011,1007
5491,1010,1005
5492,1008,1003
5493,1006,1004
5494,1009,1004
5495,1014,1003
5496,1014,1000
5497,1013,998
5498,1015,994
5499,1017,993
5500,1022,992
5501,1025,984
5502,1026,979
5503,1020,975
5504,1022,976
5505,1028,975
5506,1032,971
5507,1035,966
5508,1039,957
5509,1039,952
5510,1040,946
5511,1043,945
5512,1047,949
5513,1048,944
5514,1047,938
5515,1047,935
5516,1050,934
5517,1055,932
5518,1062,930
5519,1063,924
5520,1065,919
5521,1061,917
5522,1061,924
5523,1064,932
5524,1069,938
5525,1070,938
5526,1070,938
5527,1069,939
5528,1068,943
5529,1068,949
5530,1067,955
5531,1065,956
5532,1057,958
5533,1050,965
5534,1046,973
5535,1043,984
5536,1041,992
5537,1041,990
5538,1035,993
5539,1028,999
5540,1022,1005
5541,1017,1018
5542,1015,1026
5543,1011,1032
5544,1004,1032
5545,999,1034
5546,995,1038
5547,991,1042
5548,992,1048
5549,987,1052
5550,979,1049
5551,972,1053
5552,969,1060
5553,968,1062
5554,970,1065
5555,967,1064
5556,966,1058
5557,961,1057
5558,959,1062
5559,955,1064
5560,957,1070
5561,956,1071
5562,956,1067
5563,953,1064
5564,954,1064
5565,956,1066
5566,956,1065
5567,955,1065
5568,954,1064
5569,947,1062
5570,947,1068
5571,952,1071
5572,955,1074
5573,960,1067
5574,958,1060
5575,953,1059
5576,951,1059
5577,953,1063
5578,955,1066
5579,955,1067
5580,952,1064
5581,949,1064
5582,950,1063
5583,953,1065
5584,957,1064
5585,954,1063
5586,955,1059
5587,953,1057
5588,951,1056
5589,952,1063
5590,956,1069
5591,958,1066
5592,957,1059
5593,955,1057
5594,955,1054
5595,955,1057
5596,954,1062
5597,956,1060
5598,949,1061
5599,948,1063
5600,945,1060
5601,947,1063
5602,954,1066
5603,956,1063
5604,952,1057
5605,945,1054
5606,942,1057
5607,944,1061
5608,947,1069
5609,951,1072
5610,949,1071
5611,948,1069
5612,950,1070
5613,958,1070
5614,962,1072
5615,965,1074
5616,962,1070
5617,964,1072
5618,964,1073
5619,967,1071
5620,975,1071
5621,981,1066
5622,984,1057
5623,987,1048
5624,992,1044
5625,996,1050
5626,998,1058
5627,997,1061
5628,998,1062
5629,994,1062
5630,992,1059
5631,989,1062
5632,989,1062
5633,989,1058
5634,985,1059
5635,975,1059
5636,961,1062
5637,955,1060
5638,950,1063
5639,951,1064
5640,946,1057
5641,942,1054
5642,939,1051
5643,937,1053
5644,935,1056
5645,934,1058
5646,928,1058
5647,924,1056
5648,921,1057
5649,922,1061
5650,923,1062
5651,924,1060
5652,923,1055
5653,919,1052
5654,914,1055
5655,918,1057
5656,921,1063
5657,924,1064
5658,920,1065
5659,915,1060
5660,915,1056
5661,919,1061
5662,923,1061
5663,918,1059
5664,920,1056
5665,916,1057
5666,917,1058
5667,918,1063
5668,925,1067
5669,928,1071
5670,931,1062
5671,932,1050
5672,941,1037
5673,954,1028
5674,972,1032
5675,1004,1035
5676,1039,1040
5677,1084,1052
5678,1138,1075
5679,1188,1109
5680,1222,1139
5681,1236,1163
5682,1213,1190
5683,1151,1205
5684,1067,1207
5685,981,1203
5686,915,1205
5687,875,1201
5688,862,1202
5689,867,1212
5690,874,1225
5691,875,1235
5692,870,1254
5693,862,1259
5694,852,1268
5695,841,1278
5696,834,1286
5697,837,1297
5698,839,1308
5699,846,1315
5700,844,1324
5701,840,1329
5702,836,1334
5703,835,1336
5704,833,1327
5705,830,1303
5706,830,1278
5707,831,1250
5708,838,1218
5709,850,1187
5710,861,1158
5711,869,1126
5712,877,1093
5713,882,1070
5714,893,1062
5715,906,1063
5716,921,1062
5717,931,1054
5718,937,1044
5719,937,1034
5720,933,1030
5721,938,1029
5722,944,1031
5723,946,1030
5724,947,1022
5725,946,1023
5726,947,1022
5727,951,1024
5728,953,1022
5729,958,1017
5730,959,1012
5731,956,1006
5732,955,1007
5733,957,1006
5734,962,1010
5735,962,1009
5736,963,1008
5737,960,1000
5738,965,997
5739,967,994
5740,971,995
5741,973,990
5742,971,987
5743,967,985
5744,969,986
5745,970,986
5746,975,991
5747,979,984
5748,980,975
5749,978,966
5750,980,962
5751,984,961
5752,988,962
5753,990,958
5754,990,955
5755,993,951
5756,994,944
5757,1000,942
5758,1007,940
5759,1012,934
5760,1013,929
5761,1013,926
5762,1014,924
5763,1015,928
5764,1020,932
5765,1026,932
5766,1030,928
5767,1030,925
5768,1031,925
5769,1032,931
5770,1033,937
5771,1033,940
5772,1027,946
5773,1027,950
5774,1024,954
5775,1023,960
5776,1027,966
5777,1024,969
5778,1020,970
5779,1011,972
5780,1004,982
5781,1001,995
5782,996,1003
5783,994,1007
5784,989,1010
5785,985,1011
5786,980,1015
5787,978,1019
5788,976,1027
5789,972,1032
5790,963,1034
5791,958,1039
5792,956,1044
5793,954,1049
5794,954,1053
5795,949,1050
5796,946,1050
5797,942,1050
5798,939,1054
5799,937,1056
5800,936,1062
5801,938,1065
5802,933,1063
5803,935,1060
5804,933,1060
5805,933,1059
5806,934,1063
5807,934,1061
5808,932,1063
5809,931,1058
5810,927,1063
5811,931,1067
5812,933,1066
5813,936,1067
5814,935,1063
5815,933,1058
5816,930,1057
5817,931,1058
5818,935,1064
5819,936,1064
5820,934,1065
5821,932,1062
5822,931,1060
5823,934,1059
5824,938,1061
5825,941,1057
5826,938,1053
5827,933,1055
5828,932,1059
5829,936,1063
5830,936,1065
5831,938,1061
5832,938,1058
5833,936,1055
5834,937,1050
5835,939,1056
5836,941,1063
5837,939,1060
5838,937,1063
5839,935,1060
5840,935,1064
5841,937,1064
5842,940,1063
5843,942,1059
5844,939,1059
5845,932,1058
5846,932,1061
5847,936,1072
5848,937,1074
5849,940,1078
5850,944,1070
5851,942,1065
5852,947,1065
5853,955,1068
5854,958,1070
5855,958,1071
5856,959,1068
5857,956,1069
5858,962,1065
5859,968,1068
5860,975,1065
5861,981,1058
5862,984,1052
5863,984,1048
5864,987,1051
5865,990,1057
5866,992,1064
5867,995,1064
5868,991,1062
5869,991,1063
5870,990,1061
5871,989,1058
5872,989,1062
5873,984,1061
5874,976,1060
5875,963,1060
5876,954,1061
5877,951,1065
5878,951,1065
5879,951,1061
5880,948,1052
5881,945,1053
5882,941,1053
5883,941,1056
5884,940,1059
5885,940,1060
5886,936,1059
5887,932,1056
5888,930,1059
5889,935,1058
5890,939,1059
5891,939,1057
5892,934,1056
5893,930,1054
5894,927,1058
5895,930,1063
5896,933,1069
5897,936,1063
5898,934,1058
5899,933,1055
5900,934,1054
5901,937,1060
5902,940,1060
5903,941,1062
5904,940,1061
5905,937,1062
5906,941,1070
5907,947,1073
5908,955,1067
5909,964,1050
5910,972,1038
5911,988,1031
5912,1016,1036
5913,1060,1045
5914,1113,1060
5915,1165,1084
5916,1213,1115
5917,1250,1142
5918,1261,1169
5919,1248,1200
5920,1198,1214
5921,1117,1215
5922,1027,1211
5923,949,1204
5924,902,1211
5925,882,1216
5926,888,1230
5927,898,1241
5928,897,1254
5929,887,1257
5930,877,1267
5931,871,1281
5932,867,1298
5933,864,1306
5934,858,1314
5935,853,1320
5936,856,1332
5937,859,1340
5938,864,1350
5939,863,1353
5940,854,1342
5941,851,1324
5942,847,1302
5943,848,1279
5944,858,1255
5945,870,1216
5946,878,1178
5947,884,1138
5948,890,1110
5949,901,1091
5950,918,1084
5951,931,1075
5952,940,1065
5953,948,1059
5954,956,1051
5955,965,1048
5956,971,1046
5957,975,1038
5958,974,1029
5959,973,1026
5960,972,1026
5961,978,1029
5962,981,1033
5963,983,1031
5964,987,1024
5965,985,1016
5966,987,1011
5967,989,1012
5968,989,1015
5969,990,1012
5970,992,1010
5971,990,1008
5972,989,1005
5973,994,1007
5974,1001,1005
5975,1003,997
5976,1004,993
5977,1000,991
5978,1002,990
5979,1003,988
5980,1008,990
5981,1009,989
5982,1013,985
5983,1011,980
5984,1015,974
5985,1019,969
5986,1024,969
5987,1024,965
5988,1023,959
5989,1024,956
5990,1022,954
5991,1030,951
5992,1036,952
5993,1040,948
5994,1043,941
5995,1044,937
5996,1044,930
5997,1048,932
5998,1053,936
5999,1056,936
6000,1056,933
6001,1057,933
6002,1057,933
6003,1059,936
6004,1062,937
6005,1065,935
6006,1067,939
6007,1066,940
6008,1064,946
6009,1062,955
6010,1064,961
6011,1063,966
6012,1060,969
6013,1056,969
6014,1057,974
6015,1054,980
6016,1051,985
6017,1048,990
6018,1041,995
6019,1034,1003
6020,1027,1010
6021,1027,1017
6022,1026,1023
6023,1026,1026
6024,1019,1027
6025,1016,1031
6026,1012,1033
6027,1006,1040
6028,1003,1049
6029,1000,1052
6030,995,1055
6031,993,1057
6032,989,1057
6033,994,1058
6034,993,1060
6035,993,1058
6036,987,1054
6037,981,1056
6038,980,1059
6039,979,1068
6040,980,1072
6041,982,1066
6042,980,1062
6043,973,1059
6044,973,1060
6045,977,1062
6046,977,1064
6047,976,1066
6048,973,1066
6049,969,1065
6050,972,1071
6051,975,1070
6052,980,1071
6053,983,1067
6054,980,1062
6055,975,1061
6056,973,1064
6057,976,1071
6058,980,1075
6059,982,1074
6060,981,1068
6061,978,1065
6062,979,1066
6063,981,1067
6064,981,1069
6065,983,1067
6066,980,1068
6067,976,1065
6068,977,1071
6069,979,1072
6070,982,1075
6071,985,1071
6072,984,1066
6073,982,1061
6074,978,1064
6075,981,1070
6076,981,1073
6077,982,1075
6078,981,1072
6079,979,1070
6080,978,1068
6081,981,1068
6082,984,1068
6083,983,1069
6084,981,1068
6085,977,1067
6086,976,1071
6087,977,1075
6088,983,1079
6089,983,1078
6090,985,1072
6091,982,1068
6092,979,1071
6093,982,1073
6094,982,1082
6095,987,1084
6096,987,1084
6097,988,1080
6098,993,1079
6099,998,1085
6100,1005,1085
6101,1010,1082
6102,1011,1076
6103,1010,1067
6104,1011,1067
6105,1015,1070
6106,1022,1069
6107,1029,1067
6108,1031,1062
6109,1033,1056
6110,1035,1057
6111,1033,1061
6112,1039,1067
6113,1041,1068
6114,1038,1071
6115,1032,1071
6116,1026,1067
6117,1026,1066
6118,1025,1073
6119,1022,1071
6120,1009,1066
6121,999,1059
6122,990,1063
6123,988,1061
6124,986,1067
6125,985,1069
6126,981,1067
6127,978,1061
6128,974,1057
6129,974,1060
6130,971,1062
6131,971,1064
6132,967,1064
6133,963,1062
6134,963,1063
6135,962,1066
6136,965,1070
6137,967,1067
6138,967,1063
6139,963,1059
6140,960,1060
6141,958,1067
6142,962,1073
6143,964,1072
6144,964,1070
6145,962,1063
6146,960,1062
6147,966,1065
6148,968,1070
6149,970,1074
6150,970,1077
6151,968,1075
6152,973,1064
6153,988,1055
6154,1010,1050
6155,1038,1045
6156,1071,1037
6157,1114,1041
6158,1162,1060
6159,1216,1099
6160,1261,1148
6161,1289,1186
6162,1285,1216
6163,1236,1226
6164,1149,1231
6165,1050,1225
6166,971,1225
6167,916,1229
6168,896,1236
6169,897,1249
6170,906,1264
6171,910,1281
6172,909,1299
6173,905,1303
6174,895,1306
6175,884,1307
6176,876,1319
6177,876,1338
6178,878,1352
6179,884,1361
6180,886,1363
6181,883,1356
6182,879,1347
6183,879,1328
6184,880,1302
6185,882,1270
6186,891,1230
6187,894,1199
6188,902,1167
6189,910,1137
6190,925,1112
6191,940,1092
6192,950,1074
6193,958,1060
6194,970,1052
6195,979,1051
6196,988,1049
6197,988,1045
6198,992,1037
6199,992,1028
6200,993,1029
6201,999,1027
6202,1000,1026
6203,1002,1023
6204,1003,1019
6205,1000,1012
6206,1001,1013
6207,1005,1018
6208,1009,1018
6209,1012,1015
6210,1012,1006
6211,1010,1002
6212,1007,1006
6213,1010,1004
6214,1015,1007
6215,1013,1006
6216,1013,1001
6217,1013,999
6218,1013,996
6219,1020,992
6220,1024,992
6221,1025,989
6222,1026,984
6223,1022,975
6224,1023,973
6225,1026,973
6226,1034,976
6227,1037,971
6228,1039,960
6229,1038,954
6230,1040,947
6231,1045,945
6232,1051,942
6233,1054,942
6234,1055,938
6235,1057,930
6236,1060,928
6237,1066,929
6238,1068,925
6239,1073,924
6240,1075,918
6241,1073,911
6242,1074,916
6243,1075,922
6244,1083,926
6245,1084,929
6246,1084,927
6247,1083,928
6248,1082,927
6249,1083,938
6250,1083,946
6251,1081,953
6252,1074,955
6253,1068,957
6254,1062,965
6255,1063,975
6256,1063,982
6257,1061,989
6258,1052,990
6259,1044,992
6260,1033,999
6261,1032,1013
6262,1030,1022
6263,1027,1027
6264,1023,1030
6265,1016,1029
6266,1013,1032
6267,1010,1037
6268,1010,1043
6269,1006,1051
6270,999,1050
6271,991,1050
6272,990,1054
6273,990,1060
6274,990,1060
6275,989,1060
6276,986,1057
6277,980,1058
6278,979,1059
6279,976,1064
6280,977,1072
6281,977,1071
6282,975,1067
6283,972,1058
6284,973,1057
6285,973,1063
6286,978,1065
6287,975,1066
6288,974,1062
6289,971,1064
6290,971,1063
6291,974,1067
6292,980,1070
6293,980,1065
6294,976,1059
6295,973,1054
6296,974,1058
6297,972,1061
6298,977,1065
6299,979,1067
6300,980,1059
6301,979,1055
6302,978,1056
6303,982,1058
6304,983,1060
6305,984,1060
6306,977,1059
6307,978,1059
6308,980,1060
6309,981,1064
6310,988,1064
6311,990,1058
6312,989,1053
6313,983,1052
6314,980,1051
6315,983,1058
6316,983,1062
6317,988,1063
6318,986,1059
6319,983,1054
6320,984,1057
6321,983,1056
6322,985,1059
6323,986,1058
6324,982,1057
6325,978,1055
6326,977,1059
6327,982,1066
6328,983,1069
6329,985,1065
6330,985,1065
6331,984,1065
6332,983,1064
6333,984,1070
6334,990,1077
6335,997,1079
6336,998,1076
6337,1001,1076
6338,1002,1073
6339,1007,1072
6340,1013,1071
6341,1018,1064
6342,1016,1057
6343,1014,1055
6344,1020,1053
6345,1027,1058
6346,1038,1059
6347,1042,1059
6348,1040,1055
6349,1035,1052
6350,1034,1053
6351,1033,1059
6352,1032,1066
6353,1031,1066
6354,1024,1065
6355,1016,1058
6356,1010,1059
6357,1003,1061
6358,1000,1060
6359,996,1055
6360,988,1052
6361,980,1053
6362,978,1054
6363,977,1057
6364,978,1063
6365,978,1062
6366,972,1054
6367,972,1048
6368,970,1047
6369,971,1051
6370,970,1056
6371,968,1057
6372,964,1055
6373,959,1054
6374,959,1057
6375,961,1057
6376,965,1057
6377,966,1056
6378,966,1054
6379,962,1049
6380,960,1054
6381,959,1060
6382,962,1067
6383,965,1064
6384,968,1059
6385,967,1054
6386,965,1056
6387,972,1060
6388,978,1071
6389,980,1068
6390,983,1054
6391,992,1042
6392,1007,1034
6393,1038,1035
6394,1079,1036
6395,1126,1041
6396,1173,1052
6397,1222,1087
6398,1262,1135
6399,1284,1179
6400,1272,1214
6401,1215,1228
6402,1120,1224
6403,1021,1216
6404,945,1210
6405,907,1213
6406,903,1229
6407,916,1245
6408,918,1258
6409,915,1269
6410,904,1279
6411,902,1295
6412,898,1303
6413,892,1310
6414,883,1318
6415,881,1325
6416,883,1339
6417,886,1354
6418,886,1363
6419,884,1365
6420,881,1349
6421,876,1327
6422,877,1295
6423,880,1262
6424,888,1229
6425,897,1192
6426,904,1154
6427,911,1117
6428,921,1092
6429,935,1079
6430,955,1074
6431,966,1062
6432,976,1052
6433,981,1041
6434,982,1036
6435,984,1038
6436,990,1041
6437,991,1037
6438,995,1031
6439,993,1021
6440,997,1019
6441,1000,1019
6442,1003,1021
6443,1005,1015
6444,1002,1010
6445,998,1008
6446,1000,1008
6447,1002,1010
6448,1010,1014
6449,1012,1007
6450,1011,997
6451,1009,991
6452,1008,993
6453,1009,994
6454,1012,999
6455,1015,995
6456,1014,988
6457,1015,982
6458,1018,977
6459,1023,979
6460,1027,978
6461,1028,971
6462,1027,966
6463,1024,962
6464,1024,963
6465,1027,963
6466,1033,959
6467,1037,952
6468,1038,942
6469,1036,934
6470,1037,930
6471,1042,932
6472,1047,933
6473,1050,931
6474,1050,927
6475,1055,919
6476,1056,919
6477,1060,918
6478,1066,923
6479,1068,919
6480,1066,917
6481,1064,916
6482,1064,918
6483,1067,925
6484,1070,936
6485,1072,935
6486,1071,937
6487,1067,937
6488,1061,945
6489,1060,957
6490,1057,965
6491,1053,971
6492,1047,975
6493,1040,977
6494,1037,986
6495,1031,992
6496,1031,1002
6497,1026,1005
6498,1015,1011
6499,1009,1015
6500,1004,1023
6501,1004,1033
6502,1004,1038
6503,1001,1038
6504,996,1038
6505,986,1038
6506,983,1040
6507,980,1049
6508,980,1059
6509,976,1055
6510,973,1055
6511,969,1054
6512,968,1056
6513,968,1056
6514,969,1058
6515,966,1057
6516,960,1056
6517,956,1055
6518,956,1060
6519,957,1060
6520,962,1062
6521,961,1057
6522,960,1054
6523,955,1053
6524,953,1058
6525,955,1062
6526,960,1065
6527,959,1062
6528,961,1061
6529,958,1056
6530,957,1055
6531,960,1056
6532,962,1056
6533,960,1055
6534,958,1056
6535,956,1056
6536,957,1058
6537,962,1062
6538,964,1060
6539,959,1058
6540,960,1052
6541,960,1050
6542,960,1052
6543,958,1058
6544,963,1060
6545,962,1060
6546,961,1054
6547,960,1053
6548,960,1053
6549,963,1055
6550,963,1051
6551,961,1052
6552,957,1056
6553,957,1054
6554,958,1056
6555,957,1057
6556,963,1057
6557,962,1053
6558,958,1051
6559,957,1049
6560,954,1052
6561,953,1056
6562,952,1061
6563,953,1059
6564,951,1060
6565,955,1059
6566,955,1060
6567,959,1064
6568,961,1067
6569,964,1067
6570,967,1067
6571,965,1071
6572,971,1069
6573,977,1069
6574,982,1068
6575,987,1058
6576,985,1056
6577,986,1053
6578,987,1053
6579,995,1050
6580,1003,1055
6581,1007,1053
6582,1009,1053
6583,1006,1046
6584,1004,1047
6585,1006,1051
6586,1006,1056
6587,1002,1057
6588,995,1055
6589,985,1052
6590,976,1051
6591,971,1053
6592,966,1053
6593,962,1052
6594,957,1048
6595,949,1042
6596,943,1047
6597,939,1052
6598,944,1055
6599,946,1053
6600,944,1049
6601,939,1045
6602,930,1043
6603,931,1047
6604,933,1052
6605,931,1054
6606,930,1050
6607,929,1048
6608,928,1048
6609,933,1051
6610,934,1053
6611,939,1049
6612,933,1047
6613,929,1045
6614,927,1048
6615,930,1056
6616,933,1059
6617,935,1056
6618,935,1050
6619,935,1050
6620,937,1056
6621,943,1052
6622,951,1046
6623,964,1031
6624,981,1022
6625,1009,1026
6626,1053,1030
6627,1112,1046
6628,1169,1077
6629,1217,1115
6630,1245,1147
6631,1235,1181
6632,1179,1204
6633,1081,1209
6634,975,1200
6635,894,1189
6636,866,1188
6637,870,1205
6638,882,1228
6639,885,1246
6640,878,1261
6641,869,1270
6642,859,1275
6643,855,1283
6644,845,1285
6645,847,1301
6646,852,1315
6647,853,1330
6648,848,1337
6649,843,1336
6650,841,1323
6651,838,1301
6652,839,1275
6653,847,1237
6654,856,1200
6655,865,1162
6656,868,1130
6657,881,1106
6658,891,1084
6659,906,1070
6660,919,1057
6661,929,1047
6662,938,1041
6663,943,1036
6664,947,1037
6665,948,1031
6666,949,1031
6667,947,1023
6668,951,1022
6669,957,1018
6670,958,1018
6671,962,1016
6672,961,1007
6673,960,1005
6674,957,1006
6675,958,1010
6676,958,1014
6677,964,1008
6678,963,999
6679,963,996
6680,964,993
6681,966,994
6682,968,995
6683,972,995
6684,973,989
6685,971,985
6686,973,981
6687,974,976
6688,979,979
6689,984,972
6690,983,968
6691,979,962
6692,978,960
6693,980,957
6694,989,960
6695,993,951
6696,992,939
6697,995,932
6698,991,929
6699,997,931
6700,1000,933
6701,1000,931
6702,1000,925
6703,999,920
6704,1001,919
6705,1009,919
6706,1011,922
6707,1018,920
6708,1015,920
6709,1012,919
6710,1013,928
6711,1017,935
6712,1022,943
6713,1022,941
6714,1018,943
6715,1013,945
6716,1007,956
6717,1002,963
6718,1000,972
6719,997,980
6720,990,981
6721,986,987
6722,980,990
6723,978,999
6724,979,1006
6725,971,1010
6726,963,1013
6727,954,1017
6728,949,1027
6729,949,1032
6730,948,1040
6731,946,1038
6732,941,1036
6733,933,1032
6734,931,1040
6735,930,1048
6736,930,1054
6737,928,1054
6738,925,1050
6739,921,1049
6740,919,1050
6741,919,1051
6742,923,1054
6743,922,1054
6744,919,1051
6745,912,1056
6746,914,1060
6747,917,1061
6748,920,1059
6749,923,1054
6750,922,1049
6751,917,1048
6752,916,1051
6753,920,1056
6754,921,1058
6755,924,1057
6756,922,1051
6757,922,1046
6758,923,1046
6759,924,1047
6760,923,1050
6761,924,1049
6762,923,1050
6763,922,1049
6764,923,1049
6765,924,1051
6766,930,1052
6767,932,1047
6768,930,1046
6769,925,1048
6770,922,1048
6771,927,1052
6772,927,1057
6773,929,1055
6774,932,1054
6775,932,1047
6776,930,1048
6777,934,1048
6778,935,1052
6779,934,1051
6780,934,1050
6781,933,1049
6782,932,1050
6783,936,1051
6784,939,1054
6785,939,1051
6786,939,1048
6787,933,1047
6788,931,1049
6789,932,1058
6790,938,1060
6791,940,1062
6792,944,1059
6793,945,1056
6794,945,1056
6795,949,1059
6796,956,1067
6797,961,1068
6798,959,1065
6799,961,1058
6800,964,1058
6801,970,1056
6802,979,1053
6803,985,1049
6804,987,1043
6805,986,1042
6806,989,1042
6807,988,1052
6808,993,1057
6809,994,1055
6810,994,1053
6811,989,1048
6812,984,1045
6813,976,1052
6814,971,1057
6815,964,1056
6816,958,1055
6817,950,1050
6818,946,1047
6819,946,1048
6820,947,1052
6821,944,1050
6822,938,1047
6823,932,1048
6824,931,1052
6825,931,1054
6826,934,1060
6827,935,1053
6828,934,1047
6829,926,1044
6830,926,1048
6831,927,1049
6832,927,1057
6833,928,1054
6834,928,1050
6835,926,1045
6836,928,1043
6837,928,1046
6838,933,1046
6839,930,1045
6840,931,1043
6841,928,1045
6842,931,1048
6843,937,1052
6844,941,1056
6845,946,1053
6846,950,1035
6847,957,1025
6848,968,1018
6849,995,1021
6850,1033,1029
6851,1081,1040
6852,1137,1054
6853,1193,1086
6854,1243,1118
6855,1270,1155
6856,1257,1184
6857,1192,1201
6858,1088,1199
6859,979,1195
6860,900,1194
6861,864,1199
6862,867,1212
6863,885,1224
6864,886,1235
6865,871,1242
6866,864,1253
6867,857,1271
6868,855,1282
6869,852,1290
6870,850,1297
6871,852,1307
6872,854,1317
6873,859,1328
6874,859,1335
6875,855,1323
6876,851,1308
6877,845,1282
6878,849,1251
6879,863,1218
6880,875,1182
6881,886,1141
6882,895,1105
6883,903,1078
6884,911,1063
6885,927,1058
6886,946,1056
6887,961,1047
6888,966,1039
6889,969,1032
6890,976,1024
6891,978,1024
6892,983,1024
6893,985,1019
6894,985,1016
6895,984,1015
6896,987,1012
6897,991,1009
6898,996,1010
6899,997,1002
6900,997,999
6901,995,994
6902,993,995
6903,994,994
6904,1000,999
6905,1002,997
6906,1004,992
6907,1004,986
6908,1007,986
6909,1008,982
6910,1009,983
6911,1013,979
6912,1011,976
6913,1011,974
6914,1014,972
6915,1022,971
6916,1027,969
6917,1030,958
6918,1030,951
6919,1029,948
6920,1031,943
6921,1032,938
6922,1039,940
6923,1045,932
6924,1048,927
6925,1051,917
6926,1053,913
6927,1058,909
6928,1064,907
6929,1067,905
6930,1069,900
6931,1067,896
6932,1072,900
6933,1076,898
6934,1083,898
6935,1086,896
6936,1087,895
6937,1088,895
6938,1083,901
6939,1083,911
6940,1085,920
6941,1085,928
6942,1083,933
6943,1077,936
6944,1075,942
6945,1071,948
6946,1068,961
6947,1063,969
6948,1056,977
6949,1048,985
6950,1039,992
6951,1036,1001
6952,1034,1012
6953,1032,1014
6954,1026,1015
6955,1019,1020
6956,1005,1028
6957,1001,1038
6958,995,1044
6959,993,1048
6960,993,1048
6961,993,1045
6962,995,1041
6963,994,1044
6964,998,1048
6965,996,1050
6966,993,1052
6967,991,1052
6968,988,1055
6969,988,1052
6970,992,1055
6971,992,1054
6972,990,1048
6973,984,1045
6974,985,1042
6975,986,1049
6976,990,1054
6977,993,1057
6978,996,1053
6979,994,1045
6980,995,1044
6981,994,1046
6982,997,1049
6983,999,1049
6984,996,1048
6985,996,1044
6986,996,1044
6987,998,1048
6988,1003,1048
6989,1007,1044
6990,1006,1039
6991,1003,1037
6992,1003,1036
6993,1004,1041
6994,1006,1046
6995,1010,1043
6996,1010,1036
6997,1009,1030
6998,1008,1028
6999,1011,1030
7000,1010,1036
7001,1012,1035
7002,1012,1035
7003,1008,1037
7004,1008,1040
7005,1009,1039
7006,1013,1043
7007,1014,1039
7008,1011,1036
7009,1006,1036
7010,1002,1038
7011,1001,1046
7012,1006,1048
7013,1007,1052
7014,1008,1044
7015,1003,1042
7016,998,1042
7017,1000,1044
7018,1000,1048
7019,1002,1052
7020,997,1047
7021,992,1047
7022,992,1048
7023,997,1051
7024,998,1054
7025,999,1055
7026,997,1054
7027,995,1054
7028,998,1057
7029,1003,1063
7030,1009,1072
7031,1013,1069
7032,1013,1066
7033,1013,1056
7034,1016,1050
7035,1019,1054
7036,1024,1057
7037,1028,1050
7038,1030,1046
7039,1029,1043
7040,1036,1045
7041,1037,1046
7042,1042,1047
7043,1043,1041
7044,1039,1040
7045,1032,1041
7046,1030,1046
7047,1030,1048
7048,1028,1051
7049,1020,1051
7050,1015,1043
7051,1005,1037
7052,998,1038
7053,995,1039
7054,993,1041
7055,990,1039
7056,987,1039
7057,983,1036
7058,980,1037
7059,984,1039
7060,985,1041
7061,983,1038
7062,980,1034
7063,971,1036
7064,970,1040
7065,972,1045
7066,974,1048
7067,977,1047
7068,975,1040
7069,975,1038
7070,972,1038
7071,972,1042
7072,975,1044
7073,972,1045
7074,969,1042
7075,970,1046
7076,970,1046
7077,974,1050
7078,980,1048
7079,981,1049
7080,982,1052
7081,981,1054
7082,986,1046
7083,998,1038
7084,1018,1029
7085,1045,1024
7086,1080,1022
7087,1123,1025
7088,1174,1039
7089,1227,1071
7090,1275,1118
7091,1300,1157
7092,1297,1193
7093,1252,1213
7094,1170,1221
7095,1075,1213
7096,994,1209
7097,941,1208
7098,918,1212
7099,920,1223
7100,927,1246
7101,928,1263
7102,926,1281
7103,922,1288
7104,913,1290
7105,903,1298
7106,895,1308
7107,894,1322
7108,898,1336
7109,902,1347
7110,899,1352
7111,893,1343
7112,891,1327
7113,894,1303
7114,895,1271
7115,903,1232
7116,908,1194
7117,913,1152
7118,921,1119
7119,933,1090
7120,946,1075
7121,959,1060
7122,972,1048
7123,983,1035
7124,989,1030
7125,1000,1030
7126,1002,1027
7127,1006,1023
7128,1007,1019
7129,1009,1014
7130,1009,1014
7131,1014,1011
7132,1020,1010
7133,1022,1004
7134,1020,1001
7135,1020,995
7136,1021,997
7137,1023,998
7138,1026,1001
7139,1027,995
7140,1029,994
7141,1028,987
7142,1026,984
7143,1026,985
7144,1032,986
7145,1031,984
7146,1031,980
7147,1029,979
7148,1031,976
7149,1030,975
7150,1038,974
7151,1041,966
7152,1040,963
7153,1042,958
7154,1042,956
7155,1043,957
7156,1047,953
7157,1053,952
7158,1053,940
7159,1054,934
7160,1059,927
7161,1062,925
7162,1066,925
7163,1070,924
7164,1070,919
7165,1069,915
7166,1075,911
7167,1080,908
7168,1086,909
7169,1090,907
7170,1091,903
7171,1089,900
7172,1089,903
7173,1092,910
7174,1094,912
7175,1097,915
7176,1098,916
7177,1096,913
7178,1092,918
7179,1091,926
7180,1090,937
7181,1088,942
7182,1082,949
7183,1076,955
7184,1071,960
7185,1066,968
7186,1062,976
7187,1063,979
7188,1058,984
7189,1050,987
7190,1043,996
7191,1038,1006
7192,1036,1016
7193,1034,1020
7194,1031,1021
7195,1026,1019
7196,1022,1021
7197,1019,1025
7198,1017,1032
7199,1014,1034
7200,1011,1035
7201,1006,1037
7202,1004,1039
7203,1002,1038
7204,1001,1041
7205,1003,1038
7206,1001,1039
7207,997,1039
7208,991,1037
7209,990,1046
7210,991,1048
7211,994,1048
7212,995,1045
7213,994,1040
7214,993,1040
7215,996,1039
7216,994,1042
7217,998,1045
7218,994,1042
7219,990,1045
7220,991,1043
7221,991,1044
7222,996,1046
7223,997,1045
7224,997,1038
7225,994,1037
7226,992,1036
7227,991,1039
7228,995,1046
7229,998,1047
7230,998,1042
7231,996,1036
7232,996,1034
7233,999,1038
7234,1001,1040
7235,1000,1041
7236,1002,1039
7237,998,1040
7238,998,1039
7239,999,1041
7240,1003,1040
7241,1005,1039
7242,1006,1037
7243,1002,1034
7244,998,1036
7245,995,1041
7246,1000,1045
7247,1002,1046
7248,1001,1041
7249,1000,1034
7250,997,1033
7251,998,1035
7252,1000,1041
7253,1002,1041
7254,997,1039
7255,997,1038
7256,996,1039
7257,998,1039
7258,1004,1041
7259,1002,1037
7260,999,1034
7261,995,1033
7262,991,1034
7263,992,1038
7264,996,1043
7265,998,1041
7266,999,1042
7267,998,1042
7268,1000,1043
7269,1001,1049
7270,1005,1053
7271,1008,1055
7272,1009,1055
7273,1013,1055
7274,1017,1057
7275,1020,1059
7276,1025,1059
7277,1030,1048
7278,1035,1041
7279,1029,1039
7280,1031,1034
7281,1037,1040
7282,1043,1041
7283,1049,1041
7284,1049,1041
7285,1047,1039
7286,1048,1036
7287,1048,1037
7288,1051,1043
7289,1049,1043
7290,1043,1040
7291,1035,1038
7292,1029,1040
7293,1022,1043
7294,1018,1045
7295,1013,1040
7296,1005,1036
7297,994,1029
7298,992,1035
7299,988,1041
7300,989,1045
7301,988,1041
7302,985,1039
7303,980,1031
7304,979,1030
7305,982,1035
7306,981,1037
7307,981,1035
7308,978,1035
7309,975,1035
7310,972,1037
7311,977,1040
7312,981,1039
7313,978,1032
7314,974,1031
7315,974,1033
7316,973,1036
7317,974,1043
7318,977,1044
7319,981,1041
7320,982,1037
7321,984,1037
7322,983,1038
7323,984,1045
7324,992,1040
7325,998,1027
7326,1009,1016
7327,1028,1010
7328,1061,1013
7329,1109,1024
7330,1165,1036
7331,1217,1062
7332,1264,1104
7333,1291,1141
7334,1289,1181
7335,1235,1204
7336,1151,1209
7337,1051,1200
7338,968,1188
7339,919,1190
7340,911,1199
7341,920,1214
7342,929,1234
7343,925,1250
7344,916,1261
7345,905,1268
7346,899,1279
7347,895,1289
7348,888,1299
7349,892,1304
7350,891,1319
7351,891,1328
7352,885,1329
7353,883,1322
7354,879,1304
7355,882,1274
7356,884,1239
7357,889,1198
7358,893,1164
7359,901,1131
7360,915,1103
7361,927,1079
7362,940,1061
7363,953,1047
7364,964,1038
7365,975,1032
7366,984,1025
7367,988,1020
7368,988,1014
7369,987,1010
7370,986,1007
7371,991,1007
7372,998,1011
7373,1002,1005
7374,1003,996
7375,999,992
7376,998,990
7377,996,991
7378,1000,995
7379,1003,994
7380,1003,992
7381,1005,986
7382,1003,981
7383,1002,981
7384,1008,979
7385,1008,976
7386,1007,975
7387,1007,974
7388,1008,971
7389,1011,969
7390,1016,970
7391,1021,967
7392,1020,959
7393,1020,953
7394,1017,948
7395,1019,950
7396,1022,951
7397,1024,947
7398,1028,940
7399,1029,935
7400,1029,928
7401,1032,925
7402,1035,924
7403,1041,917
7404,1042,916
7405,1041,911
7406,1041,911
7407,1045,912
7408,1050,914
7409,1058,910
7410,1056,903
7411,1057,899
7412,1055,900
7413,1057,904
7414,1064,913
7415,1068,916
7416,1067,915
7417,1065,919
7418,1062,919
7419,1061,924
7420,1069,933
7421,1064,937
7422,1056,939
7423,1050,945
7424,1038,954
7425,1036,963
7426,1039,974
7427,1038,978
7428,1031,976
7429,1023,977
7430,1015,979
7431,1012,989
7432,1013,1000
7433,1010,1004
7434,1006,1013
7435,1000,1012
7436,995,1015
7437,993,1016
7438,992,1023
7439,993,1025
7440,987,1021
7441,979,1023
7442,974,1027
7443,972,1033
7444,975,1036
7445,973,1036
7446,974,1032
7447,971,1032
7448,966,1031
7449,968,1033
7450,965,1039
7451,964,1041
7452,963,1041
7453,963,1037
7454,960,1038
7455,961,1033
7456,966,1038
7457,968,1036
7458,969,1035
7459,964,1033
7460,960,1034
7461,957,1040
7462,964,1045
7463,966,1039
7464,967,1038
7465,966,1032
7466,966,1031
7467,965,1034
7468,967,1035
7469,968,1037
7470,968,1037
7471,964,1036
7472,966,1034
7473,966,1038
7474,970,1039
7475,971,1036
7476,972,1032
7477,970,1028
7478,964,1031
7479,967,1038
7480,967,1040
7481,969,1039
7482,966,1037
7483,966,1033
7484,966,1032
7485,966,1030
7486,968,1039
7487,966,1035
7488,965,1034
7489,961,1036
7490,961,1041
7491,960,1041
7492,962,1040
7493,967,1039
7494,968,1034
7495,964,1032
7496,962,1030
7497,960,1037
7498,960,1040
7499,964,1039
7500,967,1041
7501,964,1042
7502,964,1044
7503,966,1045
7504,968,1047
7505,970,1047
7506,972,1047
7507,973,1045
7508,975,1049
7509,980,1054
7510,982,1057
7511,985,1052
7512,985,1045
7513,987,1039
7514,990,1039
7515,994,1036
7516,998,1033
7517,1004,1033
7518,1009,1032
7519,1012,1031
7520,1009,1035
7521,1012,1037
7522,1014,1038
7523,1012,1036
7524,1010,1034
7525,1004,1032
7526,997,1033
7527,993,1037
7528,987,1042
7529,983,1039
7530,976,1037
7531,968,1030
7532,962,1030
7533,959,1033
7534,956,1032
7535,953,1033
7536,951,1032
7537,948,1032
7538,946,1033
7539,944,1034
7540,947,1032
7541,946,1031
7542,944,1028
7543,941,1029
7544,938,1032
7545,938,1033
7546,938,1040
7547,940,1038
7548,942,1035
7549,941,1031
7550,941,1028
7551,941,1029
7552,944,1036
7553,945,1037
7554,943,1036
7555,942,1034
7556,941,1034
7557,942,1035
7558,948,1039
7559,952,1042
7560,952,1039
7561,952,1031
7562,957,1018
7563,971,1014
7564,992,1012
7565,1025,1018
7566,1067,1019
7567,1118,1030
7568,1171,1052
7569,1219,1087
7570,1252,1122
7571,1262,1152
7572,1223,1178
7573,1147,1185
7574,1048,1182
7575,961,1176
7576,906,1176
7577,886,1178
7578,888,1185
7579,895,1196
7580,895,1215
7581,891,1228
7582,885,1244
7583,879,1251
7584,870,1257
7585,863,1259
7586,856,1266
7587,862,1278
7588,865,1296
7589,866,1308
7590,862,1313
7591,855,1310
7592,851,1299
7593,852,1277
7594,857,1254
7595,862,1220
7596,870,1180
7597,876,1149
7598,881,1113
7599,890,1088
7600,905,1070
7601,918,1058
7602,930,1047
7603,942,1038
7604,949,1027
7605,956,1025
7606,960,1024
7607,963,1019
7608,964,1014
7609,967,1008
7610,965,1009
7611,968,1012
7612,977,1009
7613,979,1002
7614,979,996
7615,976,992
7616,977,991
7617,976,992
7618,980,995
7619,981,996
7620,981,994
7621,982,988
7622,982,986
7623,985,982
7624,989,981
7625,991,979
7626,991,977
7627,989,975
7628,988,974
7629,993,973
7630,999,973
7631,1002,969
7632,1008,962
7633,1006,952
7634,1006,947
7635,1005,950
7636,1006,948
7637,1008,947
7638,1011,940
7639,1013,932
7640,1016,926
7641,1019,925
7642,1025,922
7643,1029,916
7644,1030,914
7645,1031,911
7646,1031,912
7647,1037,911
7648,1043,912
7649,1046,910
7650,1050,902
7651,1052,897
7652,1053,898
7653,1055,901
7654,1058,905
7655,1060,910
7656,1058,912
7657,1057,915
7658,1057,919
7659,1060,923
7660,1060,930
7661,1058,931
7662,1054,936
7663,1044,942
7664,1038,952
7665,1033,959
7666,1031,972
7667,1031,975
7668,1025,979
7669,1017,980
7670,1010,988
7671,1005,997
7672,996,1007
7673,993,1013
7674,989,1021
7675,986,1019
7676,981,1023
7677,981,1030
7678,976,1029
7679,981,1032
7680,977,1033
7681,972,1034
7682,968,1037
7683,965,1042
7684,965,1047
7685,968,1046
7686,967,1044
7687,963,1041
7688,959,1039
7689,961,1043
7690,961,1045
7691,962,1048
7692,961,1048
7693,962,1046
7694,962,1047
7695,961,1047
7696,964,1049
7697,968,1047
7698,966,1043
7699,964,1038
7700,958,1041
7701,963,1048
7702,968,1053
7703,970,1049
7704,974,1045
7705,974,1040
7706,973,1041
7707,973,1042
7708,975,1046
7709,977,1046
7710,978,1045
7711,974,1043
7712,969,1046
7713,973,1042
7714,977,1048
7715,980,1043
7716,977,1039
7717,976,1039
7718,971,1040
7719,973,1046
7720,975,1048
7721,976,1049
7722,980,1044
7723,977,1041
7724,976,1038
7725,977,1039
7726,979,1043
7727,979,1042
7728,977,1040
7729,974,1041
7730,971,1042
7731,976,1041
7732,979,1040
7733,982,1037
7734,982,1033
7735,978,1028
7736,975,1032
7737,977,1039
7738,981,1041
7739,984,1043
7740,986,1040
7741,985,1038
7742,985,1034
7743,987,1037
7744,987,1045
7745,990,1049
7746,992,1049
7747,994,1045
7748,999,1049
7749,1003,1051
7750,1007,1054
7751,1012,1049
7752,1011,1044
7753,1014,1038
7754,1011,1037
7755,1015,1038
7756,1021,1038
7757,1027,1033
7758,1035,1032
7759,1034,1032
7760,1036,1032
7761,1038,1031
7762,1042,1035
7763,1042,1035
7764,1038,1038
7765,1034,1038
7766,1030,1042
7767,1024,1044
7768,1025,1048
7769,1023,1043
7770,1014,1042
7771,1000,1040
7772,994,1036
7773,992,1041
7774,988,1044
7775,988,1048
7776,984,1045
7777,980,1038
7778,976,1036
7779,978,1040
7780,980,1042
7781,980,1039
7782,977,1038
7783,974,1043
7784,968,1043
7785,974,1045
7786,980,1050
7787,982,1046
7788,980,1044
7789,979,1040
7790,974,1042
7791,974,1042
7792,977,1048
7793,981,1050
7794,979,1050
7795,976,1048
7796,978,1045
7797,979,1044
7798,981,1048
7799,983,1044
7800,984,1045
7801,982,1050
7802,982,1053
7803,987,1050
7804,997,1044
7805,1010,1036
7806,1029,1025
7807,1052,1023
7808,1086,1023
7809,1131,1027
7810,1182,1040
7811,1234,1070
7812,1276,1107
7813,1305,1145
7814,1304,1184
7815,1262,1209
7816,1188,1215
7817,1101,1206
7818,1012,1197
7819,948,1196
7820,919,1199
7821,922,1214
7822,933,1231
7823,939,1249
7824,933,1256
7825,926,1264
7826,918,1274
7827,914,1283
7828,909,1294
7829,904,1303
7830,905,1311
7831,905,1326
7832,905,1338
7833,908,1346
7834,908,1345
7835,905,1328
7836,899,1305
7837,898,1272
7838,900,1244
7839,910,1213
7840,919,1185
7841,927,1149
7842,935,1119
7843,940,1090
7844,951,1069
7845,970,1058
7846,987,1053
7847,998,1042
7848,1003,1033
7849,1003,1029
7850,1005,1027
7851,1009,1031
7852,1012,1032
7853,1014,1026
7854,1014,1018
7855,1017,1012
7856,1021,1011
7857,1024,1011
7858,1028,1010
7859,1028,1008
7860,1026,1004
7861,1024,999
7862,1026,1003
7863,1029,1005
7864,1032,1005
7865,1037,1000
7866,1033,997
7867,1032,991
7868,1035,987
7869,1033,990
7870,1037,993
7871,1039,991
7872,1039,985
7873,1038,982
7874,1034,979
7875,1040,980
7876,1046,975
7877,1052,974
7878,1051,967
7879,1046,962
7880,1043,959
7881,1043,964
7882,1050,961
7883,1057,959
7884,1058,948
7885,1060,940
7886,1061,936
7887,1065,935
7888,1070,931
7889,1073,929
7890,1074,924
7891,1075,920
7892,1077,920
7893,1082,917
7894,1091,917
7895,1093,913
7896,1094,907
7897,1096,904
7898,1093,902
7899,1095,905
7900,1101,915
7901,1104,916
7902,1103,918
7903,1104,919
7904,1099,921
7905,1103,923
7906,1102,930
7907,1100,936
7908,1094,942
7909,1088,944
7910,1080,954
7911,1079,963
7912,1078,971
7913,1077,977
7914,1072,976
7915,1066,981
7916,1061,987
7917,1056,994
7918,1050,1004
7919,1047,1011
7920,1044,1018
7921,1038,1022
7922,1035,1025
7923,1033,1027
7924,1032,1033
7925,1032,1032
7926,1026,1034
7927,1017,1036
7928,1013,1041
7929,1010,1045
7930,1011,1051
7931,1008,1052
7932,1006,1050
7933,1004,1045
7934,1002,1047
7935,1003,1049
7936,1005,1050
7937,1003,1050
7938,1000,1051
7939,995,1050
7940,994,1050
7941,992,1055
7942,998,1054
7943,999,1052
7944,998,1045
7945,994,1044
7946,989,1051
7947,993,1052
7948,992,1054
7949,997,1057
7950,995,1054
7951,995,1051
7952,995,1049
7953,998,1049
7954,1001,1051
7955,1001,1048
7956,1000,1046
7957,998,1049
7958,995,1053
7959,993,1055
7960,998,1054
7961,1001,1053
7962,1003,1047
7963,1003,1044
7964,1000,1045
7965,1000,1046
7966,1001,1052
7967,1003,1050
7968,1002,1049
7969,997,1046
7970,999,1045
7971,1003,1048
7972,1006,1048
7973,1009,1047
7974,1007,1043
7975,1002,1040
7976,997,1044
7977,998,1048
7978,1002,1055
7979,1003,1052
7980,999,1048
7981,997,1045
7982,1000,1043
7983,999,1045
7984,999,1047
7985,998,1049
7986,994,1049
7987,992,1045
7988,991,1049
7989,996,1050
7990,998,1048
7991,999,1047
7992,998,1042
7993,995,1043
7994,993,1042
7995,992,1047
7996,992,1052
7997,992,1054
7998,993,1051
7999,992,1044
8000,993,1045
8001,993,1050
8002,997,1053
8003,998,1055
8004,999,1054
8005,998,1053
8006,1003,1056
8007,1008,1061
8008,1015,1065
8009,1020,1063
8010,1022,1054
8011,1021,1046
8012,1023,1046
8013,1025,1046
8014,1034,1044
8015,1038,1042
8016,1042,1039
8017,1040,1037
8018,1042,1039
8019,1046,1043
8020,1049,1042
8021,1048,1043
8022,1043,1043
8023,1035,1041
8024,1037,1045
8025,1032,1047
8026,1031,1050
8027,1024,1045
8028,1014,1039
8029,1004,1035
8030,998,1035
8031,995,1039
8032,994,1042
8033,989,1040
8034,985,1036
8035,982,1037
8036,981,1035
8037,981,1037
8038,982,1039
8039,980,1035
8040,975,1035
8041,975,1036
8042,972,1039
8043,972,1041
8044,974,1044
8045,977,1042
8046,978,1038
8047,976,1035
8048,974,1035
8049,974,1041
8050,974,1043
8051,973,1046
8052,976,1044
8053,974,1040
8054,975,1040
8055,978,1039
8056,983,1043
8057,984,1045
8058,985,1049
8059,985,1049
8060,987,1039
8061,999,1030
8062,1018,1023
8063,1046,1022
8064,1083,1020
8065,1127,1022
8066,1177,1038
8067,1231,1077
8068,1278,1124
8069,1301,1166
8070,1291,1198
8071,1233,1210
8072,1141,1215
8073,1039,1208
8074,958,1206
8075,919,1206
8076,912,1217
8077,925,1230
8078,930,1249
8079,924,1267
8080,916,1278
8081,911,1286
8082,905,1288
8083,896,1295
8084,890,1305
8085,891,1322
8086,894,1339
8087,896,1344
8088,896,1346
8089,892,1342
8090,891,1333
8091,887,1314
8092,890,1292
8093,893,1259
8094,896,1225
8095,899,1189
8096,908,1154
8097,918,1124
8098,932,1100
8099,943,1073
8100,958,1056
8101,968,1045
8102,977,1038
8103,987,1035
8104,993,1034
8105,997,1028
8106,997,1023
8107,997,1021
8108,1003,1016
8109,1009,1016
8110,1010,1014
8111,1013,1011
8112,1011,1005
8113,1009,1001
8114,1008,1001
8115,1010,1006
8116,1012,1007
8117,1014,1004
8118,1015,999
8119,1012,991
8120,1015,992
8121,1017,989
8122,1021,992
8123,1022,989
8124,1019,987
8125,1019,982
8126,1018,984
8127,1021,985
8128,1029,983
8129,1033,976
8130,1029,970
8131,1028,963
8132,1031,960
8133,1035,962
8134,1038,962
8135,1038,959
8136,1044,951
8137,1042,946
8138,1044,941
8139,1049,938
8140,1055,938
8141,1058,932
8142,1060,926
8143,1058,922
8144,1057,918
8145,1062,924
8146,1068,923
8147,1072,916
8148,1073,908
8149,1073,904
8150,1075,905
8151,1076,908
8152,1080,912
8153,1082,912
8154,1079,911
8155,1076,914
8156,1081,918
8157,1082,922
8158,1086,927
8159,1087,929
8160,1080,928
8161,1073,932
8162,1071,939
8163,1069,950
8164,1066,957
8165,1065,962
8166,1061,963
8167,1060,967
8168,1058,973
8169,1053,980
8170,1051,988
8171,1045,990
8172,1038,999
8173,1030,1002
8174,1023,1009
8175,1021,1020
8176,1021,1024
8177,1020,1026
8178,1016,1024
8179,1009,1025
8180,1003,1026
8181,997,1035
8182,997,1042
8183,996,1047
8184,994,1045
8185,989,1042
8186,987,1043
8187,987,1046
8188,988,1047
8189,986,1046
8190,981,1043
8191,974,1043
8192,972,1047
8193,972,1050
8194,975,1055
8195,976,1054
8196,977,1049
8197,974,1046
8198,973,1046
8199,972,1046
8200,972,1052
8201,972,1053
8202,973,1053
8203,972,1051
8204,971,1051
8205,972,1052
8206,976,1053
8207,977,1048
8208,976,1044
8209,978,1040
8210,974,1044
8211,974,1048
8212,976,1052
8213,976,1052
8214,978,1053
8215,979,1044
8216,979,1043
8217,978,1046
8218,982,1043
8219,982,1044
8220,978,1041
8221,975,1041
8222,972,1043
8223,974,1047
8224,975,1050
8225,981,1047
8226,980,1044
8227,977,1040
8228,973,1039
8229,977,1042
8230,978,1043
8231,975,1046
8232,971,1045
8233,968,1046
8234,964,1048
8235,964,1051
8236,969,1053
8237,971,1051
8238,972,1045
8239,966,1040
8240,962,1042
8241,964,1047
8242,964,1052
8243,965,1051
8244,967,1050
8245,963,1047
8246,962,1045
8247,963,1049
8248,966,1051
8249,966,1049
8250,963,1045
8251,956,1046
8252,955,1048
8253,956,1053
8254,960,1059
8255,964,1055
8256,961,1054
8257,963,1050
8258,963,1049
8259,963,1051
8260,964,1057
8261,964,1059
8262,964,1060
8263,963,1060
8264,965,1063
8265,970,1064
8266,978,1069
8267,984,1066
8268,987,1062
8269,986,1060
8270,983,1058
8271,984,1056
8272,987,1063
8273,992,1056
8274,1000,1047
8275,1002,1039
8276,1010,1042
8277,1011,1043
8278,1019,1044
8279,1020,1047
8280,1018,1044
8281,1015,1042
8282,1010,1048
8283,1009,1053
8284,1009,1055
8285,1006,1053
8286,1003,1045
8287,996,1047
8288,985,1043
8289,978,1045
8290,974,1048
8291,969,1049
8292,962,1047
8293,957,1043
8294,954,1045
8295,956,1047
8296,957,1049
8297,956,1048
8298,954,1040
8299,950,1040
8300,949,1042
8301,945,1049
8302,947,1050
8303,946,1052
8304,943,1047
8305,940,1043
8306,942,1042
8307,943,1046
8308,945,1051
8309,944,1048
8310,942,1042
8311,932,1045
8312,935,1046
8313,939,1054
8314,943,1053
8315,944,1051
8316,943,1046
8317,945,1042
8318,943,1047
8319,946,1050
8320,947,1060
8321,955,1062
8322,955,1049
8323,962,1035
8324,974,1024
8325,998,1019
8326,1029,1021
8327,1072,1024
8328,1113,1031
8329,1164,1049
8330,1211,1087
8331,1252,1129
8332,1269,1163
8333,1251,1190
8334,1191,1201
8335,1103,1197
8336,1010,1192
8337,940,1188
8338,895,1194
8339,884,1201
8340,895,1212
8341,896,1226
8342,896,1242
8343,889,1253
8344,888,1263
8345,881,1271
8346,873,1275
8347,862,1285
8348,856,1294
8349,859,1312
8350,866,1325
8351,869,1336
8352,864,1333
8353,858,1327
8354,853,1310
8355,850,1294
8356,853,1270
8357,858,1240
8358,863,1205
8359,872,1170
8360,879,1143
8361,889,1112
8362,902,1088
8363,914,1070
8364,925,1056
8365,937,1047
8366,942,1041
8367,952,1042
8368,958,1045
8369,961,1037
8370,962,1031
8371,965,1022
8372,965,1018
8373,967,1017
8374,969,1016
8375,972,1014
8376,972,1013
8377,968,1010
8378,969,1010
8379,972,1009
8380,977,1008
8381,980,1001
8382,981,997
8383,976,992
8384,973,992
8385,975,998
8386,981,997
8387,982,996
8388,981,987
8389,977,980
8390,981,979
8391,986,978
8392,989,980
8393,991,974
8394,987,971
8395,989,965
8396,989,966
8397,995,965
8398,1001,961
8399,1004,952
8400,1005,947
8401,1003,941
8402,1004,939
8403,1004,938
8404,1010,941
8405,1015,936
8406,1013,930
8407,1015,926
8408,1018,922
8409,1022,923
8410,1028,923
8411,1030,919
8412,1025,916
8413,1028,917
8414,1026,918
8415,1032,924
8416,1034,927
8417,1040,927
8418,1040,927
8419,1041,927
8420,1037,926
8421,1035,934
8422,1038,945
8423,1039,951
8424,1033,952
8425,1028,958
8426,1023,963
8427,1023,969
8428,1021,977
8429,1018,978
8430,1014,981
8431,1004,985
8432,997,993
8433,993,1002
8434,992,1013
8435,989,1016
8436,986,1023
8437,980,1020
8438,974,1023
8439,973,1031
8440,970,1032
8441,969,1040
8442,963,1038
8443,959,1041
8444,952,1045
8445,952,1051
8446,953,1055
8447,954,1051
8448,949,1049
8449,945,1049
8450,941,1049
8451,943,1056
8452,944,1060
8453,946,1059
8454,940,1060
8455,942,1055
8456,941,1055
8457,943,1057
8458,945,1058
8459,945,1055
8460,943,1052
8461,939,1055
8462,938,1058
8463,942,1061
8464,940,1060
8465,947,1060
8466,947,1053
8467,944,1051
8468,943,1048
8469,945,1050
8470,947,1052
8471,949,1055
8472,950,1055
8473,949,1053
8474,949,1051
8475,951,1054
8476,955,1052
8477,955,1052
8478,952,1051
8479,946,1053
8480,943,1058
8481,947,1056
8482,951,1058
8483,953,1056
8484,953,1051
8485,953,1047
8486,951,1047
8487,951,1052
8488,952,1057
8489,953,1059
8490,954,1055
8491,953,1054
8492,953,1051
8493,955,1052
8494,956,1058
8495,957,1055
8496,952,1053
8497,948,1053
8498,948,1056
8499,950,1061
8500,956,1061
8501,958,1060
8502,957,1054
8503,956,1052
8504,954,1056
8505,953,1061
8506,957,1074
8507,962,1074
8508,965,1070
8509,967,1067
8510,969,1064
8511,976,1068
8512,983,1071
8513,985,1068
8514,983,1063
8515,981,1060
8516,987,1055
8517,994,1060
8518,1001,1057
8519,1014,1051
8520,1014,1046
8521,1013,1048
8522,1012,1048
8523,1012,1055
8524,1013,1061
8525,1012,1064
8526,1011,1064
8527,1007,1060
8528,1005,1057
8529,998,1059
8530,997,1058
