'sample #','MLII','V1'
0,1022,901
1,1022,901
2,1022,901
3,1022,901
4,1022,901
5,1022,901
6,1022,901
7,1022,901
8,1022,900
9,1017,902
10,1010,905
11,1004,913
12,999,913
13,994,918
14,992,919
15,989,919
16,988,922
17,985,923
18,979,925
19,973,927
20,962,927
21,956,928
22,950,927
23,947,929
24,944,929
25,943,936
26,945,946
27,945,950
28,946,954
29,945,959
30,947,963
31,946,966
32,945,971
33,945,973
34,941,972
35,942,972
36,944,970
37,953,963
38,960,958
39,969,954
40,981,950
41,992,940
42,997,934
43,1000,926
44,1001,919
45,1003,914
46,1006,910
47,1008,908
48,1009,908
49,1014,910
50,1013,907
51,1007,908
52,998,905
53,986,903
54,971,903
55,959,896
56,948,891
57,939,889
58,934,884
59,931,886
60,924,888
61,924,892
62,924,889
63,926,891
64,929,892
65,930,890
66,929,886
67,927,882
68,927,883
69,923,883
70,923,884
71,922,886
72,925,886
73,926,886
74,927,887
75,928,888
76,924,889
77,923,889
78,924,894
79,926,896
80,926,902
81,927,910
82,923,918
83,918,920
84,912,907
85,912,869
86,923,811
87,948,733
88,989,650
89,1045,576
90,1113,523
91,1187,488
92,1267,476
93,1339,477
94,1395,484
95,1417,494
96,1400,504
97,1348,515
98,1276,531
99,1196,550
100,1110,583
101,1026,631
102,949,693
103,880,748
104,822,792
105,782,818
106,759,830
107,760,838
108,778,841
109,804,848
110,832,852
111,855,860
112,868,867
113,874,871
114,872,873
115,864,874
116,854,872
117,847,871
118,843,872
119,844,875
120,843,878
121,845,881
122,843,883
123,840,887
124,838,891
125,837,891
126,838,894
127,840,892
128,842,893
129,843,895
130,840,894
131,839,896
132,836,901
133,836,902
134,837,906
135,838,908
136,841,913
137,844,918
138,847,922
139,846,922
140,843,923
141,842,923
142,843,926
143,847,932
144,854,936
145,861,943
146,865,947
147,869,951
148,870,953
149,873,955
150,878,958
151,882,955
152,889,961
153,896,961
154,901,962
155,907,968
156,912,968
157,916,972
158,921,973
159,928,974
160,936,977
161,945,977
162,953,979
163,958,980
164,964,979
165,968,976
166,972,973
167,976,972
168,982,970
169,993,970
170,1003,972
171,1012,973
172,1019,970
173,1026,969
174,1033,964
175,1038,961
176,1044,954
177,1054,947
178,1060,944
179,1068,942
180,1075,940
181,1079,942
182,1084,946
183,1086,949
184,1089,952
185,1096,953
186,1102,954
187,1104,958
188,1100,958
189,1097,960
190,1091,959
191,1084,957
192,1079,954
193,1074,949
194,1070,949
195,1061,948
196,1049,950
197,1042,953
198,1031,957
199,1022,958
200,1011,962
201,1003,966
202,995,970
203,989,975
204,983,981
205,978,983
206,973,984
207,971,982
208,969,979
209,969,972
210,971,965
211,971,957
212,969,950
213,961,949
214,953,943
215,943,944
216,935,942
217,933,939
218,930,938
219,929,933
220,926,929
221,924,926
222,921,923
223,919,922
224,913,920
225,914,917
226,913,915
227,913,910
228,914,909
229,915,909
230,916,910
231,918,908
232,921,908
233,923,909
234,926,906
235,929,907
236,931,905
237,928,911
238,926,913
239,920,915
240,916,913
241,914,899
242,917,869
243,928,818
244,949,759
245,982,693
246,1025,633
247,1082,584
248,1155,550
249,1240,533
250,1326,523
251,1397,519
252,1446,518
253,1459,520
254,1437,518
255,1387,518
256,1326,524
257,1255,542
258,1179,585
259,1106,646
260,1033,714
261,952,772
262,880,811
263,824,835
264,796,845
265,791,848
266,812,850
267,840,853
268,865,859
269,881,861
270,883,865
271,875,865
272,864,866
273,850,864
274,845,867
275,842,868
276,838,873
277,842,877
278,843,880
279,840,883
280,838,886
281,834,889
282,833,892
283,829,895
284,826,898
285,819,899
286,816,899
287,811,900
288,810,903
289,808,906
290,811,912
291,813,916
292,814,922
293,815,925
294,811,925
295,811,927
296,806,926
297,803,928
298,802,935
299,804,938
300,804,943
301,804,948
302,809,952
303,811,953
304,815,955
305,819,955
306,824,960
307,828,959
308,835,964
309,841,963
310,845,965
311,848,963
312,854,961
313,863,960
314,874,962
315,885,963
316,898,966
317,906,964
318,914,966
319,921,962
320,923,953
321,934,948
322,944,944
323,951,942
324,961,939
325,969,936
326,978,936
327,987,932
328,995,927
329,1003,924
330,1012,918
331,1020,916
332,1024,912
333,1021,912
334,1021,911
335,1020,912
336,1021,909
337,1023,908
338,1024,907
339,1024,907
340,1023,910
341,1021,910
342,1016,909
343,1009,909
344,1006,906
345,1002,905
346,997,902
347,990,904
348,985,906
349,983,909
350,976,913
351,975,916
352,974,919
353,974,917
354,972,913
355,965,915
356,959,918
357,953,919
358,946,920
359,942,925
360,938,928
361,937,931
362,933,933
363,932,936
364,925,939
365,926,939
366,921,940
367,918,940
368,915,937
369,913,933
370,909,935
371,909,934
372,904,934
373,904,934
374,903,935
375,903,933
376,907,933
377,913,933
378,913,931
379,913,929
380,911,929
381,906,927
382,904,927
383,904,924
384,903,921
385,905,921
386,905,920
387,909,920
388,905,921
389,906,924
390,907,923
391,906,922
392,904,922
393,904,920
394,905,917
395,903,913
396,898,912
397,898,916
398,899,917
399,905,918
400,908,919
401,912,921
402,911,919
403,909,917
404,904,917
405,900,914
406,896,915
407,901,917
408,902,920
409,904,926
410,908,931
411,909,937
412,911,941
413,913,950
414,914,959
415,915,968
416,913,974
417,913,978
418,915,974
419,913,967
420,914,959
421,917,951
422,925,945
423,933,943
424,943,941
425,951,938
426,956,933
427,959,929
428,960,924
429,961,918
430,961,914
431,964,915
432,966,919
433,968,919
434,967,919
435,966,916
436,963,913
437,956,906
438,946,904
439,935,899
440,924,896
441,911,896
442,901,895
443,892,897
444,885,895
445,884,894
446,888,895
447,891,898
448,895,900
449,899,900
450,898,900
451,898,899
452,893,898
453,891,893
454,889,892
455,888,889
456,889,891
457,891,894
458,892,897
459,892,900
460,892,903
461,892,908
462,889,911
463,891,920
464,888,929
465,887,936
466,880,929
467,875,907
468,877,863
469,890,798
470,918,722
471,965,645
472,1022,577
473,1094,523
474,1178,487
475,1268,470
476,1346,466
477,1401,470
478,1419,480
479,1397,492
480,1340,509
481,1263,532
482,1175,574
483,1086,637
484,1002,712
485,920,777
486,848,824
487,794,850
488,762,858
489,760,857
490,777,855
491,802,856
492,827,855
493,845,862
494,852,865
495,849,868
496,842,873
497,833,877
498,825,881
499,820,882
500,819,882
501,820,880
502,820,880
503,818,880
504,816,885
505,813,889
506,810,896
507,808,898
508,807,903
509,807,904
510,809,904
511,808,906
512,807,907
513,804,906
514,800,909
515,799,910
516,799,915
517,799,916
518,802,916
519,807,919
520,811,926
521,807,930
522,810,930
523,814,932
524,815,935
525,818,934
526,819,932
527,823,936
528,826,940
529,826,944
530,829,950
531,834,958
532,840,963
533,846,964
534,853,967
535,860,968
536,859,967
537,863,971
538,865,975
539,870,981
540,874,986
541,883,988
542,895,995
543,901,996
544,908,1000
545,915,1001
546,922,1003
547,927,1004
548,936,1006
549,944,1005
550,949,1006
551,955,1008
552,961,1010
553,965,1010
554,971,1009
555,980,1013
556,989,1015
557,998,1015
558,1007,1014
559,1013,1012
560,1020,1007
561,1024,1004
562,1027,1002
563,1030,1000
564,1035,996
565,1041,993
566,1051,990
567,1052,986
568,1060,981
569,1061,979
570,1062,969
571,1061,967
572,1064,959
573,1068,956
574,1067,949
575,1067,945
576,1063,943
577,1062,940
578,1057,937
579,1055,939
580,1054,939
581,1055,937
582,1049,935
583,1045,934
584,1041,930
585,1033,927
586,1024,927
587,1017,926
588,1014,930
589,1006,934
590,1003,934
591,998,938
592,995,936
593,990,935
594,983,936
595,977,937
596,971,937
597,969,938
598,964,937
599,960,937
600,954,940
601,952,940
602,949,942
603,948,945
604,952,950
605,955,956
606,955,960
607,957,967
608,954,970
609,949,973
610,946,973
611,944,973
612,946,973
613,950,970
614,956,968
615,962,965
616,967,960
617,974,953
618,978,944
619,981,936
620,984,924
621,988,920
622,992,918
623,993,916
624,994,917
625,995,915
626,994,915
627,996,914
628,995,914
629,992,910
630,984,908
631,974,906
632,961,904
633,944,902
634,933,897
635,923,893
636,916,890
637,914,889
638,909,889
639,912,893
640,911,894
641,910,895
642,911,892
643,910,891
644,908,888
645,909,885
646,908,884
647,907,883
648,903,886
649,903,887
650,905,886
651,907,885
652,910,887
653,911,884
654,915,884
655,915,887
656,913,891
657,911,896
658,907,905
659,905,912
660,902,920
661,900,915
662,898,897
663,900,859
664,913,803
665,941,731
666,982,650
667,1031,576
668,1093,515
669,1162,468
670,1236,445
671,1310,436
672,1373,438
673,1404,447
674,1394,461
675,1351,475
676,1282,491
677,1195,514
678,1103,557
679,1015,625
680,935,702
681,870,768
682,816,811
683,780,835
684,762,846
685,764,844
686,786,844
687,812,845
688,838,849
689,855,854
690,863,856
691,860,859
692,855,860
693,847,862
694,840,864
695,834,862
696,831,864
697,829,870
698,826,871
699,828,874
700,827,877
701,831,879
702,831,879
703,831,880
704,827,882
705,825,882
706,818,885
707,814,888
708,812,891
709,813,890
710,812,896
711,813,900
712,811,899
713,813,903
714,812,903
715,812,906
716,813,910
717,815,912
718,816,912
719,814,914
720,813,916
721,812,922
722,813,923
723,817,930
724,821,934
725,825,939
726,833,942
727,839,943
728,842,944
729,842,945
730,849,946
731,850,949
732,857,951
733,865,958
734,875,963
735,883,965
736,893,968
737,897,971
738,904,972
739,910,973
740,917,974
741,923,975
742,932,979
743,942,978
744,950,981
745,957,980
746,967,980
747,975,979
748,983,977
749,993,977
750,1003,976
751,1013,976
752,1019,975
753,1024,975
754,1028,971
755,1032,966
756,1036,961
757,1042,955
758,1048,954
759,1055,954
760,1061,954
761,1066,954
762,1066,950
763,1064,945
764,1066,942
765,1061,936
766,1064,932
767,1063,930
768,1062,931
769,1062,927
770,1058,924
771,1056,921
772,1052,921
773,1051,919
774,1048,913
775,1044,913
776,1043,912
777,1039,911
778,1032,908
779,1025,907
780,1019,906
781,1014,907
782,1009,909
783,1008,911
784,1005,913
785,1005,916
786,1001,915
787,995,918
788,988,918
789,982,914
790,975,915
791,970,916
792,969,918
793,963,921
794,959,925
795,955,929
796,951,933
797,948,935
798,946,935
799,944,934
800,942,935
801,940,939
802,937,944
803,935,948
804,930,953
805,927,958
806,926,963
807,925,970
808,927,974
809,929,972
810,934,970
811,937,965
812,938,959
813,942,950
814,947,943
815,955,935
816,960,930
817,966,923
818,972,917
819,976,913
820,979,914
821,981,913
822,985,910
823,986,907
824,987,905
825,986,900
826,985,901
827,981,896
828,972,896
829,960,895
830,949,895
831,937,895
832,930,894
833,923,893
834,916,890
835,910,887
836,906,885
837,900,881
838,898,880
839,898,878
840,897,880
841,902,881
842,904,883
843,905,881
844,908,883
845,906,885
846,905,884
847,902,886
848,903,880
849,901,878
850,902,877
851,905,872
852,905,875
853,905,874
854,906,877
855,906,880
856,908,887
857,910,898
858,911,903
859,910,912
860,907,911
861,903,893
862,903,857
863,908,795
864,932,717
865,970,631
866,1019,556
867,1083,495
868,1163,453
869,1243,429
870,1323,417
871,1388,416
872,1429,416
873,1435,419
874,1402,425
875,1341,434
876,1259,445
877,1168,465
878,1077,503
879,996,566
880,927,644
881,870,722
882,827,783
883,799,818
884,787,833
885,793,831
886,809,827
887,829,825
888,851,825
889,869,833
890,880,839
891,878,846
892,878,851
893,873,852
894,868,855
895,864,856
896,860,854
897,854,852
898,851,855
899,851,859
900,852,863
901,853,866
902,853,871
903,853,875
904,854,875
905,852,877
906,852,880
907,851,884
908,847,884
909,848,886
910,847,887
911,846,889
912,843,892
913,842,892
914,841,896
915,841,899
916,842,904
917,846,911
918,849,912
919,852,915
920,853,916
921,850,914
922,850,915
923,852,915
924,855,920
925,859,922
926,866,928
927,872,935
928,879,941
929,884,946
930,886,948
931,891,948
932,896,948
933,902,951
934,908,953
935,914,955
936,920,961
937,927,966
938,934,970
939,940,971
940,948,973
941,955,975
942,963,974
943,970,976
944,979,978
945,982,981
946,989,977
947,994,975
948,999,977
949,1007,982
950,1017,980
951,1029,979
952,1040,984
953,1048,984
954,1055,981
955,1060,977
956,1063,974
957,1066,970
958,1071,965
959,1077,957
960,1080,956
961,1082,955
962,1085,951
963,1084,952
964,1085,949
965,1089,945
966,1090,937
967,1092,934
968,1091,930
969,1088,927
970,1085,923
971,1078,919
972,1072,919
973,1069,918
974,1066,919
975,1069,913
976,1069,912
977,1067,911
978,1063,908
979,1056,909
980,1046,908
981,1039,903
982,1032,902
983,1029,898
984,1023,899
985,1018,900
986,1015,902
987,1012,906
988,1011,911
989,1008,911
990,1001,911
991,996,911
992,992,911
993,984,910
994,977,913
995,966,914
996,961,916
997,955,919
998,950,921
999,949,922
1000,948,925
1001,948,922
1002,946,928
1003,940,929
1004,932,932
1005,932,934
1006,932,934
1007,928,939
1008,931,942
1009,933,944
1010,931,950
1011,931,955
1012,931,963
1013,930,966
1014,929,967
1015,935,964
1016,938,959
1017,945,954
1018,953,950
1019,954,949
1020,959,948
1021,962,947
1022,969,941
1023,975,936
1024,986,928
1025,994,919
1026,1000,913
1027,1004,906
1028,1003,905
1029,1002,905
1030,998,903
1031,995,904
1032,988,903
1033,981,900
1034,971,899
1035,959,896
1036,946,898
1037,935,893
1038,923,893
1039,917,891
1040,911,891
1041,911,888
1042,910,883
1043,913,883
1044,911,880
1045,910,881
1046,910,881
1047,910,883
1048,911,888
1049,913,887
1050,915,887
1051,913,883
1052,911,881
1053,907,878
1054,906,876
1055,903,877
1056,906,877
1057,907,884
1058,912,887
1059,913,895
1060,912,906
1061,911,916
1062,907,925
1063,901,927
1064,900,913
1065,900,881
1066,906,820
1067,928,748
1068,963,671
1069,1012,604
1070,1064,549
1071,1125,518
1072,1195,499
1073,1267,493
1074,1336,498
1075,1386,504
1076,1400,516
1077,1376,531
1078,1314,543
1079,1227,565
1080,1128,596
1081,1031,645
1082,946,698
1083,872,746
1084,813,781
1085,762,800
1086,732,813
1087,724,824
1088,738,834
1089,763,844
1090,794,853
1091,821,862
1092,838,866
1093,843,869
1094,842,870
1095,841,872
1096,837,877
1097,835,876
1098,830,879
1099,828,881
1100,825,880
1101,822,879
1102,821,878
1103,822,880
1104,821,883
1105,820,886
1106,821,893
1107,819,892
1108,819,893
1109,819,895
1110,820,895
1111,821,895
1112,821,896
1113,821,900
1114,820,903
1115,819,906
1116,815,908
1117,818,908
1118,820,909
1119,824,910
1120,829,917
1121,832,920
1122,835,927
1123,837,930
1124,837,932
1125,837,933
1126,842,932
1127,847,931
1128,853,935
1129,860,940
1130,866,948
1131,869,953
1132,875,958
1133,880,961
1134,885,960
1135,889,958
1136,899,959
1137,903,959
1138,905,961
1139,909,964
1140,912,967
1141,918,967
1142,930,968
1143,938,966
1144,949,965
1145,957,965
1146,965,967
1147,970,966
1148,974,967
1149,980,964
1150,988,959
1151,996,956
1152,1001,950
1153,1011,948
1154,1019,947
1155,1021,944
1156,1027,945
1157,1030,938
1158,1032,935
1159,1034,928
1160,1038,921
1161,1041,917
1162,1043,914
1163,1043,912
1164,1043,910
1165,1043,910
1166,1042,911
1167,1046,907
1168,1047,907
1169,1045,905
1170,1044,903
1171,1038,902
1172,1031,896
1173,1025,896
1174,1018,897
1175,1012,900
1176,1008,898
1177,1004,900
1178,1004,904
1179,998,905
1180,994,909
1181,987,908
1182,981,912
1183,973,913
1184,968,913
1185,966,913
1186,962,914
1187,955,915
1188,949,917
1189,947,919
1190,941,924
1191,936,928
1192,937,930
1193,934,932
1194,931,930
1195,926,929
1196,920,929
1197,915,927
1198,907,928
1199,905,935
1200,903,937
1201,906,940
1202,909,947
1203,908,952
1204,910,953
1205,910,956
1206,910,959
1207,909,963
1208,908,971
1209,910,976
1210,911,977
1211,913,978
1212,914,972
1213,919,968
1214,921,964
1215,929,963
1216,940,962
1217,947,961
1218,957,955
1219,960,947
1220,964,937
1221,963,927
1222,962,918
1223,963,917
1224,967,916
1225,971,918
1226,974,921
1227,973,921
1228,971,916
1229,964,913
1230,954,909
1231,940,905
1232,927,901
1233,917,900
1234,908,897
1235,900,898
1236,892,898
1237,890,899
1238,889,895
1239,889,893
1240,890,894
1241,893,894
1242,892,893
1243,895,889
1244,890,888
1245,885,883
1246,885,882
1247,883,882
1248,882,881
1249,887,885
1250,890,888
1251,891,891
1252,892,890
1253,890,891
1254,889,891
1255,889,891
1256,889,896
1257,887,905
1258,887,915
1259,881,923
1260,877,919
1261,873,900
1262,874,856
1263,886,792
1264,914,716
1265,958,633
1266,1017,567
1267,1082,522
1268,1155,494
1269,1228,481
1270,1296,475
1271,1353,477
1272,1389,480
1273,1396,488
1274,1369,502
1275,1310,514
1276,1233,534
1277,1145,565
1278,1046,612
1279,958,674
1280,877,730
1281,815,777
1282,763,807
1283,732,827
1284,725,836
1285,740,841
1286,764,845
1287,791,846
1288,815,855
1289,832,857
1290,837,861
1291,835,863
1292,829,866
1293,820,868
1294,812,867
1295,807,870
1296,805,869
1297,806,872
1298,809,872
1299,809,878
1300,810,880
1301,811,884
1302,807,885
1303,801,884
1304,799,885
1305,796,883
1306,798,882
1307,796,887
1308,799,889
1309,798,895
1310,798,899
1311,795,901
1312,794,904
1313,794,904
1314,794,904
1315,798,906
1316,796,908
1317,796,911
1318,791,913
1319,793,915
1320,795,922
1321,798,924
1322,801,928
1323,805,930
1324,811,933
1325,816,935
1326,816,936
1327,819,941
1328,821,942
1329,825,946
1330,829,945
1331,835,948
1332,842,952
1333,848,955
1334,856,959
1335,863,964
1336,870,970
1337,876,969
1338,884,968
1339,893,968
1340,895,967
1341,904,966
1342,907,965
1343,913,964
1344,919,967
1345,929,968
1346,942,970
1347,952,971
1348,964,968
1349,971,966
1350,979,963
1351,985,961
1352,990,956
1353,999,952
1354,1005,949
1355,1013,944
1356,1019,942
1357,1025,939
1358,1031,938
1359,1030,937
1360,1033,934
1361,1036,931
1362,1041,929
1363,1044,923
1364,1047,919
1365,1047,915
1366,1044,910
1367,1041,909
1368,1037,909
1369,1035,907
1370,1033,908
1371,1032,907
1372,1033,909
1373,1033,906
1374,1031,903
1375,1024,901
1376,1018,899
1377,1011,899
1378,1004,898
1379,1000,897
1380,995,900
1381,993,905
1382,987,905
1383,985,907
1384,980,910
1385,972,912
1386,968,914
1387,961,913
1388,958,915
1389,951,916
1390,946,915
1391,940,918
1392,933,920
1393,929,923
1394,923,926
1395,923,931
1396,922,935
1397,922,943
1398,922,948
1399,920,950
1400,916,954
1401,915,958
1402,911,965
1403,912,970
1404,911,977
1405,914,980
1406,916,982
1407,917,978
1408,920,973
1409,925,968
1410,933,962
1411,941,956
1412,948,949
1413,952,942
1414,959,932
1415,960,924
1416,961,918
1417,966,914
1418,970,912
1419,976,914
1420,981,917
1421,979,919
1422,977,919
1423,967,917
1424,956,911
1425,943,905
1426,930,901
1427,917,898
1428,905,898
1429,899,897
1430,890,897
1431,882,899
1432,883,896
1433,882,894
1434,883,889
1435,883,889
1436,884,889
1437,884,889
1438,880,888
1439,877,887
1440,874,886
1441,874,887
1442,876,888
1443,880,888
1444,885,889
1445,888,889
1446,887,889
1447,886,886
1448,882,887
1449,883,890
1450,880,891
1451,882,899
1452,876,910
1453,876,923
1454,873,929
1455,868,926
1456,866,904
1457,874,851
1458,895,777
1459,928,689
1460,976,602
1461,1038,530
1462,1110,481
1463,1195,451
1464,1278,445
1465,1352,446
1466,1388,455
1467,1376,466
1468,1327,478
1469,1251,487
1470,1156,501
1471,1064,530
1472,978,582
1473,906,654
1474,846,730
1475,796,791
1476,761,830
1477,743,851
1478,745,855
1479,764,855
1480,792,854
1481,820,855
1482,837,855
1483,842,860
1484,837,861
1485,829,865
1486,819,866
1487,808,869
1488,805,869
1489,806,873
1490,810,875
1491,811,878
1492,813,882
1493,814,883
1494,809,884
1495,805,886
1496,803,887
1497,799,888
1498,797,892
1499,797,892
1500,795,893
1501,794,896
1502,789,901
1503,790,904
1504,792,908
1505,794,909
1506,795,915
1507,797,915
1508,794,914
1509,794,915
1510,790,915
1511,789,919
1512,789,922
1513,793,929
1514,799,933
1515,803,937
1516,807,941
1517,810,943
1518,811,945
1519,815,949
1520,818,950
1521,824,953
1522,830,956
1523,836,958
1524,843,961
1525,849,965
1526,857,971
1527,870,976
1528,881,980
1529,891,982
1530,902,982
1531,909,983
1532,915,983
1533,922,979
1534,928,980
1535,937,982
1536,946,984
1537,957,984
1538,967,986
1539,973,982
1540,981,978
1541,989,976
1542,1003,971
1543,1012,970
1544,1019,967
1545,1027,963
1546,1028,956
1547,1030,953
1548,1031,948
1549,1035,947
1550,1035,946
1551,1043,943
1552,1046,945
1553,1047,942
1554,1047,937
1555,1041,932
1556,1036,926
1557,1032,918
1558,1028,915
1559,1029,915
1560,1025,915
1561,1021,914
1562,1017,911
1563,1014,908
1564,1010,909
1565,1006,906
1566,1005,907
1567,1001,907
1568,996,904
1569,991,904
1570,983,903
1571,974,903
1572,969,904
1573,963,904
1574,963,909
1575,959,915
1576,956,922
1577,952,925
1578,944,926
1579,939,924
1580,936,925
1581,933,925
1582,928,928
1583,927,931
1584,921,936
1585,918,941
1586,914,947
1587,910,954
1588,908,959
1589,908,963
1590,909,972
1591,909,978
1592,906,982
1593,905,982
1594,904,980
1595,906,973
1596,908,970
1597,918,965
1598,928,962
1599,937,960
1600,944,953
1601,950,946
1602,955,935
1603,957,923
1604,964,913
1605,970,908
1606,974,906
1607,977,905
1608,975,911
1609,973,909
1610,971,911
1611,965,907
1612,957,903
1613,947,901
1614,936,896
1615,925,895
1616,914,892
1617,907,888
1618,899,886
1619,896,883
1620,896,884
1621,900,885
1622,900,887
1623,900,888
1624,899,889
1625,903,887
1626,903,890
1627,901,886
1628,899,881
1629,899,883
1630,897,880
1631,894,879
1632,892,881
1633,894,882
1634,895,883
1635,897,883
1636,903,886
1637,909,888
1638,910,892
1639,909,899
1640,907,909
1641,902,918
1642,895,924
1643,891,916
1644,889,891
1645,893,844
1646,906,774
1647,937,695
1648,980,615
1649,1031,543
1650,1100,490
1651,1174,456
1652,1252,440
1653,1328,435
1654,1379,437
1655,1388,446
1656,1349,453
1657,1279,467
1658,1193,478
1659,1099,492
1660,1016,529
1661,943,589
1662,884,663
1663,835,732
1664,797,785
1665,766,819
1666,755,834
1667,757,840
1668,776,841
1669,801,845
1670,831,846
1671,848,851
1672,855,856
1673,853,859
1674,847,863
1675,838,863
1676,832,866
1677,828,867
1678,826,866
1679,826,867
1680,828,869
1681,827,873
1682,823,879
1683,821,883
1684,823,888
1685,824,890
1686,826,894
1687,826,893
1688,821,894
1689,818,892
1690,815,894
1691,816,896
1692,815,901
1693,819,907
1694,822,914
1695,825,918
1696,823,918
1697,820,917
1698,822,920
1699,825,920
1700,826,924
1701,826,927
1702,829,932
1703,834,936
1704,834,939
1705,839,940
1706,843,944
1707,848,950
1708,851,951
1709,856,955
1710,865,958
1711,870,963
1712,874,964
1713,881,965
1714,885,966
1715,890,968
1716,897,970
1717,910,973
1718,920,977
1719,924,979
1720,934,980
1721,943,981
1722,949,979
1723,954,982
1724,957,979
1725,964,978
1726,975,983
1727,980,981
1728,987,983
1729,992,983
1730,999,979
1731,1008,976
1732,1018,973
1733,1026,971
1734,1035,968
1735,1043,965
1736,1046,961
1737,1049,957
1738,1049,952
1739,1052,947
1740,1052,945
1741,1056,943
1742,1060,942
1743,1062,939
1744,1065,941
1745,1065,939
1746,1063,934
1747,1062,929
1748,1059,922
1749,1056,916
1750,1054,912
1751,1051,907
1752,1043,910
1753,1037,912
1754,1034,910
1755,1029,909
1756,1026,909
1757,1027,907
1758,1026,904
1759,1023,904
1760,1018,900
1761,1010,901
1762,1002,900
1763,993,903
1764,986,902
1765,982,906
1766,978,907
1767,974,911
1768,968,917
1769,963,919
1770,960,919
1771,953,921
1772,947,919
1773,941,919
1774,940,918
1775,933,921
1776,930,919
1777,924,926
1778,919,927
1779,917,932
1780,916,938
1781,916,942
1782,918,944
1783,917,946
1784,913,951
1785,908,955
1786,904,959
1787,903,966
1788,904,972
1789,906,973
1790,910,978
1791,914,977
1792,918,975
1793,922,968
1794,929,965
1795,936,960
1796,944,955
1797,951,947
1798,956,941
1799,959,931
1800,964,926
1801,968,923
1802,976,919
1803,983,917
1804,988,916
1805,990,918
1806,987,916
1807,977,912
1808,964,908
1809,948,906
1810,932,901
1811,919,898
1812,910,898
1813,904,896
1814,898,896
1815,895,895
1816,893,898
1817,893,896
1818,892,897
1819,895,894
1820,898,893
1821,897,890
1822,893,888
1823,892,885
1824,888,886
1825,889,888
1826,890,889
1827,896,893
1828,898,894
1829,899,894
1830,900,896
1831,900,897
1832,896,899
1833,893,905
1834,894,911
1835,891,920
1836,889,931
1837,887,935
1838,884,921
1839,880,892
1840,884,835
1841,904,760
1842,941,674
1843,995,601
1844,1060,544
1845,1136,509
1846,1216,494
1847,1293,491
1848,1359,503
1849,1396,515
1850,1389,531
1851,1342,549
1852,1266,562
1853,1174,580
1854,1078,602
1855,992,642
1856,919,690
1857,859,738
1858,808,780
1859,767,805
1860,739,829
1861,732,841
1862,742,850
1863,763,853
1864,791,861
1865,815,866
1866,831,871
1867,838,875
1868,838,878
1869,832,879
1870,824,879
1871,816,880
1872,811,881
1873,810,882
1874,812,884
1875,814,887
1876,815,892
1877,815,896
1878,819,894
1879,816,896
1880,812,895
1881,808,893
1882,805,892
1883,806,895
1884,804,898
1885,804,903
1886,806,907
1887,805,909
1888,807,911
1889,807,916
1890,810,914
1891,814,915
1892,815,919
1893,815,921
1894,815,926
1895,813,926
1896,812,932
1897,815,933
1898,819,937
1899,825,941
1900,829,949
1901,834,950
1902,837,953
1903,840,955
1904,842,955
1905,843,957
1906,848,956
1907,854,957
1908,860,960
1909,868,964
1910,875,972
1911,879,975
1912,886,979
1913,894,981
1914,902,979
1915,909,977
1916,918,979
1917,925,978
1918,930,977
1919,935,980
1920,939,977
1921,945,977
1922,952,975
1923,960,974
1924,967,969
1925,978,969
1926,982,966
1927,990,963
1928,995,959
1929,1001,954
1930,1006,945
1931,1011,942
1932,1017,938
1933,1022,932
1934,1028,932
1935,1031,931
1936,1034,931
1937,1035,932
1938,1038,928
1939,1038,924
1940,1041,918
1941,1041,913
1942,1036,909
1943,1034,908
1944,1028,909
1945,1025,910
1946,1021,910
1947,1021,909
1948,1021,906
1949,1020,906
1950,1017,903
1951,1011,905
1952,1002,905
1953,995,906
1954,990,907
1955,982,908
1956,980,908
1957,978,909
1958,970,913
1959,967,915
1960,960,919
1961,955,923
1962,952,925
1963,948,927
1964,944,926
1965,939,927
1966,932,924
1967,926,927
1968,918,930
1969,918,932
1970,917,935
1971,914,938
1972,913,940
1973,913,945
1974,908,945
1975,905,950
1976,900,954
1977,899,955
1978,897,959
1979,899,968
1980,903,972
1981,908,982
1982,913,985
1983,914,989
1984,915,986
1985,916,981
1986,921,974
1987,925,969
1988,932,968
1989,938,963
1990,938,956
1991,940,950
1992,943,942
1993,945,937
1994,953,929
1995,957,927
1996,967,925
1997,975,924
1998,980,922
1999,978,925
2000,976,920
2001,970,916
2002,960,912
2003,947,911
2004,934,910
2005,925,910
2006,913,909
2007,907,905
2008,899,906
2009,892,904
2010,888,899
2011,886,898
2012,885,897
2013,885,895
2014,887,896
2015,887,896
2016,886,895
2017,883,894
2018,881,893
2019,879,890
2020,882,891
2021,886,893
2022,886,894
2023,886,895
2024,888,893
2025,886,890
2026,885,886
2027,880,883
2028,878,885
2029,877,889
2030,877,897
2031,881,905
2032,879,918
2033,883,927
2034,879,931
2035,874,921
2036,875,890
2037,880,838
2038,897,765
2039,930,683
2040,978,605
2041,1038,542
2042,1110,502
2043,1192,477
2044,1277,471
2045,1352,474
2046,1404,480
2047,1415,490
2048,1386,502
2049,1318,513
2050,1230,525
2051,1134,552
2052,1034,597
2053,947,663
2054,870,728
2055,807,784
2056,762,819
2057,735,839
2058,732,847
2059,747,848
2060,771,848
2061,800,850
2062,823,854
2063,833,859
2064,835,861
2065,832,867
2066,824,871
2067,814,874
2068,810,878
2069,808,875
2070,810,879
2071,812,876
2072,812,879
2073,809,882
2074,807,884
2075,800,887
2076,800,888
2077,799,892
2078,801,892
2079,802,895
2080,803,896
2081,801,899
2082,800,903
2083,797,904
2084,796,905
2085,795,906
2086,795,908
2087,795,906
2088,792,911
2089,793,915
2090,791,921
2091,792,926
2092,797,927
2093,801,929
2094,807,930
2095,810,933
2096,812,937
2097,812,936
2098,814,938
2099,815,941
2100,817,949
2101,821,949
2102,832,953
2103,838,954
2104,846,955
2105,851,957
2106,856,961
2107,859,966
2108,864,966
2109,870,968
2110,877,968
2111,887,967
2112,893,970
2113,903,972
2114,911,973
2115,920,975
2116,927,978
2117,935,976
2118,949,976
2119,959,972
2120,967,971
2121,973,964
2122,977,964
2123,980,962
2124,990,958
2125,1000,958
2126,1009,955
2127,1018,951
2128,1025,949
2129,1031,944
2130,1032,941
2131,1037,939
2132,1038,938
2133,1040,933
2134,1042,932
2135,1043,925
2136,1041,920
2137,1040,918
2138,1038,917
2139,1038,915
2140,1037,918
2141,1039,914
2142,1038,909
2143,1029,908
2144,1022,906
2145,1016,905
2146,1011,901
2147,1006,902
2148,1002,901
2149,998,906
2150,997,903
2151,992,905
2152,987,906
2153,980,907
2154,973,910
2155,966,909
2156,965,910
2157,961,912
2158,955,915
2159,948,915
2160,942,918
2161,932,918
2162,929,924
2163,929,927
2164,928,930
2165,926,933
2166,924,938
2167,923,940
2168,918,944
2169,914,946
2170,912,950
2171,910,959
2172,910,969
2173,911,978
2174,910,983
2175,910,984
2176,911,982
2177,917,979
2178,922,972
2179,928,966
2180,937,962
2181,942,957
2182,947,949
2183,950,939
2184,950,930
2185,954,922
2186,959,919
2187,966,916
2188,974,918
2189,976,919
2190,975,917
2191,971,917
2192,964,911
2193,951,907
2194,943,904
2195,932,902
2196,922,902
2197,907,899
2198,896,897
2199,891,898
2200,884,896
2201,881,894
2202,881,893
2203,883,896
2204,882,895
2205,878,894
2206,878,891
2207,877,888
2208,877,887
2209,877,884
2210,877,883
2211,881,887
2212,882,890
2213,885,891
2214,882,892
2215,880,892
2216,877,888
2217,880,886
2218,877,885
2219,878,890
2220,878,898
2221,874,909
2222,872,922
2223,871,929
2224,870,932
2225,869,916
2226,872,885
2227,882,833
2228,900,766
2229,931,687
2230,970,608
2231,1025,546
2232,1093,497
2233,1173,465
2234,1257,452
2235,1334,451
2236,1382,458
2237,1392,464
2238,1351,473
2239,1280,486
2240,1187,503
2241,1084,541
2242,986,606
2243,901,681
2244,828,752
2245,774,801
2246,739,833
2247,728,849
2248,738,852
2249,761,850
2250,792,846
2251,819,848
2252,839,847
2253,842,853
2254,837,856
2255,824,859
2256,815,865
2257,809,863
2258,808,866
2259,807,868
2260,811,869
2261,812,874
2262,812,877
2263,809,877
2264,809,883
2265,808,881
2266,806,882
2267,808,886
2268,803,886
2269,801,888
2270,799,893
2271,799,896
2272,796,898
2273,799,900
2274,801,901
2275,800,902
2276,803,904
2277,801,905
2278,800,910
2279,799,910
2280,802,917
2281,806,921
2282,812,923
2283,819,929
2284,825,935
2285,827,937
2286,831,940
2287,833,942
2288,836,945
2289,844,947
2290,850,949
2291,855,951
2292,862,951
2293,872,953
2294,877,958
2295,886,961
2296,896,966
2297,908,969
2298,916,972
2299,925,978
2300,934,976
2301,938,974
2302,942,973
2303,946,973
2304,952,972
2305,962,973
2306,973,972
2307,982,975
2308,990,978
2309,999,977
2310,1004,975
2311,1011,973
2312,1021,970
2313,1030,967
2314,1041,966
2315,1047,963
2316,1051,961
2317,1053,957
2318,1054,953
2319,1055,950
2320,1056,945
2321,1061,946
2322,1067,942
2323,1072,938
2324,1071,935
2325,1069,930
2326,1066,926
2327,1059,918
2328,1056,917
2329,1053,914
2330,1052,915
2331,1051,913
2332,1046,912
2333,1043,912
2334,1037,911
2335,1033,907
2336,1027,903
2337,1022,900
2338,1021,897
2339,1019,895
2340,1012,894
2341,1004,896
2342,1000,896
2343,996,899
2344,989,900
2345,990,901
2346,987,902
2347,982,905
2348,975,908
2349,972,909
2350,960,911
2351,951,911
2352,944,913
2353,941,915
2354,940,918
2355,939,921
2356,937,923
2357,935,930
2358,931,931
2359,925,932
2360,917,935
2361,916,934
2362,912,936
2363,910,938
2364,910,946
2365,910,954
2366,909,962
2367,907,969
2368,909,973
2369,908,974
2370,909,971
2371,913,969
2372,915,963
2373,918,960
2374,921,957
2375,925,954
2376,931,951
2377,939,949
2378,947,943
2379,954,935
2380,962,928
2381,968,923
2382,972,913
2383,974,911
2384,975,907
2385,977,905
2386,975,903
2387,973,900
2388,969,897
2389,964,895
2390,957,896
2391,947,896
2392,935,895
2393,923,896
2394,915,894
2395,909,888
2396,904,884
2397,903,883
2398,902,882
2399,900,881
2400,898,882
2401,894,884
2402,893,883
2403,893,883
2404,898,884
2405,901,884
2406,901,881
2407,898,881
2408,899,879
2409,895,880
2410,894,875
2411,893,875
2412,894,874
2413,893,872
2414,893,876
2415,895,884
2416,894,889
2417,896,900
2418,898,912
2419,896,924
2420,892,930
2421,890,928
2422,886,910
2423,883,874
2424,891,817
2425,914,742
2426,948,662
2427,999,588
2428,1061,533
2429,1134,498
2430,1214,478
2431,1295,475
2432,1359,480
2433,1390,490
2434,1381,503
2435,1326,517
2436,1247,531
2437,1149,551
2438,1050,587
2439,962,641
2440,887,700
2441,830,752
2442,786,784
2443,752,805
2444,734,816
2445,729,825
2446,743,827
2447,763,835
2448,788,842
2449,810,849
2450,828,856
2451,837,859
2452,842,863
2453,840,861
2454,835,863
2455,830,867
2456,825,868
2457,819,868
2458,818,872
2459,816,871
2460,816,871
2461,816,874
2462,815,878
2463,816,880
2464,814,885
2465,813,887
2466,813,885
2467,814,889
2468,814,891
2469,817,892
2470,816,893
2471,815,893
2472,812,898
2473,811,895
2474,810,898
2475,808,901
2476,809,904
2477,813,909
2478,817,913
2479,822,918
2480,825,917
2481,827,920
2482,827,920
2483,827,920
2484,831,925
2485,833,931
2486,839,935
2487,847,942
2488,851,945
2489,859,954
2490,861,952
2491,867,953
2492,871,952
2493,876,954
2494,880,952
2495,887,957
2496,897,961
2497,903,962
2498,908,962
2499,915,961
2500,921,966
2501,929,968
2502,938,968
2503,947,971
2504,953,970
2505,958,966
2506,964,961
2507,968,958
2508,975,956
2509,984,954
2510,993,954
2511,1003,954
2512,1010,955
2513,1016,953
2514,1021,946
2515,1025,942
2516,1029,934
2517,1030,929
2518,1038,924
2519,1039,920
2520,1041,918
2521,1043,913
2522,1045,913
2523,1044,909
2524,1042,911
2525,1045,911
2526,1046,907
2527,1046,907
2528,1044,908
2529,1037,903
2530,1029,902
2531,1020,899
2532,1016,897
2533,1011,894
2534,1006,895
2535,1003,896
2536,997,901
2537,992,902
2538,990,903
2539,985,902
2540,982,902
2541,979,899
2542,973,901
2543,970,904
2544,960,906
2545,953,909
2546,949,913
2547,944,915
2548,942,914
2549,943,919
2550,937,921
2551,934,925
2552,924,927
2553,919,929
2554,912,928
2555,908,927
2556,909,927
2557,904,926
2558,905,931
2559,904,934
2560,903,943
2561,903,950
2562,901,953
2563,902,960
2564,902,963
2565,905,968
2566,902,973
2567,903,974
2568,903,976
2569,905,976
2570,908,978
2571,917,971
2572,926,967
2573,936,966
2574,944,961
2575,949,956
2576,952,949
2577,952,937
2578,954,933
2579,956,927
2580,958,926
2581,962,923
2582,968,922
2583,971,920
2584,968,920
2585,963,918
2586,957,913
2587,949,912
2588,938,909
2589,929,904
2590,917,900
2591,907,894
2592,896,891
2593,888,892
2594,883,892
2595,881,894
2596,884,898
2597,885,897
2598,888,896
2599,887,895
2600,886,893
2601,883,892
2602,880,892
2603,881,889
2604,879,890
2605,881,890
2606,881,888
2607,886,891
2608,886,890
2609,885,891
2610,885,888
2611,886,890
2612,884,889
2613,882,893
2614,883,894
2615,882,898
2616,881,909
2617,878,919
2618,875,929
2619,870,926
2620,869,905
2621,872,864
2622,887,799
2623,916,723
2624,956,641
2625,1011,574
2626,1074,523
2627,1150,494
2628,1229,481
2629,1304,477
2630,1366,480
2631,1403,487
2632,1407,498
2633,1374,511
2634,1314,524
2635,1232,537
2636,1143,559
2637,1049,597
2638,967,653
2639,896,712
2640,830,767
2641,777,801
2642,738,822
2643,721,834
2644,727,837
2645,744,844
2646,771,848
2647,802,857
2648,821,864
2649,832,867
2650,831,870
2651,824,867
2652,814,869
2653,805,869
2654,799,871
2655,800,876
2656,798,879
2657,801,883
2658,804,883
2659,802,886
2660,800,884
2661,793,885
2662,791,886
2663,788,886
2664,788,893
2665,788,895
2666,789,898
2667,792,899
2668,790,899
2669,789,904
2670,788,903
2671,786,904
2672,786,906
2673,785,905
2674,785,907
2675,785,914
2676,785,916
2677,784,917
2678,783,920
2679,784,923
2680,789,929
2681,793,931
2682,799,934
2683,801,938
2684,802,941
2685,804,941
2686,803,942
2687,802,940
2688,807,942
2689,814,945
2690,819,953
2691,826,955
2692,831,964
2693,838,967
2694,842,970
2695,850,968
2696,854,964
2697,861,963
2698,868,964
2699,875,967
2700,881,970
2701,887,970
2702,892,973
2703,897,974
2704,904,975
2705,913,974
2706,920,970
2707,929,968
2708,942,969
2709,948,967
2710,955,967
2711,960,963
2712,966,960
2713,971,953
2714,979,953
2715,989,949
2716,997,950
2717,1003,947
2718,1009,947
2719,1013,942
2720,1014,939
2721,1016,932
2722,1016,927
2723,1020,920
2724,1021,919
2725,1021,918
2726,1022,917
2727,1023,919
2728,1022,917
2729,1019,914
2730,1017,910
2731,1016,909
2732,1014,905
2733,1011,905
2734,1003,906
2735,994,904
2736,993,904
2737,983,904
2738,979,903
2739,979,902
2740,981,902
2741,979,907
2742,977,907
2743,971,911
2744,962,912
2745,957,911
2746,949,912
2747,944,911
2748,941,912
2749,935,914
2750,932,918
2751,926,925
2752,922,929
2753,916,933
2754,913,935
2755,911,936
2756,909,936
2757,906,935
2758,905,936
2759,901,938
2760,896,944
2761,890,952
2762,889,962
2763,889,968
2764,892,974
2765,893,983
2766,896,989
2767,895,990
2768,896,989
2769,894,983
2770,892,978
2771,900,972
2772,904,966
2773,913,966
2774,921,961
2775,929,958
2776,933,951
2777,937,945
2778,940,937
2779,941,932
2780,943,925
2781,949,922
2782,954,918
2783,956,917
2784,955,914
2785,950,912
2786,944,912
2787,936,914
2788,927,915
2789,920,914
2790,912,911
2791,905,911
2792,896,906
2793,887,903
2794,876,899
2795,866,896
2796,861,898
2797,860,899
2798,867,899
2799,869,902
2800,872,902
2801,873,900
2802,872,899
2803,870,897
2804,867,895
2805,866,893
2806,869,893
2807,869,891
2808,868,892
2809,869,891
2810,870,892
2811,869,893
2812,869,893
2813,869,894
2814,871,897
2815,872,901
2816,875,909
2817,872,918
2818,869,927
2819,863,929
2820,857,923
2821,857,901
2822,863,865
2823,880,812
2824,909,748
2825,949,671
2826,997,602
2827,1056,540
2828,1122,496
2829,1193,468
2830,1268,458
2831,1332,455
2832,1372,460
2833,1379,468
2834,1346,481
2835,1285,488
2836,1204,498
2837,1114,523
2838,1023,574
2839,940,646
2840,863,720
2841,799,781
2842,754,820
2843,727,840
2844,722,847
2845,736,848
2846,763,847
2847,794,849
2848,818,853
2849,833,861
2850,837,868
2851,830,870
2852,819,871
2853,811,871
2854,804,871
2855,797,872
2856,798,873
2857,797,876
2858,799,879
2859,798,884
2860,799,886
2861,795,887
2862,795,892
2863,795,892
2864,794,895
2865,792,896
2866,789,900
2867,786,901
2868,782,903
2869,780,906
2870,780,908
2871,785,911
2872,785,915
2873,786,919
2874,788,923
2875,788,926
2876,786,926
2877,785,929
2878,787,929
2879,788,930
2880,793,934
2881,796,938
2882,797,943
2883,802,948
2884,807,952
2885,814,956
2886,821,958
2887,831,958
2888,837,963
2889,841,967
2890,846,969
2891,851,969
2892,857,971
2893,862,971
2894,872,973
2895,884,975
2896,897,980
2897,905,984
2898,916,987
2899,924,985
2900,933,982
2901,944,979
2902,951,975
2903,960,974
2904,970,974
2905,975,976
2906,980,979
2907,986,976
2908,996,975
2909,1005,975
2910,1015,966
2911,1023,961
2912,1029,957
2913,1033,950
2914,1036,949
2915,1037,944
2916,1041,942
2917,1040,938
2918,1042,934
2919,1045,932
2920,1042,929
2921,1043,930
2922,1043,929
2923,1040,926
2924,1038,924
2925,1034,916
2926,1031,912
2927,1028,909
2928,1019,907
2929,1013,908
2930,1011,907
2931,1006,907
2932,1006,906
2933,1004,906
2934,1000,906
2935,996,908
2936,991,907
2937,986,907
2938,981,909
2939,980,910
2940,974,912
2941,970,911
2942,966,915
2943,959,921
2944,951,925
2945,944,927
2946,940,931
2947,939,934
2948,937,934
2949,932,935
2950,928,933
2951,922,935
2952,916,939
2953,911,944
2954,911,949
2955,911,956
2956,914,962
2957,916,972
2958,919,979
2959,919,981
2960,916,981
2961,915,978
2962,918,970
2963,920,966
2964,926,962
2965,933,959
2966,941,955
2967,948,951
2968,954,945
2969,961,940
2970,962,931
2971,969,922
2972,972,918
2973,977,914
2974,980,914
2975,979,910
2976,980,911
2977,976,907
2978,971,904
2979,967,901
2980,961,901
2981,952,901
2982,940,899
2983,928,896
2984,917,893
2985,906,890
2986,900,888
2987,898,884
2988,902,883
2989,905,885
2990,905,888
2991,904,889
2992,903,889
2993,898,888
2994,898,886
2995,898,886
2996,901,886
2997,901,886
2998,903,884
2999,902,882
3000,899,878
3001,899,878
3002,903,878
3003,901,882
3004,903,885
3005,904,896
3006,903,904
3007,900,913
3008,895,922
3009,890,918
3010,891,902
3011,895,865
3012,909,803
3013,938,726
3014,977,642
3015,1027,567
3016,1087,511
3017,1155,474
3018,1232,451
3019,1304,442
3020,1364,442
3021,1390,446
3022,1375,452
3023,1317,460
3024,1235,471
3025,1143,485
3026,1046,516
3027,965,574
3028,894,651
3029,839,726
3030,797,785
3031,767,827
3032,748,842
3033,749,846
3034,765,844
3035,791,842
3036,817,843
3037,837,849
3038,848,855
3039,848,863
3040,843,867
3041,836,870
3042,831,872
3043,829,874
3044,826,875
3045,824,873
3046,822,878
3047,821,880
3048,819,884
3049,815,887
3050,819,890
3051,820,891
3052,819,898
3053,818,901
3054,815,904
3055,814,906
3056,810,905
3057,809,905
3058,811,906
3059,814,905
3060,812,909
3061,813,913
3062,813,919
3063,814,924
3064,813,926
3065,818,928
3066,823,932
3067,830,935
3068,834,938
3069,836,939
3070,836,941
3071,837,944
3072,838,949
3073,843,952
3074,849,957
3075,856,962
3076,862,966
3077,865,969
3078,870,972
3079,877,972
3080,881,977
3081,888,977
3082,895,977
3083,904,976
3084,913,979
3085,920,980
3086,925,983
3087,931,984
3088,937,990
3089,944,989
3090,956,991
3091,965,989
3092,976,989
3093,986,985
3094,991,980
3095,994,978
3096,998,977
3097,1003,978
3098,1011,977
3099,1019,979
3100,1025,976
3101,1030,974
3102,1035,968
3103,1039,964
3104,1045,961
3105,1048,957
3106,1052,952
3107,1054,946
3108,1056,945
3109,1053,941
3110,1048,939
3111,1044,936
3112,1042,934
3113,1040,932
3114,1038,933
3115,1040,929
3116,1041,928
3117,1038,925
3118,1035,920
3119,1028,916
3120,1023,913
3121,1015,911
3122,1008,910
3123,1005,911
3124,1002,910
3125,1002,912
3126,997,913
3127,992,913
3128,986,912
3129,979,912
3130,975,916
3131,969,917
3132,966,917
3133,957,921
3134,955,923
3135,948,924
3136,944,926
3137,936,932
3138,938,931
3139,933,934
3140,926,936
3141,922,935
3142,915,937
3143,908,933
3144,902,931
3145,902,935
3146,900,939
3147,900,945
3148,900,953
3149,902,960
3150,899,966
3151,899,966
3152,896,969
3153,894,972
3154,891,981
3155,889,983
3156,888,985
3157,890,985
3158,896,981
3159,904,976
3160,913,972
3161,923,967
3162,933,965
3163,941,965
3164,943,962
3165,945,953
3166,949,944
3167,949,933
3168,951,926
3169,956,925
3170,964,922
3171,968,924
3172,970,924
3173,969,926
3174,964,923
3175,955,922
3176,945,919
3177,931,912
3178,920,908
3179,910,904
3180,901,905
3181,895,903
3182,890,901
3183,886,902
3184,881,902
3185,883,900
3186,884,899
3187,885,897
3188,884,896
3189,881,897
3190,884,893
3191,881,893
3192,882,893
3193,880,892
3194,879,892
3195,881,893
3196,883,894
3197,885,894
3198,888,895
3199,886,897
3200,889,896
3201,885,895
3202,884,900
3203,884,903
3204,884,908
3205,879,920
3206,877,932
3207,870,934
3208,867,923
3209,867,891
3210,880,831
3211,905,750
3212,948,666
3213,1003,591
3214,1075,541
3215,1151,509
3216,1234,500
3217,1311,497
3218,1374,505
3219,1405,516
3220,1396,526
3221,1347,538
3222,1276,555
3223,1188,573
3224,1095,605
3225,1004,651
3226,920,709
3227,843,756
3228,780,795
3229,735,826
3230,719,841
3231,721,852
3232,745,860
3233,774,867
3234,801,873
3235,820,876
3236,833,880
3237,832,881
3238,826,883
3239,819,881
3240,808,883
3241,803,885
3242,802,887
3243,803,893
3244,808,895
3245,809,895
3246,808,896
3247,805,895
3248,801,898
3249,796,902
3250,794,903
3251,793,904
3252,794,905
3253,792,906
3254,792,908
3255,790,910
3256,792,911
3257,794,915
3258,800,920
3259,804,923
3260,807,926
3261,806,927
3262,806,931
3263,804,931
3264,804,935
3265,808,939
3266,810,944
3267,815,948
3268,820,949
3269,825,955
3270,830,954
3271,833,957
3272,839,959
3273,844,963
3274,850,964
3275,857,967
3276,861,970
3277,864,971
3278,868,971
3279,874,973
3280,882,977
3281,892,979
3282,901,984
3283,910,983
3284,919,982
3285,924,980
3286,929,979
3287,937,975
3288,944,976
3289,953,974
3290,962,975
3291,970,975
3292,974,974
3293,977,970
3294,987,965
3295,993,961
3296,1001,958
3297,1005,953
3298,1009,949
3299,1013,943
3300,1013,937
3301,1017,935
3302,1020,931
3303,1023,928
3304,1027,928
3305,1032,930
3306,1034,928
3307,1032,924
3308,1028,920
3309,1023,916
3310,1017,913
3311,1013,909
3312,1012,910
3313,1009,908
3314,1007,910
3315,1001,915
3316,996,916
3317,994,917
3318,988,916
3319,984,912
3320,982,911
3321,978,911
3322,973,912
3323,964,916
3324,957,915
3325,948,918
3326,946,921
3327,941,922
3328,939,927
3329,936,929
3330,932,932
3331,928,935
3332,920,938
3333,915,937
3334,908,936
3335,904,936
3336,899,937
3337,897,941
3338,894,944
3339,896,951
3340,896,954
3341,893,960
3342,892,965
3343,895,968
3344,895,972
3345,897,977
3346,895,984
3347,894,990
3348,892,991
3349,892,991
3350,897,985
3351,904,979
3352,914,977
3353,923,973
3354,931,971
3355,937,965
3356,940,957
3357,941,949
3358,945,941
3359,949,935
3360,952,929
3361,955,929
3362,956,929
3363,956,930
3364,954,930
3365,950,930
3366,942,928
3367,933,923
3368,924,918
3369,914,913
3370,901,908
3371,890,905
3372,882,905
3373,874,905
3374,870,907
3375,873,907
3376,878,907
3377,878,907
3378,877,904
3379,874,901
3380,871,903
3381,870,901
3382,869,898
3383,868,899
3384,869,897
3385,866,898
3386,866,897
3387,865,897
3388,865,898
3389,871,902
3390,872,906
3391,875,908
3392,878,909
3393,876,919
3394,871,927
3395,863,935
3396,857,933
3397,852,917
3398,859,883
3399,875,826
3400,901,752
3401,944,676
3402,994,601
3403,1063,547
3404,1136,510
3405,1216,489
3406,1293,480
3407,1356,483
3408,1390,490
3409,1386,494
3410,1346,501
3411,1282,512
3412,1208,525
3413,1127,549
3414,1045,589
3415,965,649
3416,890,719
3417,821,775
3418,766,817
3419,727,839
3420,717,852
3421,729,856
3422,754,860
3423,787,863
3424,809,868
3425,825,872
3426,829,876
3427,820,876
3428,808,877
3429,800,880
3430,795,880
3431,793,883
3432,795,886
3433,794,889
3434,796,889
3435,794,891
3436,792,890
3437,790,894
3438,789,897
3439,789,899
3440,790,904
3441,788,904
3442,785,907
3443,781,907
3444,777,904
3445,774,906
3446,772,909
3447,776,913
3448,778,920
3449,781,926
3450,781,929
3451,783,927
3452,781,927
3453,782,930
3454,780,931
3455,783,933
3456,787,934
3457,788,942
3458,789,946
3459,792,948
3460,795,952
3461,797,954
3462,805,956
3463,811,960
3464,818,964
3465,822,967
3466,825,966
3467,828,970
3468,834,970
3469,839,971
3470,846,972
3471,855,977
3472,868,980
3473,878,983
3474,885,987
3475,891,987
3476,897,985
3477,903,981
3478,915,980
3479,923,978
3480,932,977
3481,942,976
3482,950,976
3483,959,976
3484,967,974
3485,974,972
3486,987,972
3487,995,968
3488,1002,966
3489,1009,961
3490,1010,956
3491,1011,954
3492,1012,947
3493,1015,946
3494,1021,942
3495,1025,941
3496,1030,940
3497,1031,938
3498,1033,938
3499,1031,932
3500,1029,930
3501,1026,924
3502,1022,919
3503,1021,914
3504,1016,914
3505,1010,915
3506,1007,920
3507,1000,917
3508,997,919
3509,994,920
3510,990,919
3511,990,919
3512,989,917
3513,984,918
3514,976,917
3515,970,918
3516,962,919
3517,956,923
3518,953,923
3519,951,925
3520,945,927
3521,941,931
3522,936,935
3523,929,936
3524,926,938
3525,921,939
3526,919,940
3527,916,936
3528,912,937
3529,910,941
3530,905,948
3531,901,954
3532,898,963
3533,895,970
3534,896,977
3535,897,986
3536,899,990
3537,897,994
3538,893,999
3539,892,999
3540,887,994
3541,890,993
3542,891,986
3543,901,983
3544,912,978
3545,918,979
3546,927,973
3547,931,965
3548,933,960
3549,935,952
3550,936,942
3551,940,937
3552,945,930
3553,950,926
3554,952,925
3555,954,929
3556,954,929
3557,950,928
3558,946,929
3559,940,925
3560,933,923
3561,923,919
3562,912,913
3563,899,909
3564,885,908
3565,874,907
3566,868,906
3567,865,909
3568,865,910
3569,870,909
3570,875,908
3571,874,904
3572,871,905
3573,870,902
3574,867,900
3575,866,899
3576,866,899
3577,868,900
3578,869,899
3579,868,900
3580,868,901
3581,869,902
3582,871,903
3583,872,904
3584,873,908
3585,875,909
3586,875,915
3587,871,922
3588,866,931
3589,860,940
3590,853,944
3591,850,934
3592,856,908
3593,868,869
3594,892,809
3595,925,732
3596,968,652
3597,1020,579
3598,1089,523
3599,1163,486
3600,1250,464
3601,1326,457
3602,1377,461
3603,1393,467
3604,1366,478
3605,1308,484
3606,1228,490
3607,1137,498
3608,1044,526
3609,962,577
3610,895,651
3611,839,726
3612,794,788
3613,759,830
3614,741,853
3615,740,857
3616,754,859
3617,780,857
3618,809,858
3619,828,861
3620,836,865
3621,831,871
3622,821,870
3623,810,872
3624,805,874
3625,804,877
3626,804,879
3627,806,886
3628,806,888
3629,806,890
3630,803,892
3631,801,893
3632,800,893
3633,801,895
3634,800,894
3635,800,897
3636,798,899
3637,795,900
3638,793,905
3639,792,909
3640,793,911
3641,796,914
3642,798,918
3643,798,920
3644,799,925
3645,798,923
3646,795,924
3647,793,925
3648,793,926
3649,798,930
3650,803,932
3651,809,940
3652,815,946
3653,820,949
3654,823,952
3655,826,954
3656,831,957
3657,835,960
3658,841,962
3659,848,967
3660,854,967
3661,858,970
3662,863,975
3663,870,977
3664,876,980
3665,885,981
3666,897,983
3667,907,986
3668,917,987
3669,926,990
3670,931,992
3671,933,994
3672,939,990
3673,944,990
3674,953,992
3675,962,992
3676,972,994
3677,981,994
3678,990,994
3679,996,993
3680,1003,996
3681,1014,989
3682,1023,987
3683,1031,983
3684,1037,976
3685,1039,974
3686,1041,973
3687,1045,972
3688,1049,971
3689,1052,969
3690,1056,967
3691,1059,963
3692,1061,959
3693,1062,955
3694,1061,952
3695,1059,947
3696,1055,946
3697,1050,945
3698,1047,942
3699,1046,941
3700,1045,938
3701,1045,935
3702,1042,933
3703,1038,930
3704,1031,929
3705,1027,928
3706,1021,925
3707,1017,921
3708,1013,915
3709,1010,915
3710,1004,915
3711,999,915
3712,996,919
3713,993,920
3714,988,923
3715,984,921
3716,978,923
3717,975,921
3718,972,923
3719,965,923
3720,958,924
3721,950,927
3722,943,930
3723,939,933
3724,935,935
3725,931,940
3726,927,941
3727,925,942
3728,920,942
3729,912,944
3730,909,945
3731,907,949
3732,906,952
3733,905,959
3734,902,962
3735,901,965
3736,897,969
3737,896,978
3738,892,983
3739,889,990
3740,890,995
3741,892,998
3742,897,995
3743,903,992
3744,905,985
3745,911,979
3746,916,974
3747,921,971
3748,929,971
3749,935,966
3750,945,961
3751,952,950
3752,957,941
3753,960,935
3754,961,928
3755,962,924
3756,964,923
3757,965,925
3758,964,928
3759,964,927
3760,960,927
3761,950,926
3762,939,922
3763,923,918
3764,910,914
3765,898,913
3766,891,910
3767,887,910
3768,883,908
3769,884,905
3770,881,905
3771,879,902
3772,880,904
3773,879,904
3774,885,908
3775,883,911
3776,886,909
3777,885,906
3778,881,907
3779,881,901
3780,881,900
3781,878,898
3782,877,899
3783,882,903
3784,884,904
3785,887,907
3786,889,909
3787,887,911
3788,883,914
3789,882,919
3790,879,926
3791,877,937
3792,874,948
3793,869,952
3794,868,944
3795,867,918
3796,880,869
3797,896,799
3798,931,718
3799,978,637
3800,1035,574
3801,1107,525
3802,1183,501
3803,1261,493
3804,1328,494
3805,1375,498
3806,1382,510
3807,1349,521
3808,1287,534
3809,1208,545
3810,1122,556
3811,1034,579
3812,956,620
3813,894,675
3814,845,731
3815,801,779
3816,765,811
3817,737,834
3818,726,847
3819,734,855
3820,752,862
3821,777,868
3822,801,872
3823,815,877
3824,826,881
3825,831,883
3826,827,885
3827,823,884
3828,813,885
3829,808,888
3830,805,892
3831,803,894
3832,806,895
3833,807,896
3834,810,899
3835,810,902
3836,808,902
3837,805,904
3838,803,908
3839,798,907
3840,796,909
3841,794,911
3842,793,915
3843,796,918
3844,798,920
3845,797,926
3846,799,929
3847,799,931
3848,799,931
3849,800,931
3850,802,931
3851,799,933
3852,802,934
3853,804,937
3854,804,938
3855,806,945
3856,809,950
3857,812,954
3858,818,957
3859,824,959
3860,831,963
3861,832,964
3862,835,965
3863,839,969
3864,842,969
3865,849,973
3866,855,974
3867,864,976
3868,870,977
3869,876,978
3870,880,984
3871,888,989
3872,891,991
3873,899,991
3874,912,992
3875,919,989
3876,925,986
3877,930,985
3878,937,986
3879,939,987
3880,948,987
3881,955,990
3882,964,989
3883,976,981
3884,984,982
3885,991,976
3886,996,970
3887,998,966
3888,1002,964
3889,1008,963
3890,1016,962
3891,1019,958
3892,1026,955
3893,1031,951
3894,1031,947
3895,1032,944
3896,1033,942
3897,1035,938
3898,1034,936
3899,1034,932
3900,1036,930
3901,1035,928
3902,1032,926
3903,1031,924
3904,1029,924
3905,1028,923
3906,1024,923
3907,1024,922
3908,1021,921
3909,1016,920
3910,1015,916
3911,1007,915
3912,1002,915
3913,994,914
3914,988,913
3915,986,916
3916,984,918
3917,983,921
3918,981,923
3919,977,924
3920,973,926
3921,965,924
3922,956,926
3923,949,924
3924,943,926
3925,939,930
3926,938,932
3927,935,933
3928,930,938
3929,926,940
3930,920,942
3931,915,946
3932,913,945
3933,911,949
3934,910,950
3935,910,951
3936,906,952
3937,902,957
3938,896,963
3939,895,969
3940,894,976
3941,896,982
3942,900,993
3943,903,997
3944,906,1001
3945,906,1001
3946,905,995
3947,909,986
3948,912,978
3949,918,976
3950,925,973
3951,933,973
3952,941,970
3953,947,965
3954,952,955
3955,952,944
3956,956,937
3957,959,931
3958,962,931
3959,965,929
3960,964,929
3961,960,930
3962,952,926
3963,944,924
3964,934,921
3965,924,921
3966,916,919
3967,906,916
3968,899,916
3969,890,915
3970,881,913
3971,874,910
3972,872,905
3973,867,906
3974,869,905
3975,873,904
3976,875,904
3977,875,907
3978,877,910
3979,876,908
3980,877,906
3981,875,907
3982,873,901
3983,873,899
3984,874,899
3985,872,898
3986,872,903
3987,874,901
3988,875,903
3989,874,907
3990,877,910
3991,877,916
3992,879,927
3993,877,936
3994,870,944
3995,864,939
3996,859,918
3997,862,878
3998,878,816
3999,910,742
4000,954,669
4001,1010,603
4002,1072,552
4003,1142,516
4004,1217,493
4005,1293,480
4006,1355,475
4007,1395,472
4008,1399,476
4009,1361,487
4010,1294,497
4011,1206,514
4012,1108,543
4013,1013,595
4014,927,666
4015,853,735
4016,795,795
4017,754,834
4018,735,851
4019,737,860
4020,755,859
4021,780,861
4022,804,861
4023,824,864
4024,835,868
4025,834,875
4026,829,878
4027,819,881
4028,814,882
4029,808,882
4030,806,881
4031,807,882
4032,808,882
4033,807,885
4034,805,888
4035,802,892
4036,800,896
4037,801,901
4038,801,906
4039,802,905
4040,802,907
4041,799,906
4042,794,908
4043,792,907
4044,790,910
4045,788,914
4046,789,918
4047,789,924
4048,790,923
4049,792,926
4050,793,933
4051,795,935
4052,795,941
4053,797,942
4054,800,943
4055,803,947
4056,804,946
4057,803,948
4058,805,949
4059,808,955
4060,814,958
4061,816,964
4062,824,968
4063,832,970
4064,841,972
4065,848,972
4066,850,974
4067,856,976
4068,862,977
4069,865,978
4070,877,982
4071,890,987
4072,895,986
4073,905,987
4074,911,989
4075,919,989
4076,924,990
4077,930,989
4078,936,988
4079,951,988
4080,960,986
4081,970,987
4082,979,987
4083,987,983
4084,993,980
4085,1001,979
4086,1013,980
4087,1019,979
4088,1028,976
4089,1032,971
4090,1032,965
4091,1032,960
4092,1032,955
4093,1039,953
4094,1040,953
4095,1045,948
4096,1048,948
4097,1050,948
4098,1050,943
4099,1048,939
4100,1047,935
4101,1044,931
4102,1038,929
4103,1036,926
4104,1034,925
4105,1026,925
4106,1022,921
4107,1020,920
4108,1016,918
4109,1012,917
4110,1014,917
4111,1012,915
4112,1010,919
4113,1002,918
4114,996,919
4115,990,918
4116,982,914
4117,973,916
4118,971,920
4119,966,921
4120,963,926
4121,960,931
4122,956,934
4123,951,934
4124,946,933
4125,939,933
4126,936,936
4127,933,935
4128,931,939
4129,929,944
4130,926,950
4131,924,955
4132,920,963
4133,917,969
4134,921,976
4135,918,983
4136,921,989
4137,914,995
4138,911,1000
4139,910,998
4140,908,993
4141,906,986
4142,914,980
4143,923,974
4144,932,972
4145,944,969
4146,952,964
4147,958,955
4148,959,946
4149,960,935
4150,962,929
4151,962,921
4152,965,916
4153,965,918
4154,967,922
4155,966,922
4156,962,924
4157,957,925
4158,950,923
4159,940,914
4160,929,910
4161,917,910
4162,905,907
4163,894,904
4164,884,901
4165,879,900
4166,879,899
4167,881,899
4168,885,902
4169,884,903
4170,885,904
4171,887,905
4172,888,905
4173,886,905
4174,888,900
4175,887,897
4176,888,894
4177,889,896
4178,886,892
4179,886,894
4180,886,896
4181,884,895
4182,888,900
4183,893,902
4184,894,910
4185,894,915
4186,890,925
4187,886,932
4188,880,932
4189,878,918
4190,883,885
4191,899,834
4192,927,762
4193,967,688
4194,1018,613
4195,1073,547
4196,1133,503
4197,1201,468
4198,1276,450
4199,1337,439
4200,1379,438
4201,1380,443
4202,1333,452
4203,1256,465
4204,1164,478
4205,1065,503
4206,979,554
4207,904,632
4208,845,709
4209,800,775
4210,770,818
4211,752,842
4212,748,848
4213,759,848
4214,779,847
4215,806,853
4216,827,858
4217,843,862
4218,853,868
4219,848,871
4220,842,874
4221,832,875
4222,826,876
4223,824,879
4224,821,880
4225,819,882
4226,817,885
4227,817,890
4228,813,893
4229,813,894
4230,815,899
4231,815,902
4232,817,905
4233,815,905
4234,813,905
4235,810,904
4236,805,904
4237,802,906
4238,802,912
4239,804,919
4240,807,923
4241,811,930
4242,811,931
4243,810,933
4244,810,932
4245,810,934
4246,811,937
4247,813,939
4248,816,941
4249,818,947
4250,822,951
4251,827,958
4252,828,959
4253,830,961
4254,832,965
4255,835,968
4256,844,970
4257,850,976
4258,857,979
4259,864,984
4260,868,984
4261,876,986
4262,880,988
4263,889,991
4264,896,990
4265,906,994
4266,914,996
4267,921,999
4268,927,1002
4269,931,1004
4270,934,1001
4271,940,1003
4272,946,998
4273,956,1000
4274,965,1000
4275,974,1000
4276,984,1004
4277,992,1004
4278,1002,1003
4279,1008,1000
4280,1012,995
4281,1018,990
4282,1023,987
4283,1027,984
4284,1032,982
4285,1035,981
4286,1037,978
4287,1040,976
4288,1043,975
4289,1047,971
4290,1046,970
4291,1049,964
4292,1050,962
4293,1051,958
4294,1048,956
4295,1045,952
4296,1043,951
4297,1040,946
4298,1038,941
4299,1037,940
4300,1037,937
4301,1037,936
4302,1033,933
4303,1029,929
4304,1024,928
4305,1017,927
4306,1011,925
4307,1004,921
4308,1000,919
4309,996,918
4310,989,920
4311,987,926
4312,982,929
4313,975,930
4314,970,930
4315,964,930
4316,964,929
4317,958,931
4318,950,933
4319,945,933
4320,935,935
4321,927,937
4322,920,939
4323,920,942
4324,916,943
4325,914,946
4326,912,950
4327,909,953
4328,906,956
4329,899,957
4330,893,954
4331,892,955
4332,893,957
4333,891,960
4334,891,967
4335,890,973
4336,887,982
4337,884,989
4338,888,994
4339,890,999
4340,894,999
4341,896,997
4342,900,989
4343,906,984
4344,912,979
4345,919,977
4346,925,975
4347,937,969
4348,943,962
4349,951,956
4350,955,951
4351,956,946
4352,957,942
4353,957,939
4354,956,937
4355,956,933
4356,953,931
4357,950,926
4358,939,925
4359,929,925
4360,913,923
4361,898,924
4362,887,922
4363,885,920
4364,883,921
4365,883,918
4366,886,917
4367,885,913
4368,886,913
4369,883,912
4370,880,911
4371,880,912
4372,879,913
4373,876,912
4374,876,911
4375,875,910
4376,876,912
4377,876,913
4378,876,910
4379,877,908
4380,879,905
4381,881,906
4382,881,903
4383,880,905
4384,881,913
4385,882,923
4386,882,934
4387,882,949
4388,878,956
4389,877,952
4390,871,932
4391,873,893
4392,884,829
4393,909,752
4394,951,673
4395,1013,602
4396,1085,556
4397,1170,527
4398,1250,515
4399,1329,516
4400,1384,523
4401,1403,533
4402,1379,543
4403,1319,558
4404,1233,576
4405,1133,597
4406,1029,642
4407,932,696
4408,851,749
4409,783,795
4410,739,830
4411,717,852
4412,720,865
4413,737,871
4414,762,874
4415,788,880
4416,804,879
4417,816,887
4418,820,888
4419,820,894
4420,817,895
4421,814,900
4422,810,900
4423,804,901
4424,802,901
4425,801,899
4426,800,898
4427,802,902
4428,801,902
4429,800,908
4430,800,911
4431,796,910
4432,797,912
4433,794,914
4434,796,917
4435,797,921
4436,797,925
4437,797,926
4438,797,927
4439,795,928
4440,796,925
4441,795,927
4442,796,930
4443,801,934
4444,805,938
4445,808,944
4446,809,949
4447,812,949
4448,815,953
4449,815,953
4450,819,956
4451,823,960
4452,829,962
4453,833,967
4454,837,971
4455,842,971
4456,844,974
4457,852,977
4458,860,981
4459,873,982
4460,880,985
4461,885,989
4462,890,988
4463,895,984
4464,901,984
4465,906,984
4466,915,984
4467,925,986
4468,933,991
4469,938,996
4470,946,995
4471,953,992
4472,961,988
4473,970,984
4474,977,982
4475,985,978
4476,990,974
4477,992,971
4478,996,969
4479,1003,966
4480,1012,960
4481,1019,954
4482,1026,953
4483,1032,950
4484,1033,948
4485,1032,945
4486,1031,943
4487,1028,939
4488,1027,935
4489,1027,931
4490,1028,927
4491,1029,928
4492,1028,927
4493,1023,928
4494,1023,927
4495,1019,925
4496,1018,923
4497,1016,922
4498,1011,919
4499,1005,919
4500,996,919
4501,988,922
4502,982,925
4503,980,925
4504,971,923
4505,970,927
4506,968,928
4507,965,933
4508,957,934
4509,948,938
4510,941,940
4511,935,941
4512,930,941
4513,926,942
4514,923,943
4515,917,946
4516,912,950
4517,910,952
4518,909,953
4519,909,955
4520,907,956
4521,906,957
4522,907,956
4523,904,960
4524,900,964
4525,895,969
4526,894,978
4527,895,984
4528,893,992
4529,894,1002
4530,900,1006
4531,903,1007
4532,903,1004
4533,906,998
4534,907,993
4535,913,989
4536,920,981
4537,927,978
4538,938,971
4539,942,963
4540,947,957
4541,951,952
4542,953,949
4543,957,947
4544,963,944
4545,963,942
4546,962,940
4547,956,936
4548,947,933
4549,934,931
4550,922,928
4551,910,927
4552,899,930
4553,894,930
4554,891,927
4555,882,924
4556,878,922
4557,874,918
4558,870,917
4559,869,917
4560,870,916
4561,868,914
4562,869,915
4563,868,915
4564,867,915
4565,866,914
4566,866,916
4567,870,917
4568,871,915
4569,876,914
4570,874,913
4571,872,912
4572,868,911
4573,865,909
4574,863,910
4575,861,915
4576,864,919
4577,865,933
4578,867,945
4579,865,951
4580,863,949
4581,861,924
4582,864,877
4583,880,814
4584,913,738
4585,957,665
4586,1013,600
4587,1077,553
4588,1147,519
4589,1221,500
4590,1296,492
4591,1359,492
4592,1389,498
4593,1384,509
4594,1338,521
4595,1262,532
4596,1168,549
4597,1068,584
4598,967,642
4599,884,710
4600,814,772
4601,761,818
4602,729,849
4603,718,861
4604,724,866
4605,747,866
4606,776,867
4607,803,868
4608,820,874
4609,828,879
4610,824,886
4611,819,889
4612,810,891
4613,805,892
4614,800,893
4615,801,892
4616,803,893
4617,804,895
4618,803,896
4619,805,898
4620,801,898
4621,797,902
4622,790,904
4623,786,905
4624,785,909
4625,787,911
4626,789,916
4627,791,919
4628,790,919
4629,790,921
4630,785,920
4631,781,920
4632,782,919
4633,780,920
4634,780,924
4635,782,930
4636,785,936
4637,784,939
4638,785,945
4639,787,946
4640,789,947
4641,792,950
4642,795,950
4643,798,953
4644,799,953
4645,801,957
4646,802,959
4647,804,964
4648,806,966
4649,815,970
4650,822,971
4651,830,974
4652,836,978
4653,842,981
4654,846,983
4655,851,984
4656,856,981
4657,864,983
4658,872,981
4659,880,983
4660,888,987
4661,896,987
4662,899,992
4663,910,991
4664,916,994
4665,924,990
4666,937,986
4667,945,986
4668,954,981
4669,961,981
4670,968,980
4671,978,981
4672,985,980
4673,994,979
4674,1002,976
4675,1012,973
4676,1020,967
4677,1025,961
4678,1027,960
4679,1030,958
4680,1031,957
4681,1034,950
4682,1036,951
4683,1039,946
4684,1040,943
4685,1039,943
4686,1039,940
4687,1037,940
4688,1034,940
4689,1032,938
4690,1031,936
4691,1029,931
4692,1026,929
4693,1024,924
4694,1018,924
4695,1012,925
4696,1008,925
4697,1004,928
4698,1000,927
4699,999,925
4700,996,925
4701,990,925
4702,984,926
4703,975,926
4704,968,928
4705,961,931
4706,957,934
4707,954,936
4708,950,938
4709,944,941
4710,938,942
4711,934,946
4712,931,946
4713,928,948
4714,927,952
4715,923,954
4716,920,961
4717,916,964
4718,914,971
4719,909,978
4720,908,985
4721,908,992
4722,912,1003
4723,913,1006
4724,914,1007
4725,912,1005
4726,913,1000
4727,912,995
4728,915,987
4729,920,986
4730,926,982
4731,936,976
4732,943,968
4733,945,961
4734,952,952
4735,954,947
4736,958,943
4737,964,944
4738,967,943
4739,966,944
4740,961,942
4741,954,938
4742,944,935
4743,933,931
4744,923,928
4745,913,928
4746,905,931
4747,897,927
4748,891,928
4749,884,925
4750,876,920
4751,876,916
4752,876,915
4753,878,916
4754,879,917
4755,880,918
4756,881,921
4757,876,919
4758,877,919
4759,874,915
4760,875,915
4761,876,916
4762,879,914
4763,879,916
4764,877,913
4765,875,911
4766,873,913
4767,874,916
4768,876,921
4769,878,926
4770,876,938
4771,876,948
4772,875,952
4773,871,949
4774,867,930
4775,870,891
4776,885,827
4777,919,746
4778,965,663
4779,1033,586
4780,1112,530
4781,1205,493
4782,1297,476
4783,1370,473
4784,1409,477
4785,1409,489
4786,1365,497
4787,1292,507
4788,1203,519
4789,1104,540
4790,1018,591
4791,942,663
4792,877,748
4793,821,814
4794,783,859
4795,766,880
4796,767,880
4797,785,875
4798,810,868
4799,833,866
4800,846,867
4801,848,874
4802,841,878
4803,834,885
4804,822,888
4805,816,889
4806,815,892
4807,816,894
4808,820,894
4809,820,896
4810,818,901
4811,814,903
4812,809,903
4813,806,906
4814,803,909
4815,803,911
4816,803,913
4817,803,919
4818,803,923
4819,803,928
4820,799,928
4821,797,931
4822,797,931
4823,796,931
4824,795,931
4825,792,934
4826,791,942
4827,793,943
4828,794,948
4829,793,952
4830,797,954
4831,801,958
4832,804,958
4833,807,962
4834,811,965
4835,813,967
4836,817,970
4837,821,973
4838,827,975
4839,832,979
4840,834,984
4841,843,989
4842,850,993
4843,856,998
4844,867,999
4845,879,1004
4846,887,1001
4847,898,1002
4848,905,998
4849,911,1001
4850,918,1002
4851,926,1006
4852,937,1010
4853,948,1011
4854,959,1012
4855,970,1011
4856,976,1010
4857,985,1006
4858,994,1006
4859,999,1004
4860,1007,1001
4861,1016,998
4862,1024,995
4863,1030,994
4864,1035,993
4865,1041,990
4866,1044,989
4867,1047,987
4868,1052,984
4869,1054,983
4870,1057,980
4871,1057,974
4872,1059,972
4873,1057,966
4874,1055,964
4875,1052,963
4876,1050,960
4877,1051,957
4878,1052,955
4879,1051,954
4880,1050,949
4881,1045,946
4882,1042,943
4883,1037,937
4884,1029,935
4885,1025,932
4886,1024,933
4887,1021,933
4888,1020,936
4889,1017,937
4890,1014,938
4891,1008,939
4892,1004,938
4893,1001,939
4894,996,940
4895,991,941
4896,983,941
4897,975,943
4898,966,945
4899,960,946
4900,955,949
4901,954,955
4902,952,960
4903,950,962
4904,949,965
4905,942,965
4906,939,966
4907,936,968
4908,932,972
4909,931,979
4910,934,987
4911,934,993
4912,932,1001
4913,932,1001
4914,931,1001
4915,935,994
4916,939,990
4917,943,981
4918,950,975
4919,956,971
4920,962,965
4921,965,956
4922,968,949
4923,970,942
4924,973,939
4925,980,935
4926,986,934
4927,989,936
4928,989,936
4929,988,937
4930,984,933
4931,976,927
4932,967,922
4933,956,916
4934,944,918
4935,932,917
4936,921,916
4937,910,915
4938,901,916
4939,896,916
4940,894,912
4941,901,912
4942,903,912
4943,903,908
4944,902,906
4945,900,907
4946,895,906
4947,894,904
4948,893,902
4949,894,905
4950,895,905
4951,897,906
4952,900,905
4953,901,906
4954,901,906
4955,898,903
4956,898,902
4957,894,899
4958,895,901
4959,899,904
4960,901,912
4961,899,920
4962,900,935
4963,897,941
4964,894,940
4965,894,922
4966,898,886
4967,910,824
4968,940,746
4969,981,663
4970,1037,587
4971,1104,526
4972,1185,487
4973,1267,459
4974,1342,450
4975,1396,450
4976,1411,452
4977,1384,460
4978,1322,466
4979,1242,473
4980,1154,481
4981,1067,492
4982,996,525
4983,937,587
4984,893,667
4985,853,748
4986,820,813
4987,792,853
4988,780,868
4989,785,870
4990,804,866
4991,826,859
4992,845,858
4993,859,859
4994,862,865
4995,860,873
4996,851,875
4997,845,881
4998,843,885
4999,846,888
5000,847,888
5001,847,890
5002,849,891
5003,846,889
5004,843,891
5005,839,892
5006,838,895
5007,837,897
5008,836,901
5009,837,904
5010,839,908
5011,836,913
5012,835,914
5013,834,918
5014,831,921
5015,833,920
5016,832,919
5017,835,918
5018,834,920
5019,833,922
5020,832,927
5021,831,935
5022,830,939
5023,835,943
5024,840,947
5025,848,951
5026,851,951
5027,854,956
5028,857,957
5029,859,959
5030,861,965
5031,868,969
5032,874,974
5033,883,978
5034,888,982
5035,890,985
5036,895,989
5037,898,989
5038,903,991
5039,911,996
5040,922,996
5041,929,1002
5042,936,1004
5043,945,1007
5044,951,1010
5045,959,1010
5046,969,1009
5047,978,1012
5048,989,1011
5049,997,1013
5050,1004,1014
5051,1010,1014
5052,1012,1009
5053,1016,1008
5054,1021,1006
5055,1030,1005
5056,1037,1005
5057,1047,1003
5058,1056,1004
5059,1059,1000
5060,1064,995
5061,1064,990
5062,1063,983
5063,1062,979
5064,1064,974
5065,1065,973
5066,1063,974
5067,1059,971
5068,1058,971
5069,1056,968
5070,1056,966
5071,1057,960
5072,1056,957
5073,1055,955
5074,1052,950
5075,1043,947
5076,1038,942
5077,1031,939
5078,1023,933
5079,1020,933
5080,1015,933
5081,1011,937
5082,1006,935
5083,1000,936
5084,1000,939
5085,994,938
5086,989,935
5087,985,934
5088,980,934
5089,976,935
5090,973,938
5091,966,943
5092,959,947
5093,952,948
5094,945,946
5095,942,947
5096,938,947
5097,930,949
5098,925,952
5099,919,954
5100,915,955
5101,910,957
5102,908,959
5103,905,963
5104,907,966
5105,907,970
5106,907,981
5107,908,983
5108,908,986
5109,907,993
5110,906,995
5111,905,1000
5112,905,1001
5113,905,998
5114,908,998
5115,912,993
5116,921,989
5117,932,986
5118,940,980
5119,951,976
5120,955,966
5121,960,960
5122,962,951
5123,959,946
5124,963,943
5125,968,939
5126,972,938
5127,974,939
5128,973,937
5129,969,936
5130,957,935
5131,949,935
5132,933,930
5133,919,928
5134,909,922
5135,903,917
5136,896,914
5137,892,913
5138,891,913
5139,888,913
5140,889,917
5141,893,915
5142,895,916
5143,895,916
5144,894,914
5145,892,912
5146,888,911
5147,885,911
5148,882,909
5149,884,909
5150,890,910
5151,892,908
5152,894,911
5153,895,910
5154,895,916
5155,894,916
5156,892,921
5157,892,929
5158,893,936
5159,893,943
5160,890,949
5161,887,945
5162,881,925
5163,882,882
5164,902,818
5165,935,735
5166,985,656
5167,1050,590
5168,1132,540
5169,1220,515
5170,1306,506
5171,1379,510
5172,1421,518
5173,1418,528
5174,1368,541
5175,1292,554
5176,1200,570
5177,1108,593
5178,1018,634
5179,938,687
5180,867,745
5181,807,793
5182,761,830
5183,735,847
5184,729,858
5185,743,862
5186,764,870
5187,791,878
5188,814,887
5189,830,892
5190,839,900
5191,837,905
5192,831,903
5193,826,902
5194,820,903
5195,817,900
5196,815,900
5197,816,900
5198,814,903
5199,818,906
5200,817,910
5201,816,912
5202,813,915
5203,814,918
5204,812,917
5205,811,922
5206,813,925
5207,815,922
5208,813,927
5209,810,926
5210,808,926
5211,805,929
5212,804,934
5213,806,937
5214,812,942
5215,816,947
5216,820,945
5217,822,949
5218,823,949
5219,822,948
5220,822,951
5221,824,953
5222,827,958
5223,836,961
5224,841,967
5225,846,970
5226,849,971
5227,851,974
5228,855,974
5229,858,976
5230,863,979
5231,871,981
5232,875,984
5233,882,988
5234,883,992
5235,888,993
5236,895,992
5237,901,991
5238,908,995
5239,916,996
5240,923,998
5241,931,1001
5242,938,998
5243,943,996
5244,946,995
5245,951,992
5246,958,993
5247,966,992
5248,975,990
5249,984,990
5250,990,992
5251,996,987
5252,1003,983
5253,1008,980
5254,1013,972
5255,1018,963
5256,1024,961
5257,1028,962
5258,1031,958
5259,1029,959
5260,1029,956
5261,1033,952
5262,1036,953
5263,1037,950
5264,1041,946
5265,1043,944
5266,1040,938
5267,1037,936
5268,1032,934
5269,1027,932
5270,1026,933
5271,1019,931
5272,1017,931
5273,1014,932
5274,1014,934
5275,1009,935
5276,1004,933
5277,997,935
5278,992,932
5279,986,931
5280,981,928
5281,980,926
5282,973,930
5283,969,933
5284,963,936
5285,959,943
5286,952,942
5287,952,945
5288,948,946
5289,945,949
5290,941,949
5291,936,951
5292,927,953
5293,919,954
5294,912,956
5295,910,955
5296,907,955
5297,911,960
5298,909,959
5299,910,964
5300,910,968
5301,907,973
5302,907,976
5303,904,977
5304,902,979
5305,903,982
5306,903,990
5307,900,995
5308,900,1003
5309,902,1010
5310,903,1010
5311,909,1008
5312,916,1006
5313,925,998
5314,931,992
5315,936,987
5316,941,983
5317,945,976
5318,948,970
5319,954,964
5320,959,957
5321,967,951
5322,970,948
5323,973,946
5324,974,942
5325,972,943
5326,967,941
5327,961,938
5328,957,936
5329,949,935
5330,941,933
5331,931,930
5332,917,929
5333,906,924
5334,899,922
5335,890,923
5336,889,919
5337,885,919
5338,885,915
5339,887,916
5340,885,913
5341,883,911
5342,882,913
5343,879,913
5344,881,914
5345,880,914
5346,884,915
5347,888,915
5348,887,917
5349,888,915
5350,887,912
5351,884,908
5352,879,907
5353,878,907
5354,877,909
5355,879,912
5356,881,916
5357,884,921
5358,882,929
5359,882,941
5360,876,953
5361,872,959
5362,869,953
5363,865,935
5364,871,904
5365,887,852
5366,913,783
5367,952,705
5368,1003,629
5369,1066,571
5370,1139,533
5371,1218,510
5372,1298,500
5373,1363,503
5374,1397,508
5375,1388,516
5376,1337,525
5377,1261,532
5378,1167,550
5379,1072,568
5380,987,616
5381,914,679
5382,854,743
5383,804,796
5384,761,825
5385,731,843
5386,721,853
5387,731,857
5388,754,861
5389,783,870
5390,808,875
5391,826,883
5392,833,888
5393,832,890
5394,824,891
5395,819,892
5396,815,893
5397,814,894
5398,814,896
5399,812,895
5400,811,899
5401,806,899
5402,803,898
5403,802,902
5404,800,906
5405,802,911
5406,804,914
5407,804,919
5408,803,920
5409,802,922
5410,799,919
5411,796,919
5412,793,921
5413,793,921
5414,795,924
5415,796,927
5416,795,933
5417,795,939
5418,796,939
5419,798,943
5420,799,942
5421,803,946
5422,805,945
5423,807,948
5424,811,952
5425,811,954
5426,811,958
5427,816,959
5428,819,961
5429,824,964
5430,830,968
5431,834,972
5432,840,976
5433,847,976
5434,850,978
5435,852,978
5436,858,977
5437,867,977
5438,874,978
5439,883,983
5440,892,987
5441,901,990
5442,907,992
5443,914,994
5444,923,993
5445,932,992
5446,939,988
5447,948,988
5448,954,987
5449,959,987
5450,961,983
5451,970,983
5452,977,982
5453,987,983
5454,999,980
5455,1010,978
5456,1018,975
5457,1024,973
5458,1027,971
5459,1029,965
5460,1032,960
5461,1037,957
5462,1041,950
5463,1042,948
5464,1048,947
5465,1049,944
5466,1050,943
5467,1048,942
5468,1046,939
5469,1046,939
5470,1043,933
5471,1039,930
5472,1038,927
5473,1035,925
5474,1031,924
5475,1029,925
5476,1025,927
5477,1021,926
5478,1021,926
5479,1016,924
5480,1013,923
5481,1004,926
5482,996,926
5483,991,927
5484,984,928
5485,979,929
5486,978,930
5487,974,931
5488,970,934
5489,966,935
5490,959,939
5491,954,943
5492,949,945
5493,946,948
5494,941,948
5495,937,950
5496,932,949
5497,929,954
5498,922,959
5499,914,964
5500,915,970
5501,919,976
5502,921,983
5503,922,989
5504,925,994
5505,921,999
5506,918,1002
5507,914,1004
5508,914,1003
5509,917,999
5510,923,997
5511,928,992
5512,936,989
5513,941,984
5514,949,980
5515,953,977
5516,959,970
5517,962,960
5518,967,954
5519,973,947
5520,977,942
5521,978,939
5522,977,935
5523,975,936
5524,973,937
5525,970,935
5526,965,935
5527,959,935
5528,947,934
5529,935,932
5530,922,927
5531,910,923
5532,902,919
5533,895,916
5534,893,915
5535,895,916
5536,893,918
5537,893,918
5538,895,916
5539,896,917
5540,895,914
5541,893,916
5542,895,914
5543,895,913
5544,895,915
5545,895,913
5546,891,910
5547,889,911
5548,889,906
5549,890,907
5550,893,909
5551,897,912
5552,904,913
5553,905,918
5554,904,917
5555,899,923
5556,894,931
5557,890,937
5558,886,943
5559,881,943
5560,883,927
5561,894,890
5562,912,832
5563,946,755
5564,993,670
5565,1056,594
5566,1131,537
5567,1215,499
5568,1297,478
5569,1368,474
5570,1411,476
5571,1416,479
5572,1383,487
5573,1326,494
5574,1256,504
5575,1180,515
5576,1104,538
5577,1029,583
5578,955,655
5579,887,729
5580,826,793
5581,780,838
5582,757,862
5583,759,871
5584,781,871
5585,810,870
5586,836,872
5587,855,878
5588,861,882
5589,856,885
5590,848,888
5591,840,888
5592,835,886
5593,831,887
5594,830,889
5595,829,893
5596,829,898
5597,830,902
5598,829,904
5599,829,906
5600,828,903
5601,828,907
5602,827,908
5603,824,907
5604,821,910
5605,816,913
5606,814,911
5607,810,913
5608,811,916
5609,812,916
5610,813,919
5611,815,923
5612,813,926
5613,812,930
5614,813,930
5615,810,935
5616,808,933
5617,810,935
5618,813,941
5619,814,944
5620,815,948
5621,819,949
5622,822,952
5623,824,956
5624,830,957
5625,833,960
5626,839,963
5627,838,964
5628,844,965
5629,848,968
5630,851,973
5631,858,977
5632,868,981
5633,876,985
5634,889,989
5635,900,991
5636,907,992
5637,914,995
5638,922,999
5639,931,999
5640,940,999
5641,947,999
5642,954,998
5643,960,998
5644,968,1000
5645,975,1001
5646,985,1002
5647,993,1002
5648,1003,1000
5649,1016,1002
5650,1024,995
5651,1031,993
5652,1035,988
5653,1041,984
5654,1045,982
5655,1050,981
5656,1057,979
5657,1063,975
5658,1070,971
5659,1074,969
5660,1080,966
5661,1079,964
5662,1074,958
5663,1075,954
5664,1072,952
5665,1069,942
5666,1070,939
5667,1068,937
5668,1066,935
5669,1063,933
5670,1058,931
5671,1056,930
5672,1050,928
5673,1050,927
5674,1048,924
5675,1043,923
5676,1034,921
5677,1030,917
5678,1027,915
5679,1022,915
5680,1020,918
5681,1018,921
5682,1015,926
5683,1015,929
5684,1012,931
5685,1004,934
5686,998,933
5687,989,933
5688,983,931
5689,977,933
5690,971,938
5691,969,941
5692,965,945
5693,961,944
5694,960,947
5695,955,950
5696,951,950
5697,943,954
5698,942,957
5699,942,963
5700,940,966
5701,936,970
5702,933,973
5703,930,979
5704,930,985
5705,929,994
5706,929,999
5707,932,1005
5708,934,1001
5709,938,999
5710,943,996
5711,948,989
5712,952,983
5713,957,978
5714,960,975
5715,966,969
5716,972,965
5717,977,958
5718,982,955
5719,987,950
5720,987,942
5721,993,938
5722,994,936
5723,994,935
5724,993,934
5725,990,931
5726,984,931
5727,974,931
5728,961,929
5729,949,925
5730,938,923
5731,926,921
5732,919,920
5733,918,919
5734,917,918
5735,912,917
5736,909,916
5737,906,914
5738,905,913
5739,904,913
5740,906,912
5741,905,912
5742,909,913
5743,910,918
5744,909,916
5745,906,919
5746,902,917
5747,901,914
5748,903,912
5749,901,906
5750,904,906
5751,903,908
5752,905,911
5753,903,916
5754,904,922
5755,905,930
5756,904,936
5757,906,945
5758,900,959
5759,897,960
5760,893,952
5761,893,929
5762,900,883
5763,920,815
5764,957,733
5765,1008,648
5766,1070,580
5767,1138,527
5768,1219,496
5769,1298,485
5770,1362,486
5771,1393,488
5772,1378,497
5773,1321,506
5774,1235,516
5775,1134,530
5776,1035,552
5777,947,599
5778,875,665
5779,824,739
5780,785,800
5781,760,844
5782,750,865
5783,759,870
5784,775,873
5785,798,874
5786,819,874
5787,831,880
5788,840,888
5789,842,890
5790,842,895
5791,838,897
5792,833,901
5793,830,901
5794,828,901
5795,826,902
5796,826,902
5797,825,901
5798,823,905
5799,820,907
5800,819,912
5801,817,918
5802,816,922
5803,815,924
5804,815,926
5805,816,926
5806,817,926
5807,817,927
5808,815,926
5809,815,931
5810,813,933
5811,815,937
5812,817,944
5813,817,947
5814,821,953
5815,825,958
5816,828,962
5817,831,963
5818,835,964
5819,838,967
5820,841,969
5821,844,970
5822,849,973
5823,852,978
5824,855,982
5825,858,985
5826,862,989
5827,871,993
5828,878,994
5829,888,996
5830,894,1000
5831,900,1001
5832,906,1000
5833,908,999
5834,915,1000
5835,924,1002
5836,934,1006
5837,944,1006
5838,953,1006
5839,959,1008
5840,964,1007
5841,970,1006
5842,975,1005
5843,982,1006
5844,990,1002
5845,999,999
5846,1004,995
5847,1012,987
5848,1019,985
5849,1025,982
5850,1033,980
5851,1035,977
5852,1042,976
5853,1048,972
5854,1050,970
5855,1048,963
5856,1047,960
5857,1047,956
5858,1043,952
5859,1044,951
5860,1043,946
5861,1043,947
5862,1040,943
5863,1036,942
5864,1032,942
5865,1028,938
5866,1023,936
5867,1019,933
5868,1014,933
5869,1010,931
5870,1002,930
5871,993,929
5872,988,931
5873,984,934
5874,982,938
5875,980,940
5876,977,942
5877,974,944
5878,968,943
5879,961,945
5880,954,943
5881,947,944
5882,939,947
5883,936,954
5884,930,955
5885,927,957
5886,921,961
5887,918,965
5888,913,966
5889,911,966
5890,910,969
5891,908,970
5892,903,970
5893,899,971
5894,896,970
5895,894,972
5896,898,977
5897,901,984
5898,906,990
5899,909,996
5900,910,1002
5901,903,1011
5902,901,1015
5903,901,1014
5904,904,1009
5905,909,1003
5906,916,1001
5907,924,998
5908,931,994
5909,939,992
5910,946,986
5911,953,978
5912,961,967
5913,966,963
5914,969,956
5915,972,953
5916,972,950
5917,968,946
5918,964,945
5919,957,943
5920,951,944
5921,939,942
5922,929,941
5923,919,940
5924,909,938
5925,901,933
5926,896,929
5927,897,924
5928,895,923
5929,892,921
5930,890,921
5931,888,923
5932,887,924
5933,887,922
5934,888,923
5935,891,924
5936,894,920
5937,895,921
5938,895,922
5939,895,922
5940,895,923
5941,896,923
5942,895,920
5943,894,921
5944,895,919
5945,895,920
5946,894,927
5947,894,937
5948,892,946
5949,888,961
5950,890,967
5951,887,957
5952,888,931
5953,896,884
5954,917,812
5955,950,728
5956,1002,651
5957,1064,587
5958,1140,548
5959,1223,525
5960,1303,516
5961,1369,513
5962,1412,517
5963,1421,526
5964,1393,538
5965,1329,549
5966,1246,567
5967,1152,591
5968,1057,630
5969,969,683
5970,892,741
5971,827,790
5972,774,826
5973,744,851
5974,738,867
5975,750,874
5976,772,877
5977,797,880
5978,817,881
5979,829,890
5980,835,895
5981,833,901
5982,830,904
5983,826,907
5984,824,909
5985,822,910
5986,821,909
5987,820,908
5988,816,909
5989,814,911
5990,814,914
5991,810,917
5992,810,921
5993,814,920
5994,812,920
5995,812,923
5996,810,926
5997,807,926
5998,806,928
5999,805,930
6000,806,932
6001,806,934
6002,806,933
6003,803,934
6004,803,938
6005,802,940
6006,805,942
6007,808,946
6008,811,949
6009,820,952
6010,823,954
6011,822,955
6012,823,958
6013,823,960
6014,822,963
6015,827,964
6016,833,971
6017,839,974
6018,847,981
6019,851,983
6020,857,982
6021,860,984
6022,865,987
6023,874,990
6024,881,989
6025,888,992
6026,894,993
6027,898,998
6028,901,995
6029,906,996
6030,913,998
6031,921,998
6032,931,999
6033,939,1000
6034,949,1001
6035,957,1000
6036,962,996
6037,965,994
6038,971,991
6039,977,990
6040,986,988
6041,995,990
6042,1003,988
6043,1013,988
6044,1020,984
6045,1025,977
6046,1028,969
6047,1032,963
6048,1037,958
6049,1042,954
6050,1045,953
6051,1044,951
6052,1044,951
6053,1044,947
6054,1041,943
6055,1043,943
6056,1044,940
6057,1047,938
6058,1049,938
6059,1044,934
6060,1039,931
6061,1031,928
6062,1027,925
6063,1023,924
6064,1018,922
6065,1017,923
6066,1014,926
6067,1010,930
6068,1008,932
6069,1001,935
6070,993,932
6071,989,931
6072,982,927
6073,979,928
6074,975,930
6075,970,934
6076,964,940
6077,959,945
6078,953,949
6079,949,953
6080,946,956
6081,943,954
6082,940,957
6083,933,956
6084,928,958
6085,925,963
6086,922,964
6087,920,968
6088,920,973
6089,925,979
6090,927,986
6091,926,994
6092,926,1004
6093,923,1009
6094,920,1013
6095,921,1012
6096,922,1008
6097,928,1001
6098,932,995
6099,938,992
6100,944,991
6101,951,992
6102,952,989
6103,958,983
6104,964,976
6105,969,966
6106,975,957
6107,980,951
6108,982,946
6109,979,945
6110,978,945
6111,977,945
6112,974,945
6113,968,943
6114,958,939
6115,945,940
6116,932,936
6117,916,934
6118,904,933
6119,898,929
6120,897,927
6121,897,924
6122,896,921
6123,895,921
6124,892,921
6125,893,923
6126,891,924
6127,893,925
6128,895,924
6129,897,921
6130,897,919
6131,896,916
6132,892,915
6133,890,916
6134,890,917
6135,889,918
6136,891,920
6137,895,921
6138,897,921
6139,899,923
6140,897,928
6141,895,933
6142,892,946
6143,887,955
6144,887,957
6145,884,951
6146,885,922
6147,898,871
6148,925,803
6149,963,726
6150,1015,651
6151,1075,590
6152,1149,542
6153,1228,515
6154,1305,496
6155,1371,490
6156,1406,490
6157,1401,497
6158,1357,509
6159,1284,521
6160,1197,538
6161,1099,566
6162,1005,615
6163,922,685
6164,851,756
6165,791,811
6166,755,847
6167,741,864
6168,749,874
6169,771,875
6170,801,875
6171,826,878
6172,844,884
6173,850,888
6174,849,892
6175,842,897
6176,836,901
6177,833,902
6178,833,903
6179,830,902
6180,828,900
6181,827,899
6182,826,901
6183,825,903
6184,825,905
6185,827,911
6186,826,915
6187,826,921
6188,825,920
6189,820,920
6190,818,922
6191,816,922
6192,816,925
6193,815,927
6194,816,931
6195,813,935
6196,811,936
6197,811,937
6198,812,938
6199,816,941
6200,817,948
6201,822,950
6202,822,956
6203,824,960
6204,821,959
6205,822,959
6206,822,960
6207,827,964
6208,832,968
6209,837,975
6210,845,981
6211,854,986
6212,857,988
6213,866,989
6214,874,988
6215,880,986
6216,888,989
6217,895,991
6218,898,997
6219,903,1001
6220,910,1002
6221,920,1003
6222,930,1002
6223,941,1004
6224,950,1004
6225,961,1004
6226,970,1005
6227,977,1004
6228,987,1002
6229,992,999
6230,998,994
6231,1007,989
6232,1019,990
6233,1026,989
6234,1032,988
6235,1041,989
6236,1044,987
6237,1050,982
6238,1054,975
6239,1057,970
6240,1063,966
6241,1064,962
6242,1065,961
6243,1062,959
6244,1063,957
6245,1063,954
6246,1063,950
6247,1063,947
6248,1061,946
6249,1059,946
6250,1052,946
6251,1048,943
6252,1042,942
6253,1040,937
6254,1037,934
6255,1034,931
6256,1032,929
6257,1029,931
6258,1022,931
6259,1017,935
6260,1014,938
6261,1008,937
6262,1005,937
6263,997,935
6264,994,936
6265,987,938
6266,979,939
6267,971,942
6268,965,946
6269,962,950
6270,961,950
6271,959,953
6272,958,954
6273,952,955
6274,947,960
6275,941,964
6276,936,965
6277,932,969
6278,930,972
6279,931,975
6280,925,983
6281,925,990
6282,927,999
6283,927,1006
6284,928,1011
6285,931,1015
6286,936,1016
6287,937,1010
6288,939,1003
6289,939,996
6290,944,990
6291,947,987
6292,952,982
6293,958,976
6294,966,967
6295,970,960
6296,976,955
6297,981,949
6298,984,946
6299,986,944
6300,986,946
6301,987,944
6302,984,943
6303,981,940
6304,973,938
6305,965,935
6306,952,932
6307,940,934
6308,928,935
6309,919,933
6310,914,930
6311,908,925
6312,909,924
6313,904,922
6314,904,918
6315,902,919
6316,903,921
6317,903,921
6318,906,922
6319,908,923
6320,908,921
6321,907,919
6322,907,918
6323,905,916
6324,904,914
6325,905,912
6326,907,913
6327,906,911
6328,907,913
6329,907,918
6330,905,922
6331,905,930
6332,908,940
6333,908,952
6334,907,964
6335,906,972
6336,902,964
6337,904,940
6338,912,892
6339,932,822
6340,969,734
6341,1024,648
6342,1087,572
6343,1163,516
6344,1239,480
6345,1315,458
6346,1374,453
6347,1398,452
6348,1378,460
6349,1317,467
6350,1233,477
6351,1135,488
6352,1035,514
6353,953,563
6354,888,639
6355,845,723
6356,815,796
6357,798,848
6358,797,874
6359,804,881
6360,820,879
6361,841,874
6362,858,872
6363,866,876
6364,870,879
6365,866,886
6366,861,891
6367,856,899
6368,853,903
6369,850,902
6370,849,901
6371,848,902
6372,847,903
6373,846,906
6374,847,908
6375,840,913
6376,839,915
6377,840,918
6378,839,924
6379,842,927
6380,844,932
6381,845,932
6382,845,933
6383,842,935
6384,839,936
6385,836,937
6386,835,937
6387,834,943
6388,835,943
6389,838,951
6390,838,959
6391,844,965
6392,849,968
6393,852,969
6394,858,971
6395,862,971
6396,865,974
6397,870,976
6398,870,979
6399,873,987
6400,877,992
6401,882,997
6402,891,998
6403,899,1004
6404,910,1004
6405,919,1007
6406,925,1011
6407,932,1012
6408,937,1015
6409,944,1013
6410,950,1013
6411,958,1016
6412,965,1017
6413,976,1018
6414,979,1020
6415,986,1021
6416,991,1024
6417,997,1023
6418,1004,1022
6419,1013,1019
6420,1022,1015
6421,1030,1012
6422,1036,1008
6423,1042,1012
6424,1044,1008
6425,1054,1009
6426,1057,1003
6427,1066,1001
6428,1070,998
6429,1076,992
6430,1078,988
6431,1078,983
6432,1076,981
6433,1074,976
6434,1072,972
6435,1071,969
6436,1071,964
6437,1071,961
6438,1068,957
6439,1065,956
6440,1064,952
6441,1059,951
6442,1052,951
6443,1048,948
6444,1047,946
6445,1044,943
6446,1039,940
6447,1031,936
6448,1026,936
6449,1019,936
6450,1012,936
6451,1008,938
6452,1007,940
6453,1005,938
6454,1001,937
6455,998,936
6456,991,937
6457,984,936
6458,976,938
6459,970,942
6460,966,945
6461,964,949
6462,962,951
6463,956,955
6464,952,957
6465,947,960
6466,943,960
6467,941,962
6468,937,962
6469,935,962
6470,931,962
6471,927,966
6472,924,967
6473,923,974
6474,920,979
6475,922,987
6476,923,992
6477,925,997
6478,927,1001
6479,924,1006
6480,924,1010
6481,919,1008
6482,920,1006
6483,920,1004
6484,926,1000
6485,935,999
6486,943,995
6487,953,992
6488,962,989
6489,967,980
6490,970,971
6491,976,961
6492,981,955
6493,982,951
6494,986,947
6495,984,946
6496,984,945
6497,979,946
6498,977,944
6499,975,946
6500,969,944
6501,961,939
6502,953,934
6503,943,934
6504,930,929
6505,919,926
6506,912,923
6507,909,921
6508,909,924
6509,911,926
6510,913,927
6511,914,925
6512,915,927
6513,913,925
6514,911,921
6515,910,919
6516,910,915
6517,910,914
6518,908,914
6519,909,918
6520,910,918
6521,908,919
6522,909,917
6523,914,920
6524,915,922
6525,919,920
6526,919,924
6527,919,928
6528,917,938
6529,915,942
6530,914,952
6531,911,958
6532,912,951
6533,914,924
6534,928,876
6535,950,805
6536,989,725
6537,1036,647
6538,1096,582
6539,1164,539
6540,1234,514
6541,1303,505
6542,1353,508
6543,1377,521
6544,1365,532
6545,1318,550
6546,1255,567
6547,1184,581
6548,1114,603
6549,1042,638
6550,973,690
6551,910,743
6552,852,790
6553,806,823
6554,773,844
6555,763,858
6556,770,866
6557,792,876
6558,815,881
6559,834,891
6560,849,899
6561,854,903
6562,854,908
6563,844,904
6564,841,901
6565,837,902
6566,835,904
6567,834,906
6568,834,911
6569,835,915
6570,834,919
6571,834,921
6572,833,923
6573,832,923
6574,831,925
6575,828,921
6576,825,924
6577,820,923
6578,820,926
6579,819,928
6580,820,931
6581,825,933
6582,827,935
6583,829,935
6584,832,937
6585,832,941
6586,832,946
6587,829,950
6588,830,950
6589,831,953
6590,833,952
6591,837,956
6592,841,957
6593,844,962
6594,848,967
6595,853,971
6596,859,977
6597,865,977
6598,868,980
6599,869,978
6600,877,983
6601,877,984
6602,882,988
6603,883,991
6604,890,995
6605,900,997
6606,908,999
6607,917,998
6608,922,1002
6609,929,999
6610,936,1002
6611,941,1000
6612,948,1001
6613,956,1003
6614,963,999
6615,972,998
6616,976,997
6617,982,997
6618,987,996
6619,992,994
6620,999,993
6621,1006,992
6622,1013,987
6623,1021,980
6624,1025,975
6625,1033,970
6626,1035,963
6627,1038,963
6628,1039,958
6629,1044,957
6630,1049,954
6631,1051,952
6632,1053,951
6633,1052,946
6634,1050,943
6635,1048,938
6636,1047,939
6637,1046,936
6638,1043,935
6639,1043,937
6640,1039,937
6641,1037,934
6642,1035,936
6643,1031,935
6644,1026,932
6645,1021,931
6646,1016,930
6647,1013,929
6648,1009,930
6649,1005,930
6650,995,933
6651,988,932
6652,981,935
6653,974,939
6654,975,940
6655,974,942
6656,972,947
6657,969,948
6658,964,951
6659,958,949
6660,951,949
6661,946,948
6662,941,952
6663,937,953
6664,933,959
6665,932,963
6666,927,963
6667,923,967
6668,924,966
6669,923,968
6670,923,973
6671,923,976
6672,921,980
6673,922,985
6674,922,987
6675,917,990
6676,917,999
6677,918,1004
6678,919,1008
6679,919,1010
6680,927,1011
6681,932,1007
6682,939,1005
6683,943,997
6684,949,992
6685,954,990
6686,959,985
6687,963,977
6688,966,968
6689,974,963
6690,979,961
6691,981,959
6692,983,956
6693,986,950
6694,987,949
6695,986,944
6696,982,942
6697,978,940
6698,970,937
6699,956,936
6700,943,935
6701,932,931
6702,924,929
6703,918,926
6704,917,926
6705,916,923
6706,916,924
6707,913,921
6708,912,922
6709,910,921
6710,908,918
6711,905,917
6712,904,917
6713,906,915
6714,906,917
6715,908,919
6716,911,920
6717,909,918
6718,908,919
6719,909,914
6720,911,911
6721,911,909
6722,910,908
6723,909,911
6724,909,915
6725,909,920
6726,909,927
6727,907,936
6728,907,948
6729,909,952
6730,907,955
6731,907,942
6732,910,912
6733,921,856
6734,947,783
6735,989,705
6736,1041,631
6737,1106,571
6738,1177,532
6739,1250,506
6740,1322,500
6741,1377,498
6742,1410,503
6743,1406,510
6744,1363,521
6745,1294,530
6746,1208,542
6747,1115,568
6748,1021,612
6749,941,676
6750,872,744
6751,821,800
6752,783,841
6753,768,861
6754,772,868
6755,792,871
6756,814,871
6757,836,872
6758,852,878
6759,859,883
6760,859,887
6761,855,890
6762,851,890
6763,845,894
6764,841,896
6765,838,898
6766,838,902
6767,837,904
6768,837,905
6769,836,903
6770,838,902
6771,836,905
6772,835,908
6773,834,911
6774,832,916
6775,831,920
6776,831,921
6777,832,923
6778,833,922
6779,833,924
6780,832,923
6781,831,926
6782,828,927
6783,825,931
6784,824,932
6785,825,936
6786,828,941
6787,833,945
6788,838,949
6789,838,950
6790,839,951
6791,840,951
6792,842,952
6793,844,955
6794,847,958
6795,854,961
6796,857,966
6797,862,970
6798,865,974
6799,870,974
6800,874,978
6801,880,980
6802,890,982
6803,893,987
6804,901,988
6805,906,987
6806,911,989
6807,915,988
6808,921,991
6809,930,990
6810,941,992
6811,951,995
6812,962,998
6813,970,996
6814,979,997
6815,985,994
6816,989,990
6817,994,986
6818,1001,986
6819,1008,984
6820,1017,984
6821,1023,985
6822,1032,983
6823,1038,979
6824,1041,977
6825,1050,972
6826,1059,968
6827,1067,963
6828,1071,958
6829,1074,953
6830,1077,949
6831,1075,946
6832,1073,942
6833,1075,943
6834,1075,942
6835,1077,942
6836,1080,940
6837,1078,938
6838,1075,938
6839,1072,934
6840,1066,929
6841,1057,925
6842,1054,921
6843,1048,919
6844,1048,919
6845,1044,922
6846,1042,923
6847,1035,926
6848,1033,924
6849,1026,923
6850,1023,923
6851,1021,919
6852,1018,918
6853,1012,919
6854,1008,922
6855,1000,928
6856,993,931
6857,987,935
6858,982,939
6859,977,938
6860,977,939
6861,977,942
6862,975,944
6863,970,947
6864,964,946
6865,958,947
6866,950,949
6867,946,948
6868,945,953
6869,945,959
6870,946,966
6871,945,975
6872,944,983
6873,944,988
6874,944,990
6875,942,994
6876,942,996
6877,940,999
6878,940,1000
6879,942,1002
6880,944,1000
6881,947,996
6882,952,994
6883,960,992
6884,971,981
6885,979,978
6886,987,971
6887,993,962
6888,995,954
6889,998,949
6890,996,944
6891,996,944
6892,998,942
6893,1000,943
6894,1002,942
6895,1001,942
6896,999,939
6897,990,936
6898,980,935
6899,967,932
6900,956,928
6901,947,926
6902,938,922
6903,930,919
6904,924,919
6905,920,920
6906,917,921
6907,915,920
6908,917,922
6909,920,921
6910,921,920
6911,922,916
6912,920,914
6913,919,911
6914,916,910
6915,912,911
6916,911,911
6917,914,914
6918,919,913
6919,920,913
6920,924,913
6921,924,911
6922,924,913
6923,923,913
6924,920,914
6925,919,921
6926,918,924
6927,918,934
6928,916,946
6929,916,953
6930,912,949
6931,912,933
6932,922,898
6933,942,839
6934,977,762
6935,1026,680
6936,1083,603
6937,1150,541
6938,1221,498
6939,1296,473
6940,1365,461
6941,1414,463
6942,1426,466
6943,1395,478
6944,1333,489
6945,1245,502
6946,1143,519
6947,1042,556
6948,950,627
6949,874,706
6950,816,777
6951,781,834
6952,767,865
6953,777,875
6954,799,874
6955,825,872
6956,855,873
6957,870,873
6958,881,879
6959,880,883
6960,873,886
6961,864,888
6962,855,889
6963,850,889
6964,847,893
6965,847,895
6966,850,898
6967,855,903
6968,855,905
6969,854,909
6970,851,908
6971,844,908
6972,841,906
6973,840,907
6974,837,907
6975,838,911
6976,838,916
6977,836,919
6978,835,922
6979,835,927
6980,834,931
6981,837,933
6982,838,936
6983,839,940
6984,838,942
6985,837,944
6986,838,945
6987,837,947
6988,841,951
6989,846,956
6990,852,960
6991,858,965
6992,862,971
6993,863,972
6994,867,973
6995,867,972
6996,875,972
6997,880,975
6998,887,978
6999,894,984
7000,900,987
7001,907,993
7002,911,994
7003,919,995
7004,926,997
7005,933,998
7006,944,999
7007,953,1000
7008,959,1002
7009,965,999
7010,972,1000
7011,978,999
7012,989,998
7013,997,998
7014,1007,999
7015,1017,999
7016,1024,999
7017,1031,998
7018,1037,997
7019,1042,994
7020,1048,990
7021,1055,983
7022,1063,976
7023,1068,975
7024,1072,971
7025,1078,972
7026,1080,970
7027,1082,970
7028,1085,967
7029,1086,960
7030,1087,955
7031,1087,951
7032,1085,948
7033,1081,944
7034,1077,941
7035,1071,941
7036,1066,938
7037,1067,935
7038,1067,934
7039,1067,934
7040,1066,932
7041,1062,932
7042,1055,931
7043,1048,929
7044,1039,926
7045,1035,923
7046,1027,920
7047,1021,918
7048,1018,919
7049,1016,925
7050,1010,929
7051,1005,931
7052,1001,937
7053,999,937
7054,999,937
7055,998,937
7056,993,936
7057,989,935
7058,982,934
7059,975,940
7060,968,941
7061,964,947
7062,959,948
7063,956,950
7064,956,957
7065,952,961
7066,947,965
7067,943,971
7068,939,978
7069,936,982
7070,939,985
7071,939,987
7072,941,992
7073,942,997
7074,942,1002
7075,945,1004
7076,949,1003
7077,953,997
7078,962,992
7079,969,983
7080,977,971
7081,980,962
7082,984,952
7083,985,944
7084,989,937
7085,991,935
7086,997,931
7087,1001,933
7088,1003,929
7089,1003,930
7090,1000,930
7091,992,928
7092,984,923
7093,978,922
7094,964,918
7095,953,916
7096,942,913
7097,932,913
7098,925,912
7099,923,912
7100,924,913
7101,927,914
7102,932,914
7103,934,912
7104,933,907
7105,932,905
7106,928,899
7107,924,900
7108,922,901
7109,922,903
7110,927,903
7111,931,906
7112,935,907
7113,935,906
7114,936,904
7115,933,903
7116,933,900
7117,931,900
7118,933,904
7119,932,909
7120,932,915
7121,932,926
7122,931,935
7123,928,940
7124,926,934
7125,934,903
7126,951,849
7127,981,774
7128,1024,685
7129,1079,600
7130,1144,528
7131,1219,479
7132,1298,451
7133,1368,437
7134,1417,436
7135,1428,442
7136,1396,451
7137,1326,458
7138,1237,472
7139,1139,487
7140,1044,512
7141,964,566
7142,899,642
7143,853,723
7144,816,790
7145,794,833
7146,789,857
7147,796,865
7148,817,865
7149,841,862
7150,867,863
7151,883,865
7152,887,869
7153,886,874
7154,874,876
7155,863,879
7156,859,877
7157,859,880
7158,860,883
7159,863,887
7160,866,892
7161,866,897
7162,864,903
7163,858,904
7164,853,903
7165,852,902
7166,846,900
7167,848,903
7168,849,907
7169,851,911
7170,851,916
7171,852,922
7172,851,923
7173,850,924
7174,850,926
7175,849,928
7176,849,929
7177,848,930
7178,847,933
7179,848,936
7180,847,937
7181,851,943
7182,856,947
7183,861,949
7184,866,955
7185,872,958
7186,876,964
7187,875,966
7188,880,968
7189,883,969
7190,889,968
7191,890,971
7192,895,975
7193,905,980
7194,909,986
7195,920,990
7196,926,994
7197,929,997
7198,939,999
7199,946,998
7200,955,998
7201,964,1000
7202,970,1000
7203,975,1002
7204,979,1005
7205,985,1008
7206,993,1009
7207,1003,1012
7208,1013,1011
7209,1021,1005
7210,1030,1007
7211,1034,1004
7212,1038,1001
7213,1043,1002
7214,1050,999
7215,1055,995
7216,1063,993
7217,1072,990
7218,1077,986
7219,1082,985
7220,1084,985
7221,1084,982
7222,1086,978
7223,1086,976
7224,1085,972
7225,1086,966
7226,1088,959
7227,1086,953
7228,1085,951
7229,1083,949
7230,1080,949
7231,1078,947
7232,1076,946
7233,1073,941
7234,1071,939
7235,1068,934
7236,1061,930
7237,1052,930
7238,1044,928
7239,1038,927
7240,1031,928
7241,1031,925
7242,1031,924
7243,1028,927
7244,1022,927
7245,1014,928
7246,1009,929
7247,1003,929
7248,998,927
7249,993,930
7250,990,930
7251,984,932
7252,979,936
7253,977,939
7254,974,940
7255,972,942
7256,970,947
7257,965,949
7258,960,949
7259,955,952
7260,948,947
7261,940,948
7262,933,949
7263,929,953
7264,927,958
7265,926,964
7266,928,970
7267,927,975
7268,930,977
7269,930,979
7270,931,985
7271,931,990
7272,928,996
7273,934,997
7274,936,997
7275,941,994
7276,945,988
7277,951,987
7278,958,980
7279,966,979
7280,973,979
7281,979,974
7282,987,970
7283,992,963
7284,994,953
7285,996,945
7286,996,938
7287,997,932
7288,999,932
7289,1000,933
7290,999,934
7291,995,934
7292,985,934
7293,974,932
7294,959,928
7295,944,921
7296,935,918
7297,928,914
7298,922,912
7299,921,911
7300,918,914
7301,920,914
7302,921,914
7303,920,914
7304,918,915
7305,924,913
7306,924,913
7307,927,914
7308,922,913
7309,918,911
7310,919,906
7311,916,905
7312,918,904
7313,920,907
7314,922,913
7315,923,912
7316,924,916
7317,924,917
7318,922,922
7319,922,928
7320,919,939
7321,916,950
7322,910,949
7323,910,934
7324,915,897
7325,932,836
7326,971,759
7327,1021,673
7328,1081,603
7329,1154,545
7330,1234,513
7331,1315,498
7332,1380,496
7333,1416,505
7334,1406,516
7335,1355,533
7336,1272,549
7337,1172,567
7338,1066,595
7339,974,636
7340,903,698
7341,845,751
7342,799,796
7343,769,828
7344,759,848
7345,764,860
7346,785,865
7347,810,873
7348,835,879
7349,853,882
7350,862,886
7351,863,888
7352,860,889
7353,854,893
7354,847,894
7355,842,894
7356,838,898
7357,836,897
7358,838,900
7359,839,900
7360,839,905
7361,838,907
7362,837,912
7363,834,913
7364,833,917
7365,832,919
7366,834,918
7367,836,920
7368,834,920
7369,837,922
7370,832,921
7371,829,925
7372,827,928
7373,826,932
7374,828,937
7375,832,941
7376,836,945
7377,839,948
7378,838,950
7379,842,954
7380,846,955
7381,851,955
7382,853,956
7383,857,955
7384,859,960
7385,861,961
7386,867,967
7387,873,975
7388,883,978
7389,892,978
7390,898,979
7391,904,982
7392,909,980
7393,913,982
7394,920,983
7395,928,984
7396,935,987
7397,946,990
7398,956,988
7399,963,989
7400,971,989
7401,977,988
7402,986,987
7403,995,984
7404,1003,984
7405,1011,979
7406,1018,977
7407,1024,973
7408,1030,968
7409,1035,964
7410,1043,963
7411,1051,962
7412,1058,959
7413,1063,954
7414,1067,950
7415,1066,944
7416,1065,941
7417,1065,933
7418,1064,930
7419,1066,928
7420,1067,926
7421,1068,926
7422,1066,922
7423,1060,919
7424,1058,922
7425,1055,917
7426,1051,920
7427,1051,920
7428,1047,920
7429,1042,916
7430,1035,918
7431,1028,915
7432,1019,915
7433,1015,919
7434,1010,919
7435,1009,922
7436,1010,926
7437,1007,930
7438,1000,930
7439,991,929
7440,983,929
7441,975,929
7442,972,931
7443,969,933
7444,962,937
7445,959,941
7446,956,942
7447,952,944
7448,948,947
7449,946,949
7450,945,949
7451,945,952
7452,943,957
7453,940,960
7454,937,963
7455,933,971
7456,932,973
7457,934,982
7458,936,991
7459,936,998
7460,937,1003
7461,941,1002
7462,942,995
7463,947,989
7464,953,981
7465,961,973
7466,969,969
7467,976,965
7468,979,964
7469,985,956
7470,988,951
7471,990,947
7472,994,944
7473,997,938
7474,1002,939
7475,1005,935
7476,1004,935
7477,998,934
7478,986,930
7479,974,926
7480,961,922
7481,949,916
7482,938,914
7483,931,915
7484,926,916
7485,922,914
7486,919,913
7487,917,912
7488,915,909
7489,913,909
7490,916,905
7491,914,904
7492,915,906
7493,914,905
7494,913,905
7495,912,908
7496,913,907
7497,913,907
7498,914,905
7499,914,905
7500,915,904
7501,915,903
7502,911,902
7503,912,900
7504,911,902
7505,911,904
7506,916,909
7507,916,918
7508,916,930
7509,912,941
7510,910,946
7511,906,936
7512,907,898
7513,924,844
7514,954,769
7515,1002,683
7516,1061,606
7517,1132,546
7518,1214,505
7519,1296,482
7520,1372,480
7521,1423,480
7522,1436,486
7523,1408,492
7524,1346,498
7525,1266,508
7526,1177,519
7527,1086,542
7528,999,587
7529,921,655
7530,859,728
7531,806,789
7532,777,835
7533,767,858
7534,777,863
7535,799,865
7536,825,863
7537,850,864
7538,864,866
7539,869,870
7540,868,875
7541,857,878
7542,847,881
7543,840,884
7544,835,886
7545,838,891
7546,842,888
7547,845,891
7548,845,893
7549,844,893
7550,838,897
7551,831,894
7552,828,900
7553,827,905
7554,830,908
7555,830,909
7556,835,913
7557,832,914
7558,830,918
7559,829,917
7560,826,917
7561,824,922
7562,825,924
7563,824,923
7564,825,928
7565,827,930
7566,826,934
7567,826,935
7568,831,939
7569,830,941
7570,836,944
7571,839,949
7572,845,952
7573,845,952
7574,847,951
7575,849,955
7576,851,956
7577,858,962
7578,865,965
7579,872,972
7580,881,975
7581,888,981
7582,893,979
7583,901,978
7584,903,978
7585,908,979
7586,915,981
7587,924,981
7588,933,986
7589,943,987
7590,950,987
7591,959,987
7592,968,989
7593,977,988
7594,985,989
7595,997,987
7596,1002,989
7597,1011,985
7598,1019,984
7599,1024,982
7600,1027,978
7601,1035,978
7602,1045,975
7603,1051,973
7604,1061,971
7605,1067,966
7606,1071,963
7607,1074,962
7608,1074,955
7609,1074,949
7610,1075,946
7611,1077,941
7612,1079,940
7613,1080,939
7614,1078,937
7615,1077,934
7616,1074,934
7617,1074,929
7618,1073,926
7619,1072,924
7620,1071,924
7621,1066,921
7622,1060,920
7623,1053,918
7624,1046,920
7625,1041,916
7626,1035,917
7627,1033,917
7628,1032,918
7629,1029,920
7630,1024,922
7631,1016,923
7632,1010,921
7633,1003,921
7634,997,921
7635,993,919
7636,989,922
7637,984,928
7638,982,934
7639,982,938
7640,974,941
7641,968,942
7642,962,942
7643,958,940
7644,955,940
7645,956,939
7646,953,944
7647,950,951
7648,947,957
7649,942,966
7650,940,973
7651,942,980
7652,944,987
7653,946,994
7654,945,1000
7655,944,1006
7656,945,1008
7657,943,1008
7658,946,1007
7659,950,997
7660,958,991
7661,969,982
7662,979,979
7663,986,975
7664,994,972
7665,999,959
7666,1002,944
7667,1006,930
7668,1008,924
7669,1007,919
7670,1007,921
7671,1004,926
7672,996,930
7673,992,929
7674,986,924
7675,979,922
7676,964,917
7677,947,910
7678,935,909
7679,922,906
7680,916,905
7681,914,904
7682,916,905
7683,918,904
7684,921,902
7685,921,903
7686,921,903
7687,920,903
7688,918,907
7689,916,908
7690,916,907
7691,918,905
7692,921,904
7693,922,902
7694,920,901
7695,920,900
7696,919,901
7697,922,905
7698,924,910
7699,924,914
7700,927,920
7701,927,935
7702,922,946
7703,920,949
7704,917,938
7705,924,906
7706,941,847
7707,973,772
7708,1018,686
7709,1071,604
7710,1133,540
7711,1200,498
7712,1272,468
7713,1344,455
7714,1398,453
7715,1417,453
7716,1390,458
7717,1325,467
7718,1237,475
7719,1135,490
7720,1035,526
7721,952,586
7722,885,666
7723,836,743
7724,803,801
7725,784,839
7726,781,859
7727,788,866
7728,807,867
7729,832,866
7730,854,866
7731,870,866
7732,876,872
7733,873,873
7734,868,875
7735,865,883
7736,861,886
7737,860,893
7738,860,898
7739,860,899
7740,857,897
7741,854,894
7742,850,893
7743,847,892
7744,843,898
7745,846,902
7746,847,908
7747,850,916
7748,849,919
7749,847,922
7750,844,921
7751,842,920
7752,840,921
7753,841,925
7754,842,928
7755,843,931
7756,842,935
7757,843,937
7758,842,938
7759,841,939
7760,845,941
7761,849,946
7762,857,953
7763,861,959
7764,868,961
7765,871,964
7766,871,963
7767,873,962
7768,873,966
7769,878,969
7770,886,976
7771,893,983
7772,901,988
7773,907,990
7774,911,992
7775,917,993
7776,925,993
7777,932,993
7778,942,994
7779,948,996
7780,956,1003
7781,963,1003
7782,966,1006
7783,974,1010
7784,982,1010
7785,993,1008
7786,1003,1004
7787,1013,1004
7788,1021,1002
7789,1027,1000
7790,1033,997
7791,1036,995
7792,1042,994
7793,1049,989
7794,1058,987
7795,1064,986
7796,1071,985
7797,1075,983
7798,1078,980
7799,1077,974
7800,1076,970
7801,1076,964
7802,1078,960
7803,1080,956
7804,1081,954
7805,1081,954
7806,1079,951
7807,1076,947
7808,1073,947
7809,1073,944
7810,1070,940
7811,1071,937
7812,1069,935
7813,1064,935
7814,1057,932
7815,1052,928
7816,1045,927
7817,1037,924
7818,1037,923
7819,1032,920
7820,1030,921
7821,1022,924
7822,1016,926
7823,1010,926
7824,1006,926
7825,1002,926
7826,998,925
7827,993,929
7828,987,931
7829,981,933
7830,974,938
7831,964,940
7832,961,944
7833,960,944
7834,958,943
7835,956,944
7836,951,944
7837,946,947
7838,940,948
7839,934,950
7840,928,956
7841,925,956
7842,927,959
7843,927,964
7844,928,970
7845,930,974
7846,930,981
7847,928,987
7848,925,992
7849,924,999
7850,924,1000
7851,927,998
7852,929,994
7853,934,991
7854,942,989
7855,946,988
7856,952,990
7857,960,990
7858,966,988
7859,974,981
7860,978,968
7861,980,958
7862,984,946
7863,986,939
7864,988,939
7865,991,939
7866,991,939
7867,994,938
7868,993,938
7869,991,933
7870,982,930
7871,971,926
7872,957,927
7873,943,923
7874,933,922
7875,928,919
7876,923,916
7877,922,916
7878,920,914
7879,918,912
7880,916,915
7881,916,913
7882,918,912
7883,919,912
7884,917,909
7885,918,910
7886,917,906
7887,911,902
7888,913,904
7889,913,904
7890,913,906
7891,917,908
7892,919,911
7893,923,910
7894,926,909
7895,926,909
7896,922,910
7897,918,913
7898,914,917
7899,912,928
7900,909,940
7901,906,950
7902,903,951
7903,903,936
7904,910,898
7905,928,840
7906,962,764
7907,1013,686
7908,1072,614
7909,1138,562
7910,1206,532
7911,1275,518
7912,1340,510
7913,1392,512
7914,1419,514
7915,1410,522
7916,1372,536
7917,1305,550
7918,1222,564
7919,1127,587
7920,1036,624
7921,952,675
7922,877,726
7923,819,774
7924,776,811
7925,752,835
7926,753,854
7927,770,864
7928,797,871
7929,823,875
7930,842,876
7931,854,881
7932,860,883
7933,859,888
7934,853,889
7935,849,890
7936,841,894
7937,837,894
7938,833,896
7939,832,897
7940,835,901
7941,838,904
7942,839,904
7943,838,907
7944,833,907
7945,831,906
7946,829,906
7947,828,904
7948,827,907
7949,828,908
7950,831,913
7951,831,916
7952,831,921
7953,831,927
7954,828,927
7955,828,929
7956,826,927
7957,828,930
7958,831,928
7959,833,932
7960,835,936
7961,836,941
7962,838,945
7963,838,948
7964,839,950
7965,845,952
7966,848,952
7967,857,954
7968,860,957
7969,864,960
7970,866,964
7971,869,966
7972,871,968
7973,875,971
7974,882,973
7975,890,975
7976,898,979
7977,907,986
7978,915,989
7979,919,993
7980,927,991
7981,934,989
7982,937,985
7983,943,984
7984,948,983
7985,955,986
7986,964,988
7987,970,990
7988,979,988
7989,990,985
7990,999,981
7991,1009,977
7992,1016,972
7993,1021,969
7994,1023,966
7995,1027,962
7996,1028,963
7997,1036,959
7998,1043,958
7999,1051,956
8000,1056,952
8001,1059,946
8002,1056,944
8003,1055,939
8004,1055,937
8005,1055,935
8006,1054,928
8007,1055,927
8008,1056,926
8009,1053,922
8010,1050,923
8011,1046,923
8012,1042,925
8013,1041,925
8014,1037,923
8015,1036,923
8016,1032,920
8017,1029,918
8018,1022,915
8019,1014,918
8020,1005,918
8021,1001,919
8022,997,923
8023,995,922
8024,992,926
8025,989,927
8026,983,929
8027,978,928
8028,968,932
8029,961,934
8030,956,939
8031,952,939
8032,947,942
8033,942,943
8034,939,945
8035,935,947
8036,931,949
8037,933,953
8038,933,955
8039,934,958
8040,931,962
8041,932,961
8042,928,968
8043,923,969
8044,923,979
8045,922,987
8046,924,996
8047,926,1001
8048,932,1002
8049,935,1001
8050,941,997
8051,946,991
8052,952,985
8053,958,979
8054,966,976
8055,972,969
8056,976,963
8057,979,957
8058,982,948
8059,988,942
8060,994,941
8061,998,939
8062,999,939
8063,996,936
8064,988,931
8065,974,925
8066,960,921
8067,945,919
8068,932,922
8069,924,918
8070,918,920
8071,915,919
8072,910,914
8073,909,911
8074,905,910
8075,904,909
8076,907,911
8077,907,910
8078,909,910
8079,906,908
8080,904,908
8081,902,907
8082,902,907
8083,902,908
8084,904,908
8085,908,911
8086,910,911
8087,909,913
8088,908,908
8089,905,906
8090,902,907
8091,903,908
8092,904,922
8093,901,933
8094,897,947
8095,892,955
8096,889,949
8097,891,924
8098,907,873
8099,934,803
8100,981,717
8101,1040,634
8102,1109,566
8103,1188,519
8104,1273,495
8105,1349,486
8106,1401,488
8107,1412,496
8108,1379,510
8109,1316,521
8110,1234,533
8111,1144,544
8112,1054,562
8113,979,601
8114,910,662
8115,851,727
8116,801,788
8117,767,830
8118,751,858
8119,758,868
8120,779,876
8121,808,874
8122,832,873
8123,852,876
8124,858,877
8125,855,881
8126,846,885
8127,837,888
8128,827,891
8129,821,893
8130,822,892
8131,823,893
8132,824,897
8133,828,902
8134,828,903
8135,827,909
8136,822,910
8137,817,910
8138,815,910
8139,814,909
8140,815,914
8141,812,915
8142,811,919
8143,812,922
8144,811,928
8145,809,929
8146,810,929
8147,810,931
8148,811,930
8149,811,931
8150,811,933
8151,809,937
8152,809,942
8153,809,947
8154,812,949
8155,816,954
8156,820,957
8157,826,960
8158,830,963
8159,833,965
8160,835,969
8161,836,972
8162,838,972
8163,844,974
8164,851,975
8165,856,978
8166,864,981
8167,869,983
8168,873,987
8169,880,992
8170,886,989
8171,894,992
8172,902,992
8173,909,992
8174,919,992
8175,924,990
8176,931,992
8177,939,995
8178,949,996
8179,960,996
8180,970,996
8181,982,993
8182,990,989
8183,995,989
8184,999,987
8185,1004,986
8186,1010,981
8187,1015,978
8188,1023,973
8189,1030,968
8190,1036,966
8191,1039,963
8192,1041,963
8193,1046,960
8194,1050,958
8195,1051,957
8196,1054,953
8197,1053,947
8198,1053,943
8199,1050,939
8200,1045,936
8201,1042,934
8202,1041,935
8203,1042,935
8204,1042,935
8205,1041,937
8206,1036,932
8207,1033,931
8208,1027,928
8209,1018,922
8210,1013,921
8211,1010,920
8212,1005,923
8213,1001,925
8214,998,925
8215,995,927
8216,989,927
8217,984,931
8218,981,934
8219,977,936
8220,973,939
8221,968,939
8222,963,941
8223,956,939
8224,953,944
8225,947,944
8226,943,950
8227,937,955
8228,937,956
8229,940,961
8230,939,964
8231,938,969
8232,937,972
8233,932,976
8234,927,978
8235,923,981
8236,922,990
8237,921,997
8238,921,1006
8239,922,1012
8240,922,1011
8241,928,1012
8242,929,1004
8243,934,1001
8244,942,993
8245,946,986
8246,952,984
8247,960,978
8248,963,972
8249,963,965
8250,965,957
8251,968,951
8252,972,947
8253,980,945
8254,984,944
8255,986,945
8256,980,941
8257,976,940
8258,964,937
8259,952,929
8260,939,927
8261,927,928
8262,920,927
8263,914,926
8264,909,930
8265,903,928
8266,900,925
8267,898,923
8268,896,919
8269,896,917
8270,899,916
8271,899,916
8272,896,916
8273,895,917
8274,894,918
8275,895,918
8276,898,917
8277,904,917
8278,906,917
8279,905,917
8280,906,920
8281,904,917
8282,903,915
8283,901,913
8284,900,915
8285,901,918
8286,899,927
8287,900,937
8288,895,952
8289,894,960
8290,888,957
8291,889,938
8292,899,900
8293,923,845
8294,959,776
8295,1007,696
8296,1059,626
8297,1126,564
8298,1202,521
8299,1285,494
8300,1359,478
8301,1408,475
8302,1422,477
8303,1392,484
8304,1330,494
8305,1246,501
8306,1153,515
8307,1062,534
8308,981,583
8309,914,656
8310,858,737
8311,815,803
8312,786,850
8313,773,873
8314,777,879
8315,795,879
8316,818,876
8317,842,873
8318,859,875
8319,865,875
8320,861,881
8321,852,886
8322,844,889
8323,837,892
8324,833,895
8325,835,897
8326,837,895
8327,840,899
8328,839,901
8329,835,903
8330,830,905
8331,825,907
8332,820,912
8333,818,913
8334,820,915
8335,824,917
8336,824,921
8337,822,922
8338,820,924
8339,820,929
8340,817,931
8341,816,932
8342,816,936
8343,816,936
8344,814,940
8345,813,939
8346,811,946
8347,812,948
8348,812,954
8349,818,955
8350,822,960
8351,825,961
8352,829,962
8353,830,964
8354,830,965
8355,829,969
8356,834,970
8357,840,977
8358,846,984
8359,854,989
8360,862,990
8361,868,993
8362,875,994
8363,881,995
8364,887,998
8365,894,998
8366,902,1000
8367,909,1002
8368,919,1003
8369,927,1006
8370,935,1007
8371,944,1011
8372,955,1012
8373,965,1015
8374,975,1015
8375,986,1013
8376,995,1010
8377,1003,1007
8378,1007,1004
8379,1013,1000
8380,1015,1000
8381,1021,1000
8382,1029,999
8383,1038,998
8384,1044,996
8385,1052,995
8386,1058,989
8387,1061,987
8388,1062,980
8389,1067,977
8390,1070,971
8391,1071,968
8392,1072,967
8393,1070,965
8394,1069,962
8395,1063,959
8396,1060,956
8397,1062,954
8398,1061,952
8399,1063,949
8400,1059,947
8401,1057,945
8402,1051,940
8403,1042,935
8404,1036,933
8405,1031,931
8406,1031,933
8407,1027,937
8408,1027,938
8409,1019,941
8410,1014,939
8411,1011,939
8412,1004,938
8413,999,938
8414,993,940
8415,988,944
8416,982,948
8417,976,945
8418,972,949
8419,967,949
8420,965,950
8421,964,953
8422,962,956
8423,962,962
8424,959,964
8425,951,965
8426,947,967
8427,941,968
8428,938,973
8429,936,981
8430,937,987
8431,938,995
8432,939,1004
8433,938,1009
8434,937,1010
8435,941,1005
8436,945,1000
8437,952,991
8438,957,983
8439,962,977
8440,965,974
8441,970,968
8442,973,966
8443,976,958
8444,979,951
8445,986,946
8446,991,940
8447,997,937
8448,1000,936
8449,995,933
8450,992,934
8451,982,931
8452,974,930
8453,963,926
8454,956,924
8455,944,922
8456,935,924
8457,928,923
8458,918,925
8459,913,925
8460,911,922
8461,909,919
8462,911,914
8463,911,912
8464,911,912
8465,910,913
8466,909,913
8467,908,918
8468,908,916
8469,909,916
8470,910,913
8471,914,912
8472,915,912
8473,912,911
8474,912,908
8475,909,910
8476,908,908
8477,908,908
8478,910,909
8479,913,910
8480,916,912
8481,917,917
8482,917,923
8483,912,934
8484,905,944
8485,902,945
8486,898,939
8487,904,916
8488,919,867
8489,948,799
8490,992,721
8491,1043,643
8492,1110,578
8493,1185,533
8494,1264,501
8495,1340,480
8496,1400,468
8497,1432,468
8498,1430,468
8499,1394,471
8500,1326,473
8501,1251,486
8502,1173,500
8503,1094,523
8504,1016,572
8505,949,644
8506,886,725
8507,835,796
8508,797,844
8509,782,869
8510,786,876
8511,807,870
8512,836,869
8513,859,865
8514,874,868
8515,876,872
8516,870,880
8517,861,888
8518,858,890
8519,851,892
8520,850,891
8521,851,889
8522,851,889
8523,850,889
8524,847,891
8525,841,893
8526,839,896
8527,837,898
8528,838,901
8529,837,905
8530,842,907
8531,840,907
8532,837,909
8533,832,909
8534,830,911
8535,825,913
8536,824,919
8537,823,923
8538,823,925
8539,825,929
8540,829,928
8541,830,931
8542,830,935
8543,830,939
8544,827,939
8545,828,941
8546,828,946
8547,831,949
8548,832,952
8549,834,954
8550,836,957
8551,841,960
8552,845,963
8553,853,967
8554,860,972
8555,866,977
8556,872,978
8557,873,981
8558,879,983
8559,883,985
8560,889,985
8561,896,989
8562,906,996
8563,916,1000
8564,924,1002
8565,935,1006
8566,940,1007
8567,950,1005
8568,960,1004
8569,970,1003
8570,978,1003
8571,988,998
8572,997,1004
8573,1002,1004
8574,1010,1006
8575,1017,1006
8576,1024,1005
8577,1034,1002
8578,1043,1000
8579,1055,996
8580,1064,996
8581,1068,993
8582,1075,990
8583,1072,986
8584,1073,982
8585,1076,976
8586,1079,974
8587,1083,970
8588,1084,971
8589,1092,970
8590,1093,968
8591,1094,967
8592,1092,963
8593,1088,955
8594,1087,946
8595,1082,942
8596,1081,939
8597,1076,934
8598,1073,937
8599,1072,936
8600,1068,933
8601,1064,931
8602,1061,928
8603,1056,924
8604,1052,921
8605,1049,922
8606,1043,918
8607,1035,919
8608,1030,918
8609,1024,919
8610,1022,920
8611,1024,923
8612,1023,926
8613,1023,926
8614,1020,930
8615,1014,931
8616,1008,933
8617,999,934
8618,991,934
8619,983,935
8620,977,936
8621,977,939
8622,974,941
8623,970,945
8624,963,948
8625,960,951
8626,954,950
8627,951,956
8628,948,959
8629,948,961
8630,950,963
8631,951,969
8632,951,971
8633,948,978
8634,944,985
8635,942,990
8636,939,996
8637,943,997
8638,950,988
8639,956,983
8640,963,980
8641,969,975
8642,973,974
8643,979,970
8644,984,965
8645,991,955
8646,998,944
8647,1004,938
8648,1008,933
8649,1012,932
8650,1012,930
8651,1011,931
8652,1009,929
8653,1006,926
8654,1003,921
8655,993,914
8656,983,910
8657,970,913
8658,959,914
8659,947,915
8660,939,915
8661,935,915
8662,935,915
8663,934,915
8664,934,910
8665,933,907
8666,932,903
8667,928,900
8668,926,900
8669,925,902
8670,924,902
8671,930,902
8672,931,903
8673,933,902
8674,933,904
8675,932,902
8676,932,902
8677,931,902
8678,930,901
8679,931,896
8680,932,895
8681,931,894
8682,934,898
8683,934,905
8684,934,915
8685,930,925
8686,930,938
8687,931,946
8688,931,944
8689,929,924
8690,935,884
8691,955,823
8692,991,741
8693,1036,658
8694,1099,586
8695,1176,534
8696,1255,501
8697,1335,490
8698,1400,487
8699,1436,493
8700,1429,495
8701,1379,498
8702,1302,506
8703,1217,512
8704,1126,526
8705,1038,552
8706,962,597
8707,894,663
8708,841,728
8709,799,784
8710,775,822
8711,770,843
8712,783,856
8713,802,857
8714,831,859
8715,855,860
8716,871,861
8717,876,864
8718,875,871
8719,872,876
8720,867,881
8721,866,886
8722,866,889
8723,866,890
8724,863,890
8725,861,889
8726,856,888
8727,852,888
8728,849,893
8729,846,897
8730,848,902
8731,851,905
8732,851,909
8733,852,910
8734,850,911
8735,849,910
8736,847,912
8737,848,914
8738,848,916
8739,850,914
8740,850,916
8741,847,920
8742,850,921
8743,849,925
8744,851,930
8745,855,934
8746,858,937
8747,860,943
8748,861,944
8749,864,945
8750,863,944
8751,869,946
8752,874,949
8753,878,955
8754,883,960
8755,892,964
8756,897,969
8757,902,971
8758,907,976
8759,912,976
8760,921,977
8761,925,978
8762,932,978
8763,937,981
8764,943,982
8765,946,984
8766,955,986
8767,959,989
8768,971,990
8769,980,989
8770,989,993
8771,999,993
8772,1006,991
8773,1013,988
8774,1019,984
8775,1023,981
8776,1031,979
8777,1035,974
8778,1040,974
8779,1045,975
8780,1050,975
8781,1057,975
8782,1064,971
8783,1067,965
8784,1073,961
8785,1074,955
8786,1081,948
8787,1081,946
8788,1080,942
8789,1078,941
8790,1077,941
8791,1075,939
8792,1075,934
8793,1075,934
8794,1073,931
8795,1072,928
8796,1068,927
8797,1057,926
8798,1051,923
8799,1046,924
8800,1043,919
8801,1042,919
8802,1042,917
8803,1040,919
8804,1034,922
8805,1028,925
8806,1021,925
8807,1018,927
8808,1011,924
8809,1008,922
8810,1003,921
8811,998,921
8812,992,925
8813,984,930
8814,976,936
8815,967,940
8816,966,941
8817,964,943
8818,964,942
8819,961,943
8820,957,946
8821,953,946
8822,946,947
8823,943,943
8824,942,944
8825,940,944
8826,937,946
8827,938,950
8828,938,951
8829,938,957
8830,937,961
8831,938,966
8832,939,971
8833,941,975
8834,940,978
8835,938,982
8836,937,988
8837,933,992
8838,936,994
8839,941,993
8840,948,990
8841,957,986
8842,967,981
8843,972,978
8844,978,973
8845,982,967
8846,985,963
8847,993,955
8848,999,947
8849,1004,942
8850,1006,939
8851,1007,939
8852,1006,939
8853,1002,940
8854,997,939
8855,990,934
8856,979,928
8857,966,928
8858,952,922
8859,942,918
8860,933,913
8861,927,911
8862,926,909
8863,926,912
8864,928,912
8865,933,915
8866,930,913
8867,927,911
8868,925,908
8869,926,906
8870,923,906
8871,922,905
8872,924,907
8873,926,907
8874,925,907
8875,927,907
8876,925,907
8877,924,909
8878,925,908
8879,925,907
8880,926,909
8881,930,911
8882,932,915
8883,932,918
8884,926,923
8885,921,937
8886,910,943
8887,906,944
8888,907,932
8889,921,901
8890,947,844
8891,984,768
8892,1032,690
8893,1089,620
8894,1152,570
8895,1221,536
8896,1297,522
8897,1365,518
8898,1413,522
8899,1425,533
8900,1393,549
8901,1329,566
8902,1239,581
8903,1142,600
8904,1045,633
8905,961,683
8906,892,733
8907,832,777
8908,783,805
8909,754,825
8910,746,837
8911,760,848
8912,783,857
8913,811,864
8914,839,876
8915,858,881
8916,865,886
8917,863,887
8918,858,887
8919,852,885
8920,846,887
8921,845,891
8922,842,892
8923,844,898
8924,847,900
8925,845,905
8926,843,906
8927,842,905
8928,841,906
8929,839,906
8930,835,906
8931,835,906
8932,834,911
8933,830,911
8934,830,912
8935,827,916
8936,828,918
8937,831,922
8938,832,925
8939,834,927
8940,835,930
8941,833,931
8942,833,931
8943,830,930
8944,831,933
8945,832,934
8946,835,936
8947,837,940
8948,839,944
8949,842,950
8950,845,951
8951,846,952
8952,852,957
8953,856,956
8954,861,959
8955,868,962
8956,870,964
8957,871,970
8958,875,972
8959,880,975
8960,887,980
8961,893,982
8962,901,980
8963,911,980
8964,915,982
8965,916,980
8966,923,981
8967,924,983
8968,929,981
8969,937,985
8970,946,985
8971,956,983
8972,965,981
8973,972,983
8974,978,985
8975,985,983
8976,994,979
8977,1001,975
8978,1009,973
8979,1016,968
8980,1022,963
8981,1026,962
8982,1029,957
8983,1035,958
8984,1041,956
8985,1044,953
8986,1049,949
8987,1055,941
8988,1057,936
8989,1058,933
8990,1057,931
8991,1052,929
8992,1052,925
8993,1050,922
8994,1048,921
8995,1049,918
8996,1048,917
8997,1046,916
8998,1042,916
8999,1039,915
9000,1033,917
9001,1029,916
9002,1024,914
9003,1017,914
9004,1011,913
9005,1006,913
9006,1001,917
9007,994,919
9008,989,920
9009,986,923
9010,984,927
9011,983,924
9012,979,926
9013,976,926
9014,969,927
9015,958,929
9016,951,931
9017,950,934
9018,946,939
9019,945,942
9020,941,942
9021,940,945
9022,937,945
9023,933,949
9024,931,955
9025,927,958
9026,928,964
9027,930,967
9028,927,969
9029,927,977
9030,925,982
9031,921,989
9032,923,995
9033,927,996
9034,933,997
9035,942,993
9036,949,985
9037,956,979
9038,960,971
9039,963,964
9040,968,958
9041,967,952
9042,973,946
9043,981,942
9044,988,939
9045,994,937
9046,994,935
9047,992,934
9048,990,932
9049,981,928
9050,975,927
9051,966,924
9052,955,920
9053,940,920
9054,928,917
9055,919,914
9056,912,913
9057,907,912
9058,907,911
9059,904,909
9060,909,912
9061,908,912
9062,907,908
9063,902,907
9064,898,902
9065,897,902
9066,897,903
9067,899,902
9068,901,903
9069,905,908
9070,906,908
9071,904,907
9072,901,903
9073,901,900
9074,899,898
9075,902,897
9076,904,898
9077,906,901
9078,905,904
9079,904,909
9080,903,918
9081,900,927
9082,898,935
9083,897,937
9084,899,929
9085,904,902
9086,920,850
9087,950,779
9088,995,696
9089,1058,618
9090,1137,556
9091,1221,513
9092,1308,489
9093,1381,483
9094,1431,484
9095,1446,489
9096,1423,498
9097,1367,502
9098,1292,506
9099,1203,515
9100,1110,533
9101,1022,571
9102,943,633
9103,875,708
9104,818,775
9105,777,819
9106,760,848
9107,768,860
9108,789,860
9109,819,861
9110,845,859
9111,860,862
9112,861,867
9113,857,873
9114,846,879
9115,840,879
9116,836,882
9117,836,882
9118,839,884
9119,840,888
9120,838,891
9121,836,894
9122,831,892
9123,826,892
9124,824,892
9125,821,896
9126,819,898
9127,815,904
9128,815,908
9129,814,911
9130,818,916
9131,818,912
9132,818,914
9133,816,915
9134,816,916
