'sample #','MLII','V1'
0,1005,1029
1,1005,1029
2,1005,1029
3,1005,1029
4,1005,1029
5,1005,1029
6,1005,1029
7,1005,1029
8,1002,1029
9,996,1026
10,996,1029
11,997,1035
12,1001,1033
13,1002,1032
14,997,1029
15,994,1028
16,988,1027
17,989,1029
18,992,1032
19,994,1033
20,992,1030
21,990,1024
22,987,1028
23,988,1027
24,989,1030
25,993,1028
26,990,1026
27,985,1021
28,982,1021
29,989,1024
30,995,1026
31,997,1022
32,999,1022
33,995,1021
34,991,1020
35,993,1023
36,997,1027
37,1000,1024
38,1002,1023
39,1002,1026
40,999,1036
41,1000,1045
42,1000,1047
43,1004,1035
44,1018,1021
45,1039,996
46,1064,976
47,1087,959
48,1105,940
49,1120,913
50,1138,881
51,1156,852
52,1187,829
53,1225,813
54,1272,804
55,1317,794
56,1364,785
57,1406,778
58,1435,779
59,1444,782
60,1433,783
61,1394,777
62,1318,775
63,1233,777
64,1173,792
65,1143,807
66,1124,823
67,1117,839
68,1111,859
69,1107,880
70,1103,901
71,1099,921
72,1094,936
73,1084,947
74,1073,957
75,1060,967
76,1051,979
77,1047,991
78,1047,1001
79,1039,1012
80,1029,1016
81,1020,1022
82,1010,1035
83,1004,1048
84,998,1057
85,993,1063
86,984,1067
87,975,1067
88,969,1072
89,966,1081
90,967,1082
91,969,1082
92,966,1083
93,963,1082
94,959,1087
95,959,1091
96,960,1094
97,958,1097
98,956,1095
99,954,1093
100,954,1099
101,955,1103
102,956,1111
103,956,1110
104,954,1112
105,952,1110
106,951,1111
107,949,1119
108,949,1125
109,952,1126
110,951,1127
111,945,1130
112,946,1136
113,945,1141
114,947,1145
115,943,1147
116,940,1151
117,939,1153
118,936,1158
119,936,1167
120,936,1173
121,934,1173
122,931,1169
123,932,1169
124,926,1177
125,929,1183
126,931,1189
127,928,1191
128,922,1191
129,918,1194
130,913,1193
131,912,1199
132,919,1205
133,917,1201
134,912,1199
135,906,1196
136,900,1199
137,907,1200
138,910,1199
139,912,1194
140,909,1190
141,907,1180
142,905,1177
143,911,1175
144,916,1173
145,919,1163
146,922,1156
147,919,1144
148,921,1141
149,930,1139
150,935,1133
151,942,1127
152,944,1115
153,946,1104
154,950,1095
155,955,1092
156,964,1088
157,966,1081
158,974,1073
159,977,1065
160,978,1059
161,980,1061
162,986,1057
163,991,1054
164,992,1048
165,992,1047
166,991,1045
167,994,1047
168,994,1046
169,994,1038
170,993,1037
171,991,1033
172,992,1033
173,993,1038
174,994,1040
175,993,1035
176,993,1032
177,991,1030
178,992,1031
179,995,1034
180,991,1037
181,991,1034
182,990,1032
183,989,1031
184,989,1034
185,992,1034
186,993,1035
187,993,1035
188,990,1030
189,983,1034
190,985,1033
191,987,1038
192,991,1039
193,989,1036
194,986,1034
195,984,1032
196,983,1034
197,987,1038
198,991,1039
199,993,1039
200,990,1035
201,985,1034
202,981,1031
203,983,1036
204,985,1041
205,986,1038
206,986,1037
207,985,1034
208,983,1033
209,985,1039
210,987,1039
211,987,1039
212,985,1036
213,987,1035
214,983,1034
215,985,1037
216,984,1041
217,990,1040
218,989,1035
219,986,1032
220,985,1033
221,987,1035
222,990,1039
223,987,1037
224,988,1032
225,988,1029
226,989,1032
227,989,1031
228,991,1035
229,991,1034
230,988,1033
231,986,1032
232,984,1033
233,986,1033
234,992,1038
235,991,1035
236,984,1029
237,985,1027
238,985,1027
239,988,1033
240,988,1034
241,992,1033
242,987,1028
243,983,1028
244,983,1027
245,982,1029
246,987,1030
247,987,1028
248,986,1025
249,983,1024
250,980,1025
251,982,1024
252,986,1027
253,990,1025
254,988,1023
255,985,1024
256,982,1022
257,984,1028
258,987,1027
259,985,1027
260,987,1022
261,986,1022
262,986,1023
263,989,1026
264,990,1030
265,992,1029
266,989,1027
267,988,1023
268,989,1031
269,991,1031
270,995,1039
271,996,1039
272,994,1035
273,986,1037
274,987,1040
275,998,1042
276,1006,1046
277,1002,1047
278,1003,1042
279,999,1042
280,996,1046
281,1001,1046
282,1004,1051
283,1004,1044
284,1003,1039
285,996,1033
286,992,1032
287,993,1035
288,995,1036
289,992,1037
290,992,1030
291,989,1028
292,990,1024
293,989,1027
294,994,1029
295,992,1030
296,989,1029
297,986,1028
298,983,1029
299,984,1030
300,986,1031
301,986,1029
302,983,1027
303,984,1022
304,983,1026
305,986,1030
306,988,1033
307,982,1033
308,981,1026
309,981,1023
310,978,1025
311,981,1025
312,985,1025
313,987,1025
314,985,1021
315,983,1020
316,982,1018
317,988,1019
318,993,1021
319,996,1021
320,994,1019
321,990,1017
322,989,1018
323,991,1018
324,995,1027
325,997,1025
326,997,1028
327,992,1029
328,990,1027
329,995,1025
330,1009,1009
331,1035,981
332,1060,948
333,1079,914
334,1096,883
335,1116,861
336,1137,843
337,1158,824
338,1183,809
339,1208,790
340,1236,779
341,1272,771
342,1308,766
343,1351,764
344,1385,766
345,1414,769
346,1434,780
347,1441,786
348,1429,791
349,1396,794
350,1333,797
351,1261,804
352,1198,816
353,1163,829
354,1144,838
355,1135,845
356,1123,852
357,1116,867
358,1111,887
359,1108,908
360,1107,926
361,1102,932
362,1090,941
363,1076,950
364,1068,962
365,1061,976
366,1056,990
367,1047,998
368,1036,1005
369,1026,1011
370,1021,1020
371,1014,1031
372,1009,1042
373,1001,1045
374,992,1052
375,982,1055
376,976,1060
377,971,1069
378,974,1076
379,967,1078
380,961,1077
381,952,1078
382,948,1082
383,948,1088
384,952,1091
385,953,1092
386,951,1091
387,947,1090
388,941,1095
389,941,1101
390,942,1103
391,941,1103
392,940,1098
393,938,1102
394,938,1107
395,940,1113
396,942,1115
397,939,1115
398,937,1114
399,930,1118
400,931,1122
401,932,1126
402,935,1133
403,936,1134
404,932,1132
405,928,1133
406,927,1140
407,927,1146
408,926,1155
409,927,1159
410,922,1157
411,917,1156
412,913,1161
413,914,1164
414,918,1170
415,921,1174
416,917,1172
417,910,1178
418,911,1183
419,909,1189
420,907,1193
421,907,1194
422,906,1193
423,901,1195
424,898,1200
425,895,1205
426,897,1212
427,896,1209
428,890,1209
429,889,1206
430,887,1207
431,892,1209
432,895,1211
433,892,1209
434,885,1205
435,882,1199
436,882,1201
437,887,1201
438,889,1199
439,891,1197
440,890,1184
441,889,1182
442,887,1174
443,889,1177
444,893,1172
445,899,1163
446,904,1155
447,900,1148
448,904,1141
449,909,1139
450,916,1134
451,918,1125
452,923,1117
453,925,1106
454,931,1103
455,938,1100
456,946,1095
457,953,1084
458,957,1074
459,958,1066
460,962,1066
461,970,1069
462,971,1069
463,972,1062
464,970,1054
465,970,1050
466,971,1046
467,977,1047
468,985,1049
469,985,1044
470,982,1043
471,977,1039
472,978,1040
473,980,1041
474,985,1043
475,985,1038
476,982,1034
477,980,1030
478,980,1032
479,982,1037
480,984,1039
481,983,1038
482,982,1032
483,982,1029
484,982,1029
485,981,1034
486,985,1038
487,985,1036
488,983,1033
489,981,1031
490,981,1035
491,982,1035
492,986,1037
493,983,1035
494,982,1035
495,980,1035
496,978,1038
497,981,1042
498,985,1044
499,985,1041
500,982,1039
501,977,1037
502,976,1036
503,977,1041
504,978,1041
505,981,1039
506,981,1039
507,978,1038
508,975,1038
509,976,1041
510,978,1043
511,978,1044
512,977,1042
513,973,1037
514,977,1041
515,976,1042
516,980,1047
517,977,1046
518,976,1041
519,976,1037
520,975,1039
521,980,1043
522,979,1046
523,981,1045
524,979,1043
525,976,1042
526,974,1041
527,977,1042
528,983,1045
529,984,1042
530,980,1040
531,979,1036
532,978,1038
533,981,1043
534,984,1045
535,984,1043
536,982,1037
537,982,1035
538,981,1037
539,982,1038
540,983,1042
541,984,1043
542,984,1039
543,982,1037
544,981,1038
545,983,1037
546,987,1038
547,984,1035
548,981,1033
549,979,1032
550,983,1036
551,985,1038
552,986,1043
553,987,1040
554,987,1037
555,982,1035
556,979,1035
557,979,1037
558,987,1038
559,988,1039
560,988,1035
561,981,1036
562,975,1038
563,978,1038
564,983,1040
565,987,1038
566,986,1033
567,983,1031
568,982,1035
569,986,1035
570,986,1037
571,987,1039
572,983,1034
573,982,1031
574,980,1034
575,983,1039
576,986,1042
577,986,1042
578,987,1040
579,984,1039
580,983,1042
581,989,1044
582,993,1044
583,997,1048
584,990,1045
585,991,1046
586,991,1049
587,994,1053
588,999,1056
589,1002,1056
590,999,1053
591,998,1053
592,998,1052
593,999,1054
594,998,1056
595,999,1052
596,999,1046
597,996,1041
598,995,1040
599,999,1045
600,998,1039
601,995,1038
602,992,1036
603,988,1030
604,988,1033
605,988,1032
606,992,1036
607,996,1036
608,993,1033
609,990,1031
610,984,1029
611,983,1031
612,989,1034
613,986,1033
614,985,1032
615,981,1030
616,981,1033
617,981,1032
618,981,1033
619,981,1031
620,981,1025
621,980,1025
622,982,1028
623,985,1031
624,987,1034
625,985,1033
626,983,1029
627,982,1025
628,986,1026
629,991,1025
630,993,1030
631,993,1026
632,991,1025
633,988,1025
634,989,1024
635,992,1026
636,997,1028
637,998,1026
638,996,1027
639,994,1029
640,995,1036
641,995,1043
642,999,1050
643,1003,1045
644,1009,1036
645,1017,1021
646,1037,999
647,1061,980
648,1086,957
649,1106,928
650,1127,902
651,1143,876
652,1165,858
653,1190,843
654,1219,827
655,1249,805
656,1277,789
657,1310,777
658,1350,772
659,1392,769
660,1424,768
661,1437,768
662,1434,766
663,1415,765
664,1379,767
665,1328,771
666,1265,784
667,1205,795
668,1158,801
669,1128,808
670,1113,820
671,1112,836
672,1115,856
673,1114,875
674,1106,896
675,1097,913
676,1087,929
677,1077,944
678,1069,961
679,1063,971
680,1053,979
681,1044,990
682,1037,1002
683,1031,1015
684,1020,1027
685,1012,1034
686,1004,1041
687,994,1046
688,990,1050
689,983,1063
690,981,1071
691,978,1074
692,972,1076
693,962,1075
694,957,1082
695,961,1087
696,964,1090
697,961,1088
698,959,1090
699,956,1089
700,954,1094
701,958,1100
702,958,1104
703,955,1104
704,950,1103
705,947,1101
706,945,1103
707,952,1112
708,956,1116
709,955,1117
710,953,1117
711,947,1114
712,944,1120
713,943,1122
714,948,1124
715,946,1129
716,944,1129
717,942,1134
718,935,1137
719,938,1141
720,940,1146
721,940,1149
722,941,1152
723,937,1147
724,933,1153
725,934,1159
726,933,1169
727,934,1168
728,929,1172
729,925,1172
730,925,1179
731,923,1185
732,925,1191
733,922,1193
734,917,1196
735,914,1193
736,914,1199
737,914,1202
738,914,1205
739,912,1206
740,906,1204
741,900,1203
742,901,1207
743,900,1212
744,900,1214
745,901,1208
746,900,1204
747,897,1199
748,893,1201
749,894,1197
750,901,1198
751,904,1194
752,901,1185
753,900,1179
754,898,1175
755,901,1173
756,905,1168
757,911,1161
758,912,1153
759,916,1143
760,920,1138
761,925,1132
762,930,1125
763,937,1116
764,942,1106
765,946,1100
766,949,1092
767,954,1090
768,960,1086
769,968,1082
770,969,1070
771,970,1063
772,973,1061
773,979,1062
774,986,1061
775,987,1058
776,989,1052
777,985,1047
778,983,1047
779,988,1047
780,990,1045
781,994,1043
782,993,1040
783,992,1035
784,988,1032
785,988,1037
786,993,1039
787,994,1039
788,992,1035
789,992,1033
790,993,1035
791,990,1036
792,989,1036
793,996,1032
794,995,1030
795,993,1031
796,992,1031
797,992,1037
798,995,1035
799,995,1035
800,991,1028
801,990,1026
802,988,1032
803,989,1033
804,993,1036
805,995,1034
806,992,1032
807,988,1027
808,986,1029
809,988,1036
810,991,1037
811,993,1033
812,995,1031
813,990,1029
814,988,1033
815,989,1037
816,991,1040
817,992,1038
818,987,1034
819,985,1031
820,981,1031
821,988,1037
822,991,1042
823,990,1037
824,989,1035
825,988,1034
826,988,1035
827,988,1036
828,992,1039
829,994,1034
830,991,1031
831,986,1034
832,984,1033
833,987,1039
834,990,1039
835,992,1038
836,991,1036
837,986,1032
838,991,1036
839,990,1038
840,993,1041
841,994,1039
842,993,1035
843,991,1032
844,991,1034
845,991,1036
846,993,1038
847,994,1031
848,990,1031
849,986,1030
850,989,1029
851,991,1035
852,995,1036
853,995,1036
854,993,1032
855,989,1030
856,988,1028
857,989,1032
858,995,1036
859,994,1036
860,996,1033
861,988,1030
862,988,1031
863,988,1032
864,992,1036
865,994,1033
866,993,1031
867,991,1027
868,990,1030
869,991,1033
870,993,1034
871,995,1037
872,991,1032
873,988,1028
874,987,1028
875,989,1034
876,994,1032
877,994,1032
878,992,1031
879,989,1029
880,985,1029
881,993,1032
882,996,1034
883,999,1032
884,997,1030
885,988,1026
886,988,1026
887,991,1034
888,993,1038
889,992,1037
890,992,1034
891,993,1030
892,994,1032
893,995,1035
894,998,1037
895,998,1040
896,996,1038
897,995,1036
898,994,1044
899,1000,1049
900,1003,1047
901,1007,1051
902,1004,1046
903,1004,1045
904,1000,1049
905,1003,1053
906,1010,1055
907,1009,1053
908,1006,1053
909,1004,1047
910,1000,1046
911,1001,1043
912,1004,1039
913,1001,1037
914,999,1032
915,998,1031
916,995,1032
917,993,1034
918,993,1034
919,995,1030
920,997,1028
921,993,1027
922,990,1027
923,990,1029
924,991,1032
925,991,1032
926,988,1030
927,986,1026
928,984,1026
929,987,1029
930,988,1030
931,989,1029
932,984,1028
933,983,1024
934,985,1025
935,985,1027
936,989,1031
937,991,1028
938,989,1024
939,986,1019
940,985,1024
941,987,1027
942,990,1028
943,992,1027
944,990,1022
945,990,1022
946,991,1021
947,994,1023
948,996,1025
949,999,1022
950,995,1020
951,995,1021
952,997,1027
953,997,1030
954,1000,1034
955,999,1039
956,997,1039
957,994,1035
958,994,1033
959,1010,1025
960,1028,1014
961,1048,991
962,1069,967
963,1082,940
964,1097,923
965,1114,907
966,1130,884
967,1144,860
968,1161,835
969,1185,812
970,1217,798
971,1258,788
972,1302,780
973,1345,775
974,1384,770
975,1408,773
976,1415,779
977,1408,784
978,1376,787
979,1324,792
980,1254,795
981,1193,802
982,1153,815
983,1138,823
984,1131,843
985,1123,855
986,1121,874
987,1111,894
988,1103,910
989,1097,927
990,1094,941
991,1083,952
992,1071,962
993,1057,972
994,1052,987
995,1041,1002
996,1040,1011
997,1030,1017
998,1022,1022
999,1000,1032
1000,997,1048
1001,998,1058
1002,993,1065
1003,985,1064
1004,977,1068
1005,970,1071
1006,968,1078
1007,966,1082
1008,964,1084
1009,963,1083
1010,959,1084
1011,958,1089
1012,958,1093
1013,960,1092
1014,958,1091
1015,955,1091
1016,954,1090
1017,952,1095
1018,953,1102
1019,953,1108
1020,955,1107
1021,952,1109
1022,948,1107
1023,943,1108
1024,944,1116
1025,946,1120
1026,948,1121
1027,947,1123
1028,942,1124
1029,936,1126
1030,942,1132
1031,945,1132
1032,945,1136
1033,944,1137
1034,940,1140
1035,937,1144
1036,934,1151
1037,934,1158
1038,934,1161
1039,933,1162
1040,930,1166
1041,929,1168
1042,923,1178
1043,927,1185
1044,924,1184
1045,926,1187
1046,922,1187
1047,920,1191
1048,920,1196
1049,920,1199
1050,920,1201
1051,916,1202
1052,912,1200
1053,908,1202
1054,909,1210
1055,908,1211
1056,908,1208
1057,905,1204
1058,901,1200
1059,899,1203
1060,903,1202
1061,905,1201
1062,907,1200
1063,902,1195
1064,898,1188
1065,898,1184
1066,903,1179
1067,909,1176
1068,912,1168
1069,913,1160
1070,913,1154
1071,913,1147
1072,920,1141
1073,926,1136
1074,930,1129
1075,938,1118
1076,936,1110
1077,939,1103
1078,944,1104
1079,949,1096
1080,955,1092
1081,961,1081
1082,964,1077
1083,966,1069
1084,973,1066
1085,978,1065
1086,978,1062
1087,982,1056
1088,983,1052
1089,983,1048
1090,988,1046
1091,987,1049
1092,991,1045
1093,988,1042
1094,987,1037
1095,989,1039
1096,991,1041
1097,996,1045
1098,993,1041
1099,993,1036
1100,986,1032
1101,988,1032
1102,988,1035
1103,992,1038
1104,993,1039
1105,992,1034
1106,987,1034
1107,987,1036
1108,989,1038
1109,992,1038
1110,993,1037
1111,991,1034
1112,990,1032
1113,986,1035
1114,988,1036
1115,990,1038
1116,990,1038
1117,988,1032
1118,988,1030
1119,986,1033
1120,988,1036
1121,991,1040
1122,992,1039
1123,991,1036
1124,984,1034
1125,983,1035
1126,984,1037
1127,990,1042
1128,987,1041
1129,990,1038
1130,983,1038
1131,984,1037
1132,987,1042
1133,990,1045
1134,990,1044
1135,989,1038
1136,986,1038
1137,984,1039
1138,988,1042
1139,986,1043
1140,986,1045
1141,987,1042
1142,985,1043
1143,984,1043
1144,986,1047
1145,989,1047
1146,990,1046
1147,986,1042
1148,985,1041
1149,984,1043
1150,985,1044
1151,989,1048
1152,990,1044
1153,987,1040
1154,983,1041
1155,983,1043
1156,986,1046
1157,990,1049
1158,990,1043
1159,990,1040
1160,989,1036
1161,989,1039
1162,988,1041
1163,990,1043
1164,992,1042
1165,993,1042
1166,990,1039
1167,991,1039
1168,992,1041
1169,992,1044
1170,991,1043
1171,992,1036
1172,989,1037
1173,986,1037
1174,992,1041
1175,994,1039
1176,997,1040
1177,995,1035
1178,991,1035
1179,989,1037
1180,989,1039
1181,991,1043
1182,992,1040
1183,991,1039
1184,989,1033
1185,988,1032
1186,990,1035
1187,989,1039
1188,990,1039
1189,991,1037
1190,988,1035
1191,988,1034
1192,989,1038
1193,989,1038
1194,990,1037
1195,990,1033
1196,984,1034
1197,986,1033
1198,987,1035
1199,992,1036
1200,993,1039
1201,995,1034
1202,990,1032
1203,987,1032
1204,985,1037
1205,991,1041
1206,991,1041
1207,995,1039
1208,991,1035
1209,990,1037
1210,992,1040
1211,994,1045
1212,997,1046
1213,997,1046
1214,997,1044
1215,994,1049
1216,998,1051
1217,1000,1057
1218,1003,1056
1219,1001,1053
1220,1001,1053
1221,995,1053
1222,998,1059
1223,1003,1062
1224,1008,1058
1225,1005,1056
1226,1004,1052
1227,1000,1047
1228,1001,1047
1229,1003,1044
1230,1004,1045
1231,1004,1039
1232,997,1038
1233,992,1038
1234,994,1040
1235,998,1041
1236,997,1040
1237,999,1035
1238,999,1032
1239,996,1034
1240,996,1037
1241,995,1039
1242,995,1039
1243,992,1036
1244,988,1036
1245,988,1035
1246,988,1036
1247,988,1040
1248,988,1040
1249,988,1035
1250,987,1035
1251,988,1036
1252,989,1038
1253,996,1041
1254,994,1039
1255,990,1036
1256,985,1034
1257,982,1032
1258,986,1035
1259,991,1034
1260,995,1036
1261,996,1030
1262,991,1030
1263,991,1030
1264,991,1032
1265,994,1035
1266,996,1032
1267,999,1032
1268,998,1032
1269,996,1036
1270,995,1043
1271,999,1048
1272,1001,1055
1273,1001,1049
1274,999,1044
1275,998,1041
1276,1012,1029
1277,1035,1006
1278,1059,979
1279,1085,941
1280,1105,903
1281,1129,875
1282,1154,850
1283,1182,828
1284,1217,807
1285,1258,787
1286,1295,770
1287,1335,766
1288,1373,763
1289,1405,761
1290,1424,763
1291,1430,764
1292,1423,767
1293,1412,773
1294,1393,779
1295,1354,787
1296,1291,797
1297,1224,805
1298,1172,819
1299,1141,833
1300,1130,852
1301,1125,877
1302,1121,897
1303,1117,913
1304,1107,925
1305,1095,936
1306,1087,950
1307,1081,962
1308,1075,968
1309,1070,976
1310,1061,982
1311,1054,991
1312,1050,1010
1313,1042,1020
1314,1036,1028
1315,1024,1028
1316,1013,1039
1317,1004,1051
1318,997,1065
1319,989,1074
1320,985,1077
1321,977,1078
1322,971,1079
1323,967,1085
1324,966,1089
1325,967,1098
1326,968,1098
1327,963,1097
1328,958,1096
1329,957,1103
1330,955,1106
1331,955,1108
1332,960,1109
1333,959,1112
1334,954,1112
1335,954,1115
1336,949,1119
1337,952,1123
1338,953,1124
1339,951,1122
1340,950,1123
1341,945,1127
1342,946,1129
1343,947,1133
1344,944,1136
1345,942,1134
1346,942,1134
1347,942,1140
1348,945,1144
1349,943,1148
1350,944,1149
1351,942,1148
1352,935,1152
1353,933,1155
1354,934,1164
1355,937,1168
1356,936,1171
1357,931,1174
1358,930,1176
1359,921,1175
1360,922,1182
1361,922,1186
1362,924,1190
1363,921,1193
1364,920,1192
1365,918,1199
1366,920,1203
1367,922,1209
1368,921,1206
1369,917,1208
1370,913,1209
1371,907,1214
1372,909,1218
1373,911,1222
1374,909,1223
1375,906,1224
1376,899,1222
1377,897,1223
1378,898,1227
1379,902,1230
1380,901,1225
1381,899,1221
1382,892,1221
1383,893,1225
1384,894,1222
1385,895,1224
1386,896,1221
1387,897,1214
1388,897,1205
1389,900,1202
1390,900,1199
1391,903,1197
1392,905,1188
1393,905,1182
1394,906,1175
1395,912,1168
1396,917,1163
1397,923,1162
1398,927,1152
1399,929,1144
1400,931,1135
1401,930,1134
1402,940,1129
1403,945,1126
1404,951,1121
1405,951,1111
1406,956,1101
1407,959,1096
1408,963,1092
1409,968,1090
1410,972,1086
1411,974,1078
1412,979,1074
1413,980,1070
1414,984,1068
1415,991,1067
1416,994,1065
1417,991,1060
1418,992,1056
1419,993,1057
1420,995,1057
1421,998,1058
1422,1000,1061
1423,992,1055
1424,992,1053
1425,991,1052
1426,992,1054
1427,995,1051
1428,999,1052
1429,998,1051
1430,995,1051
1431,991,1049
1432,993,1051
1433,996,1054
1434,998,1053
1435,998,1049
1436,994,1047
1437,993,1050
1438,994,1053
1439,996,1055
1440,995,1053
1441,993,1053
1442,991,1051
1443,989,1049
1444,994,1051
1445,995,1054
1446,997,1055
1447,997,1052
1448,992,1046
1449,990,1050
1450,991,1056
1451,994,1058
1452,997,1054
1453,994,1049
1454,993,1049
1455,990,1051
1456,991,1055
1457,990,1057
1458,997,1057
1459,992,1056
1460,992,1052
1461,992,1054
1462,994,1057
1463,995,1058
1464,995,1059
1465,991,1053
1466,990,1054
1467,990,1054
1468,992,1056
1469,995,1062
1470,998,1059
1471,994,1055
1472,989,1053
1473,990,1054
1474,990,1057
1475,992,1062
1476,994,1060
1477,994,1057
1478,992,1053
1479,991,1057
1480,992,1056
1481,994,1059
1482,995,1057
1483,995,1052
1484,988,1051
1485,993,1051
1486,994,1053
1487,993,1056
1488,998,1057
1489,994,1052
1490,990,1050
1491,992,1048
1492,996,1053
1493,994,1056
1494,997,1052
1495,996,1049
1496,995,1045
1497,993,1046
1498,994,1049
1499,1000,1048
1500,1004,1051
1501,1001,1045
1502,997,1042
1503,998,1042
1504,998,1046
1505,1000,1048
1506,998,1048
1507,998,1047
1508,998,1045
1509,995,1043
1510,997,1046
1511,1000,1048
1512,999,1047
1513,1001,1047
1514,996,1043
1515,996,1043
1516,997,1046
1517,999,1050
1518,999,1046
1519,999,1043
1520,996,1039
1521,996,1044
1522,998,1049
1523,1002,1050
1524,1008,1050
1525,1003,1047
1526,1003,1045
1527,999,1046
1528,998,1050
1529,998,1051
1530,1006,1051
1531,1004,1052
1532,1003,1052
1533,1003,1053
1534,1006,1060
1535,1008,1063
1536,1010,1060
1537,1010,1058
1538,1008,1058
1539,1008,1064
1540,1006,1066
1541,1013,1070
1542,1015,1070
1543,1011,1068
1544,1010,1066
1545,1008,1061
1546,1011,1064
1547,1013,1064
1548,1015,1058
1549,1011,1049
1550,1005,1043
1551,1002,1044
1552,1004,1043
1553,1008,1048
1554,1009,1047
1555,1006,1042
1556,1001,1041
1557,999,1042
1558,999,1046
1559,1001,1050
1560,1002,1047
1561,999,1042
1562,996,1039
1563,993,1036
1564,995,1041
1565,992,1044
1566,992,1044
1567,994,1044
1568,992,1038
1569,994,1040
1570,993,1040
1571,994,1042
1572,995,1041
1573,994,1036
1574,992,1035
1575,994,1038
1576,992,1039
1577,996,1041
1578,998,1039
1579,997,1034
1580,997,1032
1581,997,1033
1582,999,1036
1583,1004,1038
1584,1005,1040
1585,1001,1037
1586,1000,1035
1587,1001,1038
1588,1004,1045
1589,1007,1055
1590,1008,1061
1591,1004,1056
1592,1002,1055
1593,1012,1041
1594,1037,1031
1595,1069,1017
1596,1088,999
1597,1101,971
1598,1111,935
1599,1128,901
1600,1156,875
1601,1193,852
1602,1235,828
1603,1276,810
1604,1316,798
1605,1358,788
1606,1400,784
1607,1427,782
1608,1433,780
1609,1420,774
1610,1381,771
1611,1318,770
1612,1249,774
1613,1191,781
1614,1157,792
1615,1133,803
1616,1116,818
1617,1107,838
1618,1103,866
1619,1106,892
1620,1105,911
1621,1095,927
1622,1084,942
1623,1076,954
1624,1067,969
1625,1062,985
1626,1056,995
1627,1046,1006
1628,1039,1011
1629,1028,1023
1630,1026,1033
1631,1019,1041
1632,1014,1050
1633,1007,1056
1634,997,1064
1635,990,1071
1636,986,1080
1637,984,1091
1638,980,1090
1639,975,1092
1640,969,1090
1641,964,1097
1642,965,1101
1643,966,1105
1644,970,1106
1645,966,1105
1646,962,1105
1647,957,1106
1648,961,1110
1649,963,1117
1650,966,1115
1651,960,1113
1652,956,1112
1653,956,1119
1654,953,1126
1655,957,1130
1656,960,1132
1657,957,1131
1658,953,1131
1659,952,1134
1660,951,1136
1661,951,1143
1662,948,1145
1663,951,1145
1664,948,1144
1665,948,1150
1666,946,1155
1667,946,1161
1668,947,1160
1669,946,1160
1670,940,1163
1671,940,1170
1672,942,1176
1673,940,1184
1674,938,1187
1675,935,1185
1676,930,1192
1677,929,1194
1678,930,1200
1679,931,1205
1680,930,1211
1681,923,1207
1682,918,1205
1683,918,1208
1684,918,1211
1685,922,1217
1686,922,1216
1687,919,1214
1688,915,1214
1689,911,1214
1690,908,1215
1691,910,1218
1692,913,1212
1693,912,1208
1694,906,1202
1695,904,1198
1696,907,1198
1697,910,1196
1698,914,1187
1699,916,1180
1700,914,1173
1701,916,1166
1702,920,1161
1703,925,1159
1704,931,1150
1705,932,1144
1706,933,1134
1707,937,1127
1708,945,1123
1709,950,1116
1710,957,1108
1711,960,1096
1712,964,1088
1713,969,1085
1714,974,1082
1715,983,1081
1716,986,1077
1717,988,1068
1718,984,1063
1719,989,1061
1720,991,1062
1721,995,1061
1722,998,1058
1723,1001,1054
1724,997,1050
1725,996,1049
1726,997,1049
1727,1000,1051
1728,1002,1050
1729,1001,1048
1730,1001,1045
1731,996,1046
1732,996,1046
1733,1000,1048
1734,1000,1047
1735,998,1043
1736,995,1040
1737,998,1038
1738,997,1042
1739,998,1050
1740,999,1047
1741,999,1044
1742,996,1040
1743,994,1041
1744,997,1042
1745,1000,1044
1746,1001,1043
1747,997,1042
1748,994,1041
1749,992,1041
1750,995,1047
1751,998,1047
1752,1000,1045
1753,997,1042
1754,996,1042
1755,992,1041
1756,991,1043
1757,995,1049
1758,997,1046
1759,997,1044
1760,997,1042
1761,995,1040
1762,994,1048
1763,995,1048
1764,999,1047
1765,999,1046
1766,995,1043
1767,995,1045
1768,996,1048
1769,1000,1053
1770,998,1048
1771,995,1047
1772,991,1045
1773,994,1047
1774,996,1051
1775,997,1054
1776,997,1052
1777,996,1049
1778,995,1047
1779,992,1045
1780,996,1046
1781,998,1052
1782,1002,1049
1783,999,1046
1784,998,1045
1785,995,1047
1786,996,1045
1787,1001,1046
1788,1003,1046
1789,1000,1045
1790,1000,1042
1791,996,1044
1792,998,1044
1793,1000,1049
1794,1002,1047
1795,1002,1044
1796,1000,1041
1797,1000,1038
1798,1002,1039
1799,1003,1042
1800,1001,1037
1801,1001,1039
1802,997,1034
1803,997,1034
1804,998,1038
1805,1003,1040
1806,1001,1038
1807,999,1034
1808,994,1033
1809,996,1036
1810,996,1036
1811,1001,1042
1812,1000,1040
1813,1000,1036
1814,994,1033
1815,993,1033
1816,995,1035
1817,997,1037
1818,999,1036
1819,1001,1033
1820,998,1032
1821,997,1030
1822,998,1034
1823,1000,1036
1824,1002,1036
1825,1002,1033
1826,998,1031
1827,999,1034
1828,998,1038
1829,1001,1039
1830,1006,1035
1831,1007,1032
1832,1004,1030
1833,1004,1033
1834,1009,1036
1835,1011,1042
1836,1012,1040
1837,1010,1038
1838,1010,1038
1839,1011,1041
1840,1013,1044
1841,1014,1048
1842,1019,1049
1843,1014,1047
1844,1014,1044
1845,1012,1042
1846,1016,1043
1847,1017,1039
1848,1018,1039
1849,1010,1034
1850,1007,1027
1851,1004,1028
1852,1004,1028
1853,1008,1032
1854,1010,1030
1855,1009,1026
1856,1007,1024
1857,999,1024
1858,998,1026
1859,999,1026
1860,1003,1026
1861,999,1023
1862,996,1018
1863,993,1024
1864,993,1022
1865,991,1023
1866,997,1024
1867,997,1021
1868,996,1019
1869,996,1021
1870,996,1023
1871,997,1024
1872,997,1024
1873,995,1019
1874,994,1017
1875,991,1019
1876,995,1025
1877,997,1025
1878,1002,1022
1879,1002,1020
1880,998,1016
1881,1000,1015
1882,1004,1018
1883,1006,1023
1884,1007,1024
1885,1007,1026
1886,1006,1027
1887,1004,1030
1888,1008,1034
1889,1012,1029
1890,1021,1015
1891,1033,989
1892,1055,961
1893,1080,925
1894,1101,894
1895,1124,869
1896,1145,839
1897,1167,815
1898,1196,792
1899,1232,780
1900,1270,772
1901,1301,768
1902,1332,760
1903,1358,755
1904,1387,758
1905,1416,765
1906,1436,774
1907,1439,781
1908,1425,787
1909,1383,783
1910,1315,791
1911,1244,802
1912,1185,818
1913,1155,834
1914,1141,844
1915,1131,861
1916,1126,879
1917,1118,894
1918,1113,912
1919,1108,926
1920,1102,932
1921,1092,942
1922,1082,946
1923,1074,961
1924,1062,977
1925,1057,994
1926,1047,1005
1927,1038,1013
1928,1025,1019
1929,1013,1028
1930,1011,1039
1931,1003,1052
1932,998,1059
1933,987,1060
1934,978,1065
1935,976,1066
1936,971,1071
1937,973,1074
1938,970,1073
1939,973,1075
1940,967,1075
1941,963,1077
1942,962,1086
1943,964,1089
1944,965,1092
1945,961,1095
1946,958,1088
1947,957,1090
1948,957,1094
1949,962,1102
1950,963,1104
1951,958,1103
1952,954,1100
1953,951,1102
1954,954,1108
1955,953,1113
1956,952,1114
1957,949,1112
1958,948,1112
1959,949,1118
1960,949,1127
1961,949,1132
1962,951,1134
1963,947,1130
1964,942,1136
1965,940,1139
1966,942,1148
1967,944,1153
1968,944,1155
1969,939,1155
1970,932,1151
1971,931,1157
1972,934,1162
1973,936,1166
1974,938,1173
1975,933,1174
1976,929,1174
1977,924,1179
1978,925,1183
1979,926,1192
1980,926,1188
1981,924,1188
1982,920,1188
1983,915,1189
1984,915,1193
1985,916,1197
1986,917,1197
1987,915,1195
1988,911,1189
1989,908,1189
1990,907,1186
1991,909,1191
1992,911,1185
1993,914,1182
1994,910,1175
1995,909,1170
1996,910,1166
1997,911,1164
1998,914,1157
1999,918,1146
2000,919,1140
2001,921,1129
2002,928,1122
2003,936,1121
2004,938,1111
2005,939,1106
2006,944,1099
2007,948,1092
2008,955,1089
2009,961,1087
2010,966,1078
2011,961,1071
2012,968,1062
2013,969,1056
2014,976,1054
2015,984,1053
2016,988,1048
2017,987,1042
2018,984,1035
2019,983,1035
2020,989,1035
2021,992,1034
2022,999,1032
2023,997,1030
2024,993,1025
2025,993,1024
2026,992,1027
2027,995,1027
2028,996,1025
2029,995,1022
2030,994,1020
2031,991,1020
2032,993,1022
2033,994,1026
2034,995,1026
2035,992,1021
2036,990,1021
2037,992,1020
2038,995,1021
2039,998,1025
2040,997,1023
2041,993,1019
2042,992,1022
2043,994,1019
2044,996,1022
2045,998,1025
2046,998,1024
2047,992,1021
2048,992,1019
2049,989,1019
2050,992,1023
2051,994,1029
2052,996,1029
2053,996,1026
2054,991,1019
2055,988,1020
2056,986,1022
2057,990,1027
2058,993,1028
2059,992,1025
2060,989,1027
2061,982,1027
2062,986,1031
2063,988,1031
2064,992,1029
2065,990,1024
2066,987,1024
2067,988,1026
2068,991,1028
2069,991,1026
2070,993,1030
2071,987,1025
2072,986,1023
2073,986,1024
2074,989,1026
2075,991,1033
2076,991,1029
2077,987,1027
2078,985,1025
2079,985,1023
2080,991,1023
2081,995,1030
2082,995,1027
2083,994,1024
2084,987,1024
2085,985,1024
2086,987,1029
2087,988,1028
2088,990,1027
2089,993,1025
2090,990,1022
2091,988,1023
2092,988,1025
2093,992,1027
2094,995,1026
2095,992,1025
2096,991,1020
2097,988,1020
2098,990,1022
2099,988,1022
2100,992,1020
2101,989,1022
2102,989,1025
2103,991,1023
2104,993,1026
2105,994,1029
2106,998,1029
2107,996,1026
2108,994,1024
2109,998,1024
2110,1002,1031
2111,1003,1034
2112,1006,1034
2113,1009,1032
2114,1012,1031
2115,1014,1036
2116,1019,1039
2117,1026,1044
2118,1035,1047
2119,1041,1048
2120,1044,1050
2121,1054,1056
2122,1069,1065
2123,1091,1069
2124,1109,1072
2125,1131,1073
2126,1140,1076
2127,1146,1087
2128,1157,1099
2129,1172,1111
2130,1181,1121
2131,1194,1135
2132,1202,1145
2133,1210,1159
2134,1219,1182
2135,1222,1209
2136,1225,1244
2137,1219,1286
2138,1210,1332
2139,1193,1369
2140,1158,1393
2141,1089,1411
2142,1002,1413
2143,902,1420
2144,822,1421
2145,765,1429
2146,731,1434
2147,704,1444
2148,689,1442
2149,680,1437
2150,682,1425
2151,692,1411
2152,699,1395
2153,709,1382
2154,718,1357
2155,734,1328
2156,748,1306
2157,757,1285
2158,761,1268
2159,768,1250
2160,778,1239
2161,787,1233
2162,791,1235
2163,797,1240
2164,805,1247
2165,814,1256
2166,820,1253
2167,818,1249
2168,818,1237
2169,817,1223
2170,819,1204
2171,828,1180
2172,837,1148
2173,850,1117
2174,862,1090
2175,877,1060
2176,896,1035
2177,917,1014
2178,932,996
2179,952,974
2180,963,963
2181,971,956
2182,978,953
2183,985,951
2184,993,941
2185,996,928
2186,1001,918
2187,1003,910
2188,1006,910
2189,1012,907
2190,1014,900
2191,1014,893
2192,1019,885
2193,1020,882
2194,1023,881
2195,1030,877
2196,1035,870
2197,1038,863
2198,1039,859
2199,1039,858
2200,1041,858
2201,1045,850
2202,1046,846
2203,1051,838
2204,1057,829
2205,1062,823
2206,1068,822
2207,1073,820
2208,1078,814
2209,1082,804
2210,1086,795
2211,1092,787
2212,1100,786
2213,1107,783
2214,1112,777
2215,1119,771
2216,1120,767
2217,1127,764
2218,1131,758
2219,1139,757
2220,1144,752
2221,1150,745
2222,1154,738
2223,1159,735
2224,1163,736
2225,1174,736
2226,1181,733
2227,1183,730
2228,1185,725
2229,1186,728
2230,1192,733
2231,1199,734
2232,1202,732
2233,1201,734
2234,1198,734
2235,1195,742
2236,1195,750
2237,1200,759
2238,1202,765
2239,1198,771
2240,1191,776
2241,1184,784
2242,1183,798
2243,1183,809
2244,1177,819
2245,1173,829
2246,1164,833
2247,1155,839
2248,1150,851
2249,1149,861
2250,1145,873
2251,1137,881
2252,1127,887
2253,1117,902
2254,1110,917
2255,1104,929
2256,1097,932
2257,1086,940
2258,1077,945
2259,1068,955
2260,1060,965
2261,1055,975
2262,1050,976
2263,1045,980
2264,1039,978
2265,1030,983
2266,1022,988
2267,1026,995
2268,1022,998
2269,1020,999
2270,1016,994
2271,1012,999
2272,1011,1002
2273,1011,1005
2274,1009,1006
2275,1007,1005
2276,1003,1005
2277,999,1008
2278,1003,1010
2279,1005,1014
2280,1005,1016
2281,1000,1010
2282,998,1007
2283,998,1008
2284,997,1014
2285,1003,1020
2286,1003,1017
2287,998,1016
2288,995,1011
2289,991,1010
2290,991,1014
2291,997,1021
2292,996,1018
2293,996,1017
2294,992,1014
2295,990,1013
2296,989,1019
2297,992,1022
2298,996,1024
2299,991,1023
2300,992,1022
2301,989,1021
2302,988,1021
2303,993,1024
2304,995,1023
2305,996,1024
2306,992,1018
2307,988,1018
2308,986,1021
2309,988,1025
2310,988,1024
2311,988,1023
2312,990,1018
2313,990,1020
2314,991,1023
2315,989,1029
2316,987,1029
2317,988,1025
2318,986,1021
2319,987,1022
2320,990,1021
2321,992,1027
2322,990,1025
2323,988,1021
2324,983,1020
2325,986,1021
2326,990,1031
2327,993,1029
2328,993,1031
2329,993,1021
2330,990,1019
2331,987,1019
2332,988,1025
2333,989,1027
2334,991,1026
2335,989,1026
2336,986,1023
2337,984,1024
2338,983,1026
2339,987,1028
2340,989,1025
2341,990,1026
2342,989,1025
2343,985,1027
2344,985,1028
2345,987,1031
2346,990,1029
2347,990,1027
2348,988,1025
2349,984,1029
2350,984,1028
2351,987,1033
2352,990,1033
2353,988,1031
2354,988,1026
2355,988,1025
2356,988,1028
2357,990,1033
2358,990,1028
2359,988,1026
2360,985,1022
2361,981,1024
2362,983,1027
2363,986,1026
2364,988,1026
2365,988,1026
2366,986,1024
2367,984,1023
2368,987,1028
2369,989,1028
2370,989,1028
2371,987,1025
2372,980,1021
2373,981,1024
2374,982,1025
2375,989,1031
2376,990,1029
2377,988,1023
2378,986,1025
2379,981,1023
2380,982,1027
2381,987,1028
2382,988,1028
2383,988,1028
2384,985,1020
2385,981,1022
2386,984,1024
2387,987,1027
2388,992,1026
2389,992,1024
2390,989,1019
2391,987,1023
2392,987,1026
2393,989,1030
2394,992,1027
2395,991,1024
2396,986,1022
2397,987,1025
2398,987,1028
2399,990,1030
2400,990,1032
2401,990,1027
2402,990,1024
2403,987,1023
2404,987,1024
2405,990,1030
2406,991,1028
2407,992,1028
2408,991,1025
2409,992,1027
2410,997,1025
2411,1001,1030
2412,1005,1031
2413,1001,1030
2414,1000,1031
2415,998,1030
2416,1001,1036
2417,1004,1038
2418,1006,1036
2419,1004,1036
2420,1004,1028
2421,1003,1029
2422,1006,1032
2423,1008,1031
2424,1010,1033
2425,1006,1029
2426,1002,1025
2427,1002,1022
2428,1004,1025
2429,1004,1028
2430,1009,1025
2431,1003,1024
2432,996,1021
2433,990,1021
2434,992,1019
2435,996,1021
2436,996,1022
2437,991,1019
2438,989,1016
2439,986,1016
2440,987,1020
2441,988,1021
2442,988,1017
2443,991,1014
2444,991,1015
2445,988,1014
2446,986,1021
2447,990,1025
2448,989,1027
2449,989,1020
2450,989,1017
2451,987,1016
2452,989,1019
2453,991,1022
2454,994,1021
2455,991,1019
2456,990,1018
2457,990,1017
2458,993,1022
2459,997,1026
2460,999,1029
2461,998,1033
2462,995,1035
2463,993,1033
2464,999,1027
2465,1012,1017
2466,1035,994
2467,1059,966
2468,1077,934
2469,1100,905
2470,1127,883
2471,1155,863
2472,1190,837
2473,1229,816
2474,1270,799
2475,1312,792
2476,1356,791
2477,1398,792
2478,1426,784
2479,1438,779
2480,1441,778
2481,1433,780
2482,1418,785
2483,1374,791
2484,1299,795
2485,1214,803
2486,1149,812
2487,1118,830
2488,1109,853
2489,1104,876
2490,1101,897
2491,1093,907
2492,1078,914
2493,1069,925
2494,1060,937
2495,1056,950
2496,1048,962
2497,1041,973
2498,1036,982
2499,1030,992
2500,1026,1005
2501,1023,1016
2502,1015,1022
2503,1001,1031
2504,993,1038
2505,985,1047
2506,981,1058
2507,978,1069
2508,973,1069
2509,966,1072
2510,957,1073
2511,955,1076
2512,958,1080
2513,962,1085
2514,963,1084
2515,958,1084
2516,953,1084
2517,945,1085
2518,943,1091
2519,948,1098
2520,951,1097
2521,949,1101
2522,947,1098
2523,943,1100
2524,944,1104
2525,946,1109
2526,948,1109
2527,946,1107
2528,941,1108
2529,939,1112
2530,940,1118
2531,943,1120
2532,946,1125
2533,944,1122
2534,939,1125
2535,939,1129
2536,935,1134
2537,936,1139
2538,936,1142
2539,934,1147
2540,929,1144
2541,930,1151
2542,931,1155
2543,929,1161
2544,927,1164
2545,925,1166
2546,923,1165
2547,919,1165
2548,923,1174
2549,924,1178
2550,921,1180
2551,915,1180
2552,910,1181
2553,909,1187
2554,911,1186
2555,913,1190
2556,908,1192
2557,905,1190
2558,902,1186
2559,898,1187
2560,900,1192
2561,903,1194
2562,903,1188
2563,898,1182
2564,894,1178
2565,895,1175
2566,894,1174
2567,900,1173
2568,904,1168
2569,904,1156
2570,902,1149
2571,902,1140
2572,908,1138
2573,916,1132
2574,924,1128
2575,926,1117
2576,928,1109
2577,932,1104
2578,934,1100
2579,942,1097
2580,949,1090
2581,954,1080
2582,957,1070
2583,958,1067
2584,964,1067
2585,970,1062
2586,978,1058
2587,983,1052
2588,984,1044
2589,984,1042
2590,988,1041
2591,993,1046
2592,992,1041
2593,996,1039
2594,995,1031
2595,994,1034
2596,992,1035
2597,995,1038
2598,996,1036
2599,997,1029
2600,992,1028
2601,993,1028
2602,993,1030
2603,995,1031
2604,998,1031
2605,992,1028
2606,990,1026
2607,989,1029
2608,992,1033
2609,993,1033
2610,994,1032
2611,991,1033
2612,987,1030
2613,987,1029
2614,988,1034
2615,992,1035
2616,993,1035
2617,995,1034
2618,988,1033
2619,986,1035
2620,990,1037
2621,993,1041
2622,997,1039
2623,992,1038
2624,988,1038
2625,986,1038
2626,991,1042
2627,993,1046
2628,996,1044
2629,994,1042
2630,992,1038
2631,987,1042
2632,991,1042
2633,995,1047
2634,996,1047
2635,996,1043
2636,993,1041
2637,994,1042
2638,990,1045
2639,992,1048
2640,994,1047
2641,993,1048
2642,995,1043
2643,995,1042
2644,994,1043
2645,997,1046
2646,998,1045
2647,998,1044
2648,997,1041
2649,996,1041
2650,996,1040
2651,1000,1046
2652,1000,1042
2653,998,1038
2654,994,1036
2655,991,1039
2656,993,1041
2657,997,1044
2658,996,1041
2659,997,1036
2660,990,1032
2661,993,1032
2662,994,1039
2663,995,1044
2664,999,1040
2665,995,1036
2666,993,1030
2667,991,1032
2668,991,1036
2669,993,1036
2670,997,1036
2671,991,1032
2672,989,1031
2673,987,1033
2674,990,1034
2675,994,1035
2676,995,1031
2677,994,1031
2678,989,1029
2679,993,1031
2680,993,1029
2681,997,1034
2682,1001,1030
2683,1002,1029
2684,1001,1024
2685,1001,1025
2686,1006,1029
2687,1008,1035
2688,1011,1035
2689,1011,1031
2690,1008,1029
2691,1006,1029
2692,1008,1032
2693,1010,1033
2694,1013,1032
2695,1012,1027
2696,1009,1024
2697,1008,1026
2698,1012,1030
2699,1011,1031
2700,1011,1030
2701,1011,1023
2702,1005,1023
2703,1003,1023
2704,1005,1028
2705,1008,1031
2706,1007,1030
2707,1004,1023
2708,999,1021
2709,994,1021
2710,996,1026
2711,995,1027
2712,996,1029
2713,992,1024
2714,988,1024
2715,985,1025
2716,988,1024
2717,991,1026
2718,993,1023
2719,994,1021
2720,991,1020
2721,987,1021
2722,988,1029
2723,990,1032
2724,990,1027
2725,990,1027
2726,990,1025
2727,987,1025
2728,987,1026
2729,991,1031
2730,991,1031
2731,992,1027
2732,992,1022
2733,993,1026
2734,994,1028
2735,997,1032
2736,999,1033
2737,998,1034
2738,994,1040
2739,994,1042
2740,996,1041
2741,1006,1030
2742,1022,1010
2743,1039,987
2744,1057,954
2745,1077,923
2746,1100,897
2747,1124,873
2748,1146,848
2749,1171,824
2750,1198,803
2751,1236,789
2752,1273,783
2753,1313,780
2754,1348,775
2755,1374,775
2756,1391,776
2757,1402,786
2758,1407,794
2759,1411,798
2760,1396,801
2761,1354,800
2762,1292,807
2763,1229,817
2764,1181,832
2765,1152,848
2766,1135,858
2767,1120,875
2768,1112,891
2769,1107,906
2770,1101,921
2771,1098,933
2772,1091,943
2773,1081,947
2774,1071,953
2775,1060,960
2776,1053,975
2777,1051,987
2778,1048,1000
2779,1040,1007
2780,1029,1018
2781,1019,1028
2782,1009,1038
2783,1006,1049
2784,1000,1059
2785,994,1062
2786,983,1063
2787,976,1070
2788,972,1077
2789,968,1084
2790,964,1088
2791,961,1086
2792,956,1085
2793,954,1087
2794,955,1092
2795,956,1099
2796,955,1098
2797,950,1097
2798,949,1098
2799,945,1101
2800,948,1102
2801,949,1111
2802,952,1110
2803,945,1110
2804,942,1108
2805,938,1110
2806,939,1116
2807,944,1120
2808,945,1122
2809,938,1122
2810,937,1122
2811,936,1124
2812,938,1127
2813,938,1130
2814,941,1132
2815,939,1131
2816,936,1132
2817,934,1135
2818,934,1145
2819,935,1150
2820,934,1150
2821,933,1150
2822,931,1150
2823,928,1156
2824,928,1161
2825,928,1167
2826,929,1168
2827,925,1168
2828,919,1172
2829,917,1173
2830,918,1177
2831,921,1181
2832,924,1186
2833,921,1185
2834,916,1186
2835,911,1186
2836,911,1195
2837,912,1200
2838,911,1201
2839,911,1199
2840,907,1199
2841,903,1199
2842,904,1203
2843,902,1207
2844,902,1207
2845,899,1207
2846,898,1202
2847,895,1202
2848,896,1198
2849,895,1203
2850,899,1200
2851,895,1194
2852,893,1188
2853,890,1185
2854,897,1184
2855,901,1182
2856,906,1178
2857,904,1170
2858,903,1161
2859,904,1158
2860,907,1153
2861,914,1149
2862,920,1143
2863,923,1135
2864,925,1127
2865,926,1119
2866,930,1118
2867,935,1111
2868,943,1109
2869,949,1102
2870,949,1095
2871,953,1090
2872,957,1087
2873,962,1088
2874,966,1079
2875,965,1071
2876,968,1066
2877,969,1060
2878,976,1061
2879,982,1060
2880,983,1056
2881,984,1052
2882,981,1052
2883,979,1050
2884,982,1049
2885,992,1052
2886,994,1047
2887,993,1043
2888,986,1041
2889,986,1039
2890,987,1042
2891,992,1044
2892,993,1045
2893,992,1041
2894,992,1038
2895,988,1037
2896,989,1040
2897,991,1041
2898,988,1041
2899,989,1039
2900,989,1036
2901,987,1037
2902,991,1043
2903,992,1043
2904,992,1042
2905,990,1040
2906,987,1040
2907,985,1041
2908,987,1046
2909,992,1048
2910,995,1050
2911,990,1044
2912,990,1040
2913,988,1043
2914,987,1045
2915,990,1048
2916,991,1048
2917,990,1046
2918,988,1046
2919,985,1048
2920,987,1049
2921,988,1050
2922,993,1050
2923,991,1045
2924,984,1044
2925,985,1048
2926,984,1048
2927,986,1050
2928,988,1049
2929,988,1049
2930,981,1046
2931,979,1047
2932,984,1047
2933,991,1052
2934,992,1053
2935,992,1049
2936,985,1043
2937,981,1047
2938,984,1051
2939,989,1053
2940,990,1051
2941,989,1051
2942,992,1044
2943,986,1047
2944,989,1050
2945,990,1051
2946,990,1050
2947,993,1048
2948,990,1048
2949,989,1048
2950,985,1047
2951,989,1047
2952,990,1046
2953,990,1045
2954,987,1043
2955,985,1041
2956,989,1044
2957,989,1047
2958,993,1047
2959,990,1042
2960,988,1040
2961,985,1041
2962,987,1045
2963,991,1048
2964,993,1047
2965,993,1043
2966,992,1038
2967,989,1038
2968,987,1039
2969,988,1042
2970,993,1039
2971,992,1039
2972,990,1039
2973,989,1035
2974,992,1041
2975,993,1041
2976,996,1041
2977,993,1036
2978,990,1035
2979,988,1032
2980,992,1034
2981,994,1040
2982,997,1037
2983,996,1036
2984,995,1034
2985,995,1033
2986,996,1036
2987,1002,1036
2988,1008,1036
2989,1008,1035
2990,1005,1032
2991,1003,1036
2992,1000,1041
2993,1005,1044
2994,1005,1038
2995,1002,1039
2996,1003,1038
2997,1001,1038
2998,1005,1041
2999,1008,1042
3000,1013,1041
3001,1012,1038
3002,1008,1033
3003,1010,1037
3004,1009,1036
3005,1010,1037
3006,1013,1034
3007,1011,1035
3008,1006,1031
3009,1004,1030
3010,1007,1033
3011,1010,1039
3012,1013,1037
3013,1011,1031
3014,1009,1032
3015,1006,1032
3016,1005,1033
3017,1006,1035
3018,1006,1030
3019,999,1029
3020,997,1028
3021,996,1027
3022,996,1027
3023,995,1031
3024,995,1030
3025,996,1024
3026,991,1023
3027,993,1023
3028,996,1024
3029,998,1027
3030,1003,1030
3031,1001,1027
3032,996,1029
3033,993,1025
3034,993,1030
3035,997,1034
3036,996,1033
3037,995,1028
3038,996,1029
3039,993,1030
3040,993,1031
3041,996,1032
3042,998,1035
3043,998,1032
3044,995,1029
3045,995,1029
3046,997,1031
3047,1000,1034
3048,1004,1033
3049,1002,1035
3050,999,1035
3051,994,1039
3052,995,1044
3053,999,1048
3054,1002,1048
3055,1006,1044
3056,1012,1031
3057,1023,1015
3058,1043,997
3059,1064,976
3060,1084,956
3061,1100,927
3062,1114,900
3063,1134,876
3064,1155,857
3065,1184,838
3066,1211,820
3067,1244,803
3068,1273,792
3069,1302,785
3070,1336,782
3071,1368,777
3072,1390,773
3073,1398,771
3074,1399,773
3075,1397,778
3076,1389,781
3077,1374,790
3078,1350,789
3079,1310,794
3080,1258,799
3081,1210,806
3082,1168,824
3083,1140,839
3084,1124,852
3085,1111,866
3086,1103,881
3087,1098,899
3088,1093,919
3089,1095,934
3090,1089,943
3091,1079,949
3092,1068,959
3093,1057,968
3094,1049,979
3095,1047,988
3096,1045,995
3097,1042,1000
3098,1036,1008
3099,1030,1018
3100,1025,1026
3101,1020,1036
3102,1010,1043
3103,1005,1046
3104,998,1053
3105,989,1063
3106,983,1071
3107,979,1078
3108,977,1085
3109,966,1084
3110,963,1085
3111,958,1088
3112,956,1093
3113,957,1097
3114,960,1094
3115,958,1095
3116,954,1094
3117,949,1096
3118,950,1099
3119,950,1104
3120,952,1106
3121,952,1106
3122,951,1105
3123,948,1108
3124,946,1112
3125,946,1115
3126,948,1118
3127,948,1116
3128,943,1115
3129,943,1118
3130,942,1123
3131,941,1130
3132,943,1126
3133,940,1125
3134,937,1127
3135,935,1127
3136,933,1135
3137,938,1137
3138,942,1139
3139,942,1141
3140,937,1142
3141,931,1143
3142,931,1148
3143,933,1153
3144,935,1157
3145,932,1160
3146,928,1160
3147,925,1164
3148,922,1168
3149,925,1174
3150,924,1177
3151,926,1179
3152,920,1179
3153,918,1181
3154,920,1184
3155,918,1191
3156,918,1191
3157,913,1190
3158,911,1192
3159,906,1194
3160,907,1198
3161,910,1201
3162,910,1202
3163,906,1204
3164,900,1200
3165,896,1204
3166,895,1205
3167,899,1207
3168,901,1207
3169,900,1201
3170,894,1196
3171,891,1193
3172,892,1190
3173,895,1191
3174,896,1190
3175,895,1184
3176,897,1177
3177,899,1174
3178,903,1172
3179,906,1167
3180,908,1160
3181,909,1152
3182,909,1143
3183,917,1136
3184,921,1134
3185,931,1128
3186,936,1119
3187,941,1111
3188,943,1101
3189,945,1094
3190,949,1092
3191,957,1091
3192,966,1085
3193,969,1079
3194,967,1072
3195,971,1070
3196,974,1070
3197,980,1064
3198,983,1062
3199,986,1058
3200,986,1053
3201,986,1052
3202,989,1051
3203,989,1055
3204,994,1053
3205,994,1047
3206,996,1042
3207,993,1045
3208,997,1042
3209,998,1047
3210,1000,1047
3211,998,1043
3212,995,1043
3213,997,1044
3214,998,1047
3215,1003,1049
3216,1007,1051
3217,1009,1049
3218,1009,1050
3219,1013,1055
3220,1020,1062
3221,1034,1073
3222,1052,1078
3223,1068,1083
3224,1086,1089
3225,1103,1097
3226,1124,1109
3227,1150,1123
3228,1173,1137
3229,1197,1148
3230,1215,1153
3231,1232,1166
3232,1247,1179
3233,1264,1190
3234,1274,1196
3235,1283,1202
3236,1283,1204
3237,1273,1214
3238,1252,1225
3239,1210,1238
3240,1148,1249
3241,1072,1252
3242,1000,1258
3243,937,1257
3244,885,1252
3245,846,1250
3246,811,1240
3247,788,1232
3248,762,1222
3249,744,1217
3250,732,1215
3251,718,1212
3252,706,1208
3253,689,1200
3254,677,1196
3255,665,1196
3256,656,1198
3257,653,1205
3258,646,1205
3259,643,1202
3260,637,1200
3261,632,1197
3262,632,1194
3263,640,1190
3264,653,1179
3265,667,1170
3266,690,1162
3267,722,1161
3268,753,1160
3269,782,1166
3270,803,1162
3271,817,1160
3272,826,1157
3273,838,1158
3274,847,1158
3275,856,1161
3276,865,1159
3277,871,1153
3278,877,1148
3279,874,1139
3280,880,1130
3281,887,1117
3282,904,1103
3283,915,1084
3284,922,1072
3285,930,1057
3286,940,1049
3287,954,1044
3288,962,1033
3289,970,1018
3290,978,1006
3291,984,998
3292,991,998
3293,1003,994
3294,1012,989
3295,1015,979
3296,1013,971
3297,1014,967
3298,1023,965
3299,1031,959
3300,1039,953
3301,1041,944
3302,1041,940
3303,1043,940
3304,1047,938
3305,1051,935
3306,1061,932
3307,1065,925
3308,1068,918
3309,1072,913
3310,1074,912
3311,1081,914
3312,1091,909
3313,1089,903
3314,1094,900
3315,1093,897
3316,1102,896
3317,1110,894
3318,1122,889
3319,1124,882
3320,1126,879
3321,1127,875
3322,1135,874
3323,1144,876
3324,1152,871
3325,1157,866
3326,1160,862
3327,1164,857
3328,1168,858
3329,1173,859
3330,1180,857
3331,1186,851
3332,1190,850
3333,1197,847
3334,1203,851
3335,1209,854
3336,1211,854
3337,1215,850
3338,1214,848
3339,1213,848
3340,1222,851
3341,1228,856
3342,1234,855
3343,1236,853
3344,1239,854
3345,1238,855
3346,1241,858
3347,1244,863
3348,1251,865
3349,1254,870
3350,1252,869
3351,1251,876
3352,1251,878
3353,1252,883
3354,1254,883
3355,1249,883
3356,1250,880
3357,1247,886
3358,1248,893
3359,1247,901
3360,1247,905
3361,1243,906
3362,1236,909
3363,1229,916
3364,1224,922
3365,1225,930
3366,1220,934
3367,1217,936
3368,1206,941
3369,1199,944
3370,1193,954
3371,1190,962
3372,1185,965
3373,1177,969
3374,1169,971
3375,1162,974
3376,1156,982
3377,1151,988
3378,1143,990
3379,1136,991
3380,1131,992
3381,1123,995
3382,1119,1003
3383,1112,1010
3384,1109,1011
3385,1101,1011
3386,1091,1013
3387,1081,1016
3388,1074,1021
3389,1071,1026
3390,1067,1027
3391,1062,1027
3392,1053,1028
3393,1045,1027
3394,1044,1031
3395,1039,1036
3396,1035,1035
3397,1032,1031
3398,1027,1029
3399,1024,1029
3400,1025,1032
3401,1027,1037
3402,1024,1038
3403,1020,1034
3404,1014,1031
3405,1010,1030
3406,1007,1032
3407,1012,1037
3408,1014,1035
3409,1014,1036
3410,1009,1032
3411,1002,1035
3412,1000,1036
3413,1004,1039
3414,1004,1037
3415,1002,1034
3416,999,1030
3417,995,1032
3418,998,1034
3419,999,1036
3420,1002,1038
3421,997,1036
3422,995,1033
3423,995,1033
3424,995,1036
3425,996,1036
3426,997,1037
3427,995,1035
3428,991,1033
3429,992,1031
3430,991,1035
3431,990,1039
3432,994,1037
3433,993,1035
3434,992,1031
3435,987,1036
3436,988,1036
3437,991,1037
3438,994,1037
3439,990,1035
3440,988,1030
3441,982,1033
3442,982,1037
3443,986,1038
3444,990,1041
3445,989,1034
3446,985,1034
3447,983,1034
3448,981,1037
3449,985,1040
3450,985,1038
3451,981,1033
3452,980,1032
3453,981,1035
3454,984,1035
3455,984,1039
3456,985,1038
3457,982,1033
3458,978,1030
3459,976,1031
3460,980,1031
3461,984,1035
3462,985,1036
3463,984,1030
3464,982,1030
3465,978,1032
3466,979,1030
3467,978,1037
3468,980,1035
3469,980,1034
3470,979,1032
3471,975,1030
3472,973,1035
3473,978,1034
3474,978,1039
3475,976,1032
3476,973,1030
3477,974,1028
3478,974,1029
3479,979,1033
3480,978,1037
3481,979,1033
3482,976,1031
3483,972,1034
3484,973,1034
3485,974,1037
3486,978,1036
3487,976,1033
3488,973,1030
3489,971,1032
3490,971,1034
3491,972,1035
3492,975,1036
3493,974,1035
3494,972,1031
3495,969,1033
3496,972,1032
3497,974,1035
3498,975,1034
3499,973,1035
3500,972,1030
3501,968,1031
3502,970,1032
3503,978,1039
3504,977,1040
3505,976,1035
3506,972,1030
3507,971,1033
3508,972,1032
3509,970,1037
3510,974,1036
3511,974,1037
3512,972,1031
3513,970,1031
3514,970,1035
3515,973,1038
3516,975,1037
3517,977,1034
3518,974,1032
3519,971,1032
3520,972,1036
3521,973,1039
3522,974,1038
3523,970,1035
3524,967,1033
3525,969,1030
3526,972,1033
3527,975,1035
3528,978,1035
3529,976,1035
3530,974,1031
3531,970,1032
3532,972,1036
3533,975,1038
3534,975,1036
3535,977,1032
3536,976,1028
3537,973,1032
3538,973,1036
3539,975,1036
3540,979,1036
3541,977,1035
3542,973,1029
3543,972,1031
3544,973,1032
3545,976,1037
3546,977,1036
3547,975,1034
3548,973,1031
3549,974,1032
3550,975,1035
3551,978,1035
3552,980,1036
3553,978,1036
3554,973,1031
3555,973,1031
3556,975,1033
3557,978,1038
3558,979,1038
3559,979,1037
3560,973,1035
3561,974,1031
3562,974,1035
3563,978,1041
3564,978,1040
3565,979,1034
3566,979,1032
3567,976,1031
3568,974,1036
3569,976,1037
3570,981,1039
3571,981,1037
3572,977,1033
3573,977,1034
3574,977,1036
3575,978,1041
3576,982,1037
3577,981,1035
3578,978,1031
3579,978,1033
3580,977,1035
3581,981,1037
3582,982,1037
3583,979,1035
3584,978,1034
3585,977,1034
3586,979,1034
3587,983,1035
3588,987,1038
3589,984,1036
3590,981,1034
3591,978,1034
3592,982,1039
3593,984,1039
3594,984,1037
3595,982,1038
3596,979,1034
3597,975,1035
3598,976,1037
3599,982,1041
3600,985,1038
3601,985,1037
3602,982,1031
3603,981,1031
3604,980,1034
3605,986,1036
3606,986,1038
3607,984,1035
3608,984,1033
3609,982,1034
3610,983,1037
3611,982,1037
3612,986,1035
3613,988,1033
3614,988,1034
3615,984,1033
3616,986,1034
3617,994,1038
3618,999,1036
3619,996,1034
3620,994,1028
3621,993,1032
3622,997,1034
3623,1000,1039
3624,1004,1039
3625,1002,1037
3626,998,1034
3627,999,1032
3628,1001,1033
3629,1005,1033
3630,1008,1037
3631,1006,1031
3632,1001,1029
3633,995,1028
3634,997,1034
3635,999,1038
3636,1003,1035
3637,1004,1030
3638,1001,1029
3639,1001,1029
3640,1000,1034
3641,997,1038
3642,1000,1036
3643,998,1032
3644,996,1029
3645,993,1029
3646,991,1031
3647,991,1032
3648,988,1033
3649,988,1032
3650,983,1029
3651,982,1029
3652,986,1034
3653,990,1034
3654,994,1031
3655,991,1033
3656,988,1029
3657,982,1030
3658,985,1035
3659,987,1041
3660,990,1036
3661,991,1037
3662,988,1032
3663,984,1032
3664,986,1034
3665,987,1036
3666,992,1036
3667,987,1033
3668,988,1031
3669,990,1033
3670,988,1039
3671,988,1043
3672,992,1041
3673,989,1044
3674,990,1044
3675,989,1042
3676,992,1041
3677,1000,1028
3678,1020,1011
3679,1036,983
3680,1057,953
3681,1075,921
3682,1092,893
3683,1118,873
3684,1141,851
3685,1166,831
3686,1195,811
3687,1232,801
3688,1271,794
3689,1307,793
3690,1342,790
3691,1370,783
3692,1393,783
3693,1409,790
3694,1424,796
3695,1430,805
3696,1427,809
3697,1408,809
3698,1365,811
3699,1300,819
3700,1235,831
3701,1185,845
3702,1157,854
3703,1137,866
3704,1125,882
3705,1114,896
3706,1112,914
3707,1108,928
3708,1102,937
3709,1092,943
3710,1079,949
3711,1068,958
3712,1062,966
3713,1060,979
3714,1057,990
3715,1052,1002
3716,1041,1010
3717,1030,1018
3718,1024,1027
3719,1018,1036
3720,1013,1045
3721,1004,1052
3722,996,1058
3723,991,1068
3724,981,1075
3725,980,1083
3726,974,1087
3727,969,1086
3728,962,1085
3729,957,1090
3730,952,1091
3731,955,1097
3732,958,1100
3733,955,1100
3734,951,1100
3735,947,1100
3736,943,1108
3737,948,1107
3738,950,1111
3739,949,1106
3740,942,1109
3741,940,1110
3742,938,1114
3743,941,1120
3744,943,1122
3745,942,1121
3746,941,1118
3747,939,1119
3748,939,1124
3749,939,1131
3750,939,1133
3751,935,1131
3752,934,1129
3753,929,1133
3754,934,1138
3755,936,1142
3756,935,1144
3757,931,1145
3758,931,1146
3759,928,1148
3760,928,1160
3761,929,1163
3762,931,1165
3763,925,1165
3764,923,1166
3765,919,1167
3766,920,1174
3767,920,1181
3768,924,1182
3769,919,1182
3770,913,1181
3771,911,1185
3772,911,1191
3773,910,1194
3774,912,1193
3775,910,1191
3776,907,1195
3777,904,1194
3778,902,1199
3779,900,1202
3780,902,1202
3781,897,1197
3782,895,1195
3783,895,1196
3784,894,1199
3785,892,1200
3786,894,1202
3787,891,1197
3788,883,1190
3789,889,1187
3790,890,1187
3791,894,1186
3792,899,1179
3793,900,1172
3794,897,1165
3795,898,1161
3796,904,1158
3797,910,1154
3798,915,1146
3799,919,1141
3800,921,1131
3801,924,1125
3802,930,1119
3803,940,1118
3804,947,1111
3805,953,1101
3806,952,1097
3807,957,1092
3808,961,1094
3809,969,1089
3810,974,1088
3811,978,1083
3812,979,1072
3813,981,1068
3814,983,1066
3815,990,1070
3816,994,1064
3817,996,1063
3818,996,1059
3819,994,1055
3820,995,1056
3821,997,1059
3822,996,1058
3823,999,1054
3824,998,1052
3825,1002,1049
3826,997,1054
3827,1001,1059
3828,1000,1056
3829,997,1054
3830,995,1046
3831,992,1053
3832,993,1054
3833,997,1059
3834,997,1058
3835,998,1058
3836,993,1055
3837,991,1055
3838,990,1057
3839,994,1057
3840,995,1060
3841,992,1059
3842,988,1056
3843,987,1057
3844,988,1059
3845,991,1061
3846,995,1060
3847,990,1058
3848,991,1054
3849,985,1055
3850,986,1058
3851,989,1063
3852,993,1062
3853,992,1059
3854,992,1055
3855,990,1056
3856,987,1058
3857,988,1061
3858,992,1065
3859,992,1060
3860,992,1056
3861,993,1057
3862,995,1057
3863,992,1061
3864,991,1061
3865,990,1059
3866,990,1056
3867,988,1055
3868,991,1055
3869,990,1061
3870,993,1057
3871,992,1053
3872,990,1050
3873,986,1051
3874,992,1054
3875,994,1055
3876,994,1055
3877,990,1052
3878,991,1049
3879,988,1050
3880,988,1048
3881,989,1055
3882,995,1055
3883,992,1051
3884,988,1046
3885,986,1045
3886,985,1050
3887,989,1049
3888,993,1046
3889,995,1045
3890,992,1042
3891,990,1043
3892,993,1048
3893,994,1050
3894,996,1048
3895,996,1047
3896,997,1042
3897,998,1040
3898,998,1041
3899,1000,1045
3900,1001,1047
3901,1002,1042
3902,1000,1039
3903,1000,1043
3904,1001,1045
3905,1003,1048
3906,1005,1046
3907,1005,1043
3908,1005,1043
3909,1008,1043
3910,1008,1044
3911,1010,1048
3912,1009,1045
3913,1006,1041
3914,1003,1032
3915,998,1033
3916,1001,1038
3917,1005,1042
3918,1010,1042
3919,1007,1036
3920,998,1034
3921,993,1030
3922,995,1033
3923,998,1036
3924,1001,1036
3925,1000,1032
3926,995,1028
3927,986,1029
3928,982,1030
3929,983,1031
3930,988,1032
3931,991,1028
3932,986,1025
3933,984,1029
3934,986,1031
3935,988,1036
3936,988,1034
3937,987,1031
3938,979,1029
3939,980,1030
3940,980,1032
3941,982,1034
3942,984,1033
3943,984,1031
3944,986,1025
3945,984,1028
3946,985,1030
3947,983,1033
3948,986,1031
3949,988,1030
3950,984,1031
3951,985,1034
3952,985,1043
3953,987,1051
3954,991,1051
3955,988,1049
3956,987,1037
3957,991,1026
3958,1014,1013
3959,1041,997
3960,1066,977
3961,1084,952
3962,1099,927
3963,1115,903
3964,1137,883
3965,1160,863
3966,1193,837
3967,1228,821
3968,1266,808
3969,1308,804
3970,1347,799
3971,1380,798
3972,1400,794
3973,1398,790
3974,1376,787
3975,1337,786
3976,1280,789
3977,1218,796
3978,1163,804
3979,1123,812
3980,1101,823
3981,1085,838
3982,1079,856
3983,1079,881
3984,1087,904
3985,1083,920
3986,1074,929
3987,1065,941
3988,1058,955
3989,1050,970
3990,1048,979
3991,1039,986
3992,1028,993
3993,1022,1002
3994,1016,1012
3995,1014,1021
3996,1010,1028
3997,1002,1033
3998,993,1036
3999,984,1042
4000,982,1054
4001,977,1062
4002,973,1068
4003,967,1072
4004,958,1071
4005,951,1078
4006,951,1079
4007,949,1084
4008,952,1084
4009,950,1083
4010,946,1087
4011,943,1090
4012,941,1093
4013,942,1100
4014,949,1099
4015,945,1097
4016,938,1098
4017,936,1097
4018,937,1100
4019,939,1104
4020,942,1109
4021,940,1107
4022,938,1107
4023,934,1106
4024,934,1111
4025,938,1119
4026,940,1119
4027,940,1118
4028,936,1121
4029,933,1127
4030,929,1131
4031,933,1134
4032,933,1132
4033,932,1133
4034,929,1133
4035,925,1134
4036,927,1143
4037,927,1147
4038,927,1152
4039,925,1154
4040,920,1153
4041,921,1158
4042,919,1168
4043,918,1171
4044,917,1175
4045,915,1175
4046,911,1178
4047,909,1182
4048,908,1186
4049,908,1188
4050,909,1187
4051,906,1185
4052,902,1186
4053,896,1189
4054,898,1192
4055,902,1200
4056,901,1195
4057,900,1194
4058,896,1188
4059,890,1188
4060,892,1187
4061,896,1191
4062,901,1189
4063,898,1183
4064,898,1177
4065,894,1173
4066,897,1170
4067,899,1165
4068,904,1159
4069,907,1152
4070,908,1148
4071,911,1142
4072,915,1138
4073,917,1133
4074,922,1124
4075,924,1111
4076,926,1103
4077,929,1096
4078,939,1087
4079,944,1088
4080,955,1084
4081,960,1077
4082,962,1066
4083,961,1062
4084,964,1059
4085,968,1058
4086,970,1055
4087,973,1051
4088,973,1045
4089,974,1041
4090,978,1042
4091,979,1043
4092,982,1043
4093,981,1041
4094,977,1037
4095,972,1036
4096,976,1036
4097,982,1040
4098,983,1037
4099,984,1032
4100,979,1026
4101,976,1030
4102,980,1033
4103,982,1037
4104,985,1038
4105,982,1035
4106,980,1030
4107,976,1031
4108,974,1035
4109,979,1037
4110,979,1037
4111,979,1034
4112,975,1031
4113,973,1031
4114,974,1033
4115,979,1039
4116,982,1039
4117,982,1037
4118,976,1034
4119,972,1038
4120,973,1037
4121,978,1038
4122,986,1036
4123,984,1034
4124,979,1032
4125,977,1032
4126,975,1036
4127,981,1039
4128,982,1038
4129,984,1033
4130,982,1029
4131,979,1032
4132,978,1033
4133,981,1035
4134,983,1034
4135,982,1031
4136,980,1030
4137,975,1028
4138,976,1032
4139,977,1035
4140,982,1035
4141,983,1031
4142,982,1029
4143,981,1027
4144,978,1030
4145,979,1030
4146,981,1028
4147,984,1026
4148,983,1024
4149,979,1023
4150,979,1028
4151,981,1031
4152,981,1029
4153,983,1026
4154,982,1024
4155,982,1027
4156,984,1029
4157,982,1029
4158,984,1027
4159,985,1026
4160,986,1020
4161,990,1022
4162,992,1026
4163,995,1031
4164,995,1029
4165,998,1026
4166,993,1021
4167,993,1024
4168,996,1028
4169,998,1031
4170,1000,1030
4171,998,1027
4172,995,1022
4173,997,1025
4174,997,1023
4175,1004,1022
4176,1005,1020
4177,1001,1018
4178,1000,1019
4179,997,1020
4180,999,1023
4181,1001,1024
4182,1003,1022
4183,998,1018
4184,994,1015
4185,989,1014
4186,987,1018
4187,989,1020
4188,992,1021
4189,988,1019
4190,983,1013
4191,980,1014
4192,980,1010
4193,981,1013
4194,984,1014
4195,985,1014
4196,983,1013
4197,981,1012
4198,980,1012
4199,980,1019
4200,983,1017
4201,982,1016
4202,983,1013
4203,980,1017
4204,979,1016
4205,979,1017
4206,982,1016
4207,982,1016
4208,979,1011
4209,977,1010
4210,981,1019
4211,983,1024
4212,986,1028
4213,986,1031
4214,983,1030
4215,986,1031
4216,989,1022
4217,1007,1011
4218,1032,994
4219,1054,968
4220,1075,946
4221,1093,927
4222,1110,908
4223,1130,881
4224,1153,856
4225,1176,832
4226,1212,811
4227,1253,803
4228,1299,797
4229,1348,796
4230,1392,788
4231,1414,785
4232,1418,781
4233,1409,781
4234,1380,781
4235,1330,785
4236,1259,789
4237,1186,797
4238,1127,801
4239,1093,809
4240,1076,822
4241,1072,835
4242,1073,852
4243,1074,871
4244,1073,890
4245,1065,905
4246,1063,920
4247,1058,936
4248,1051,944
4249,1041,954
4250,1033,961
4251,1027,974
4252,1021,987
4253,1020,998
4254,1013,1005
4255,1003,1011
4256,993,1016
4257,984,1025
4258,978,1036
4259,978,1046
4260,975,1053
4261,969,1057
4262,959,1059
4263,952,1060
4264,949,1068
4265,948,1071
4266,948,1073
4267,947,1073
4268,944,1072
4269,939,1078
4270,938,1080
4271,939,1085
4272,943,1085
4273,942,1085
4274,937,1083
4275,933,1085
4276,931,1089
4277,934,1093
4278,935,1097
4279,933,1096
4280,932,1095
4281,933,1100
4282,933,1102
4283,932,1105
4284,934,1111
4285,930,1112
4286,928,1113
4287,928,1116
4288,928,1118
4289,928,1125
4290,932,1127
4291,926,1126
4292,922,1127
4293,919,1130
4294,920,1135
4295,922,1145
4296,925,1146
4297,921,1151
4298,918,1148
4299,912,1151
4300,915,1160
4301,915,1164
4302,916,1170
4303,912,1170
4304,904,1172
4305,899,1172
4306,902,1175
4307,903,1179
4308,902,1181
4309,900,1182
4310,899,1179
4311,894,1180
4312,893,1184
4313,892,1189
4314,894,1186
4315,893,1182
4316,889,1177
4317,885,1175
4318,886,1175
4319,887,1176
4320,892,1171
4321,892,1166
4322,895,1157
4323,893,1155
4324,896,1150
4325,897,1150
4326,904,1143
4327,905,1135
4328,905,1126
4329,908,1120
4330,913,1116
4331,919,1114
4332,925,1102
4333,931,1095
4334,930,1085
4335,936,1080
4336,944,1076
4337,952,1074
4338,958,1064
4339,957,1060
4340,963,1048
4341,963,1044
4342,968,1047
4343,975,1048
4344,981,1046
4345,978,1043
4346,977,1038
4347,974,1033
4348,974,1033
4349,979,1035
4350,985,1032
4351,986,1033
4352,981,1026
4353,977,1026
4354,978,1028
4355,982,1028
4356,984,1028
4357,985,1025
4358,982,1023
4359,977,1021
4360,978,1025
4361,981,1027
4362,985,1027
4363,984,1026
4364,983,1025
4365,980,1024
4366,980,1026
4367,980,1029
4368,978,1029
4369,979,1029
4370,979,1022
4371,977,1025
4372,976,1027
4373,976,1030
4374,977,1031
4375,977,1028
4376,978,1026
4377,977,1028
4378,973,1037
4379,978,1035
4380,978,1037
4381,981,1031
4382,977,1029
4383,977,1026
4384,978,1028
4385,980,1032
4386,982,1033
4387,976,1031
4388,974,1025
4389,972,1025
4390,974,1027
4391,980,1034
4392,983,1033
4393,981,1034
4394,976,1031
4395,974,1025
4396,977,1029
4397,982,1032
4398,984,1031
4399,981,1028
4400,980,1025
4401,973,1027
4402,974,1030
4403,977,1032
4404,979,1031
4405,981,1030
4406,977,1024
4407,974,1025
4408,976,1030
4409,975,1030
4410,982,1032
4411,980,1029
4412,978,1024
4413,977,1023
4414,974,1025
4415,976,1029
4416,979,1026
4417,981,1023
4418,979,1022
4419,976,1021
4420,978,1021
4421,983,1025
4422,986,1024
4423,989,1023
4424,988,1019
4425,990,1022
4426,993,1025
4427,996,1027
4428,997,1027
4429,998,1022
4430,994,1019
4431,993,1020
4432,995,1023
4433,997,1025
4434,1002,1026
4435,999,1024
4436,997,1020
4437,991,1020
4438,995,1017
4439,998,1021
4440,999,1021
4441,996,1019
4442,994,1015
4443,989,1018
4444,988,1024
4445,989,1023
4446,992,1023
4447,989,1019
4448,986,1016
4449,980,1016
4450,975,1018
4451,979,1022
4452,982,1022
4453,982,1020
4454,978,1012
4455,972,1013
4456,972,1016
4457,977,1020
4458,981,1019
4459,982,1021
4460,976,1014
4461,970,1015
4462,969,1018
4463,975,1021
4464,978,1021
4465,978,1017
4466,977,1017
4467,973,1016
4468,974,1019
4469,977,1019
4470,981,1017
4471,975,1017
4472,976,1015
4473,979,1018
4474,980,1024
4475,982,1031
4476,981,1034
4477,979,1033
4478,977,1023
4479,986,1007
4480,1008,988
4481,1032,964
4482,1058,934
4483,1078,898
4484,1094,870
4485,1112,849
4486,1133,833
4487,1155,816
4488,1182,799
4489,1211,780
4490,1253,766
4491,1294,765
4492,1341,770
4493,1382,778
4494,1410,787
4495,1416,793
4496,1404,791
4497,1370,793
4498,1317,803
4499,1249,818
4500,1192,830
4501,1150,836
4502,1121,842
4503,1105,851
4504,1099,869
4505,1098,890
4506,1096,912
4507,1087,924
4508,1079,933
4509,1069,943
4510,1060,955
4511,1053,967
4512,1043,979
4513,1036,989
4514,1027,996
4515,1018,1005
4516,1005,1019
4517,1000,1027
4518,994,1035
4519,984,1041
4520,974,1045
4521,963,1053
4522,962,1062
4523,961,1070
4524,959,1075
4525,953,1073
4526,946,1073
4527,933,1079
4528,937,1081
4529,940,1087
4530,939,1088
4531,936,1089
4532,932,1088
4533,930,1088
4534,927,1092
4535,931,1096
4536,934,1097
4537,931,1100
4538,926,1100
4539,923,1103
4540,923,1104
4541,925,1109
4542,927,1110
4543,928,1110
4544,924,1112
4545,921,1114
4546,923,1120
4547,921,1122
4548,922,1128
4549,922,1127
4550,919,1126
4551,915,1127
4552,915,1133
4553,915,1138
4554,917,1141
4555,914,1148
4556,911,1147
4557,907,1153
4558,902,1157
4559,906,1165
4560,908,1168
4561,909,1167
4562,903,1167
4563,897,1170
4564,897,1177
4565,900,1184
4566,900,1186
4567,898,1189
4568,892,1186
4569,888,1186
4570,883,1191
4571,883,1196
4572,886,1199
4573,884,1198
4574,879,1196
4575,874,1196
4576,873,1196
4577,872,1199
4578,876,1197
4579,876,1195
4580,876,1190
4581,872,1186
4582,871,1184
4583,875,1186
4584,875,1179
4585,875,1174
4586,873,1169
4587,875,1161
4588,880,1163
4589,883,1157
4590,886,1152
4591,890,1146
4592,891,1138
4593,896,1133
4594,901,1129
4595,907,1125
4596,910,1121
4597,913,1111
4598,913,1103
4599,915,1097
4600,921,1094
4601,927,1090
4602,935,1085
4603,941,1078
4604,940,1070
4605,944,1065
4606,949,1064
4607,955,1063
4608,960,1057
4609,961,1054
4610,962,1045
4611,962,1046
4612,966,1045
4613,968,1046
4614,970,1045
4615,970,1044
4616,967,1039
4617,962,1038
4618,964,1037
4619,969,1037
4620,976,1038
4621,975,1036
4622,972,1034
4623,969,1030
4624,970,1034
4625,972,1034
4626,975,1037
4627,975,1032
4628,974,1031
4629,972,1030
4630,967,1032
4631,972,1035
4632,972,1035
4633,972,1032
4634,971,1030
4635,968,1031
4636,968,1036
4637,968,1038
4638,974,1038
4639,973,1033
4640,968,1031
4641,968,1032
4642,970,1035
4643,970,1038
4644,971,1038
4645,970,1037
4646,965,1035
4647,964,1033
4648,966,1034
4649,972,1037
4650,973,1037
4651,970,1034
4652,968,1031
4653,961,1034
4654,962,1039
4655,967,1041
4656,972,1043
4657,969,1039
4658,965,1035
4659,963,1034
4660,960,1035
4661,964,1042
4662,968,1043
4663,969,1039
4664,967,1039
4665,967,1035
4666,966,1035
4667,965,1039
4668,966,1041
4669,967,1037
4670,966,1037
4671,967,1038
4672,967,1039
4673,965,1040
4674,969,1039
4675,966,1032
4676,966,1031
4677,965,1034
4678,966,1036
4679,970,1037
4680,969,1037
4681,969,1033
4682,969,1034
4683,964,1032
4684,967,1031
4685,970,1036
4686,971,1037
4687,971,1036
4688,970,1032
4689,966,1031
4690,968,1034
4691,968,1035
4692,975,1033
4693,976,1031
4694,979,1029
4695,976,1029
4696,976,1030
4697,979,1034
4698,980,1035
4699,980,1029
4700,977,1027
4701,981,1026
4702,981,1030
4703,984,1033
4704,985,1036
4705,987,1033
4706,987,1031
4707,987,1028
4708,989,1027
4709,991,1030
4710,991,1029
4711,990,1024
4712,987,1024
4713,987,1020
4714,988,1027
4715,991,1030
4716,992,1028
4717,989,1028
4718,984,1021
4719,980,1023
4720,981,1024
4721,986,1027
4722,986,1027
4723,981,1026
4724,974,1022
4725,971,1019
4726,967,1020
4727,970,1024
4728,973,1021
4729,974,1022
4730,975,1019
4731,974,1018
4732,977,1024
4733,976,1025
4734,976,1027
4735,973,1024
4736,970,1021
4737,968,1022
4738,970,1024
4739,974,1025
4740,976,1025
4741,974,1023
4742,974,1023
4743,971,1022
4744,971,1024
4745,971,1028
4746,975,1027
4747,977,1025
4748,974,1027
4749,975,1036
4750,977,1042
4751,977,1042
4752,981,1035
4753,992,1019
4754,1011,995
4755,1036,968
4756,1066,939
4757,1087,911
4758,1113,881
4759,1136,856
4760,1163,831
4761,1202,817
4762,1244,805
4763,1280,799
4764,1312,789
4765,1336,780
4766,1362,773
4767,1389,770
4768,1409,777
4769,1414,787
4770,1399,789
4771,1357,787
4772,1291,791
4773,1212,801
4774,1142,818
4775,1099,834
4776,1087,852
4777,1082,874
4778,1078,891
4779,1070,909
4780,1061,924
4781,1054,941
4782,1049,949
4783,1043,958
4784,1036,964
4785,1027,975
4786,1020,988
4787,1016,1000
4788,1015,1012
4789,1006,1016
4790,995,1024
4791,987,1029
4792,973,1042
4793,970,1055
4794,966,1062
4795,957,1067
4796,952,1069
4797,944,1068
4798,939,1075
4799,938,1078
4800,938,1080
4801,935,1083
4802,931,1081
4803,933,1082
4804,930,1088
4805,936,1094
4806,939,1092
4807,935,1091
4808,932,1091
4809,927,1093
4810,927,1098
4811,929,1101
4812,933,1103
4813,933,1103
4814,928,1101
4815,923,1103
4816,922,1107
4817,922,1111
4818,928,1114
4819,927,1112
4820,924,1113
4821,922,1116
4822,922,1124
4823,924,1128
4824,923,1131
4825,920,1131
4826,917,1134
4827,914,1140
4828,917,1147
4829,914,1152
4830,915,1155
4831,913,1155
4832,907,1158
4833,902,1161
4834,906,1167
4835,907,1174
4836,905,1178
4837,904,1176
4838,898,1173
4839,892,1177
4840,893,1181
4841,897,1188
4842,899,1190
4843,898,1189
4844,891,1188
4845,886,1191
4846,887,1196
4847,886,1200
4848,887,1195
4849,889,1195
4850,885,1190
4851,880,1189
4852,878,1191
4853,881,1188
4854,885,1188
4855,883,1186
4856,882,1181
4857,880,1177
4858,881,1177
4859,883,1173
4860,890,1166
4861,892,1158
4862,892,1150
4863,893,1144
4864,899,1139
4865,903,1134
4866,909,1127
4867,913,1115
4868,914,1106
4869,920,1099
4870,928,1096
4871,936,1091
4872,942,1083
4873,944,1076
4874,943,1066
4875,948,1063
4876,951,1063
4877,961,1061
4878,965,1059
4879,966,1052
4880,965,1047
4881,964,1042
4882,965,1042
4883,969,1042
4884,975,1037
4885,975,1036
4886,973,1031
4887,970,1031
4888,970,1033
4889,974,1036
4890,977,1035
4891,977,1031
4892,974,1026
4893,973,1026
4894,973,1028
4895,970,1030
4896,975,1029
4897,976,1030
4898,974,1026
4899,972,1026
4900,975,1027
4901,975,1032
4902,979,1028
4903,976,1026
4904,972,1025
4905,970,1025
4906,968,1029
4907,976,1030
4908,977,1029
4909,975,1030
4910,970,1026
4911,968,1026
4912,971,1027
4913,971,1030
4914,975,1032
4915,975,1028
4916,972,1032
4917,970,1030
4918,969,1032
4919,970,1035
4920,973,1034
4921,972,1030
4922,970,1029
4923,968,1030
4924,967,1031
4925,970,1037
4926,971,1038
4927,968,1033
4928,966,1029
4929,968,1030
4930,971,1033
4931,969,1034
4932,970,1033
4933,969,1037
4934,968,1031
4935,969,1031
4936,971,1033
4937,973,1035
4938,975,1038
4939,975,1031
4940,970,1030
4941,969,1030
4942,969,1033
4943,971,1039
4944,975,1034
4945,977,1031
4946,976,1027
4947,971,1027
4948,972,1030
4949,974,1033
4950,978,1032
4951,978,1030
4952,978,1030
4953,974,1029
4954,976,1034
4955,978,1034
4956,978,1034
4957,977,1032
4958,973,1027
4959,973,1028
4960,975,1034
4961,978,1037
4962,979,1035
4963,979,1030
4964,975,1028
4965,976,1025
4966,979,1029
4967,986,1032
4968,989,1032
4969,987,1033
4970,986,1028
4971,983,1027
4972,984,1030
4973,986,1030
4974,989,1032
4975,991,1032
4976,986,1028
4977,985,1031
4978,984,1031
4979,988,1034
4980,990,1031
4981,990,1028
4982,990,1024
4983,987,1022
4984,987,1022
4985,989,1028
4986,989,1026
4987,986,1025
4988,987,1025
4989,984,1027
4990,984,1027
4991,985,1029
4992,986,1027
4993,986,1027
4994,982,1023
4995,975,1024
4996,974,1029
4997,976,1028
4998,976,1027
4999,975,1025
5000,971,1019
5001,965,1018
5002,966,1021
5003,970,1024
5004,974,1025
5005,976,1022
5006,971,1021
5007,966,1021
5008,965,1023
5009,967,1026
5010,969,1025
5011,969,1024
5012,970,1022
5013,970,1022
5014,967,1027
5015,970,1027
5016,973,1027
5017,971,1024
5018,969,1023
5019,969,1026
5020,969,1029
5021,974,1038
5022,975,1043
5023,976,1043
5024,971,1039
5025,971,1039
5026,978,1034
5027,995,1032
5028,1017,1019
5029,1033,999
5030,1048,973
5031,1058,945
5032,1071,915
5033,1091,886
5034,1119,866
5035,1148,843
5036,1179,824
5037,1212,812
5038,1258,804
5039,1306,801
5040,1353,799
5041,1391,799
5042,1410,801
5043,1413,803
5044,1400,804
5045,1365,804
5046,1303,804
5047,1233,807
5048,1169,812
5049,1129,824
5050,1107,837
5051,1091,854
5052,1083,868
5053,1072,886
5054,1065,902
5055,1063,921
5056,1057,937
5057,1054,949
5058,1045,960
5059,1036,969
5060,1025,978
5061,1016,989
5062,1009,1006
5063,1006,1018
5064,1000,1025
5065,992,1030
5066,981,1029
5067,971,1036
5068,966,1051
5069,963,1060
5070,964,1069
5071,957,1072
5072,949,1073
5073,943,1074
5074,936,1080
5075,938,1086
5076,938,1090
5077,934,1085
5078,931,1088
5079,927,1088
5080,927,1090
5081,928,1097
5082,933,1098
5083,932,1099
5084,926,1095
5085,922,1096
5086,924,1100
5087,926,1105
5088,926,1104
5089,927,1107
5090,924,1105
5091,921,1109
5092,921,1112
5093,921,1117
5094,922,1122
5095,917,1122
5096,916,1121
5097,911,1123
5098,915,1130
5099,915,1133
5100,917,1140
5101,914,1137
5102,912,1133
5103,906,1136
5104,908,1145
5105,912,1151
5106,913,1158
5107,911,1157
5108,906,1160
5109,901,1160
5110,900,1170
5111,899,1177
5112,901,1179
5113,899,1181
5114,897,1182
5115,893,1183
5116,890,1186
5117,892,1192
5118,896,1195
5119,891,1196
5120,888,1193
5121,884,1196
5122,882,1198
5123,884,1201
5124,887,1199
5125,884,1194
5126,883,1192
5127,882,1189
5128,883,1192
5129,882,1191
5130,888,1187
5131,883,1181
5132,882,1174
5133,881,1167
5134,886,1166
5135,892,1162
5136,897,1154
5137,899,1149
5138,898,1142
5139,899,1137
5140,903,1132
5141,911,1132
5142,917,1125
5143,920,1113
5144,921,1103
5145,924,1096
5146,932,1092
5147,939,1088
5148,947,1082
5149,949,1072
5150,952,1065
5151,951,1059
5152,953,1060
5153,960,1059
5154,967,1055
5155,967,1052
5156,966,1051
5157,964,1050
5158,966,1047
5159,967,1048
5160,970,1043
5161,968,1037
5162,968,1033
5163,968,1035
5164,967,1038
5165,970,1040
5166,972,1037
5167,971,1038
5168,971,1031
5169,968,1031
5170,969,1033
5171,970,1038
5172,971,1039
5173,969,1033
5174,968,1031
5175,967,1030
5176,969,1032
5177,971,1034
5178,973,1035
5179,968,1035
5180,964,1033
5181,963,1031
5182,962,1032
5183,965,1039
5184,969,1040
5185,970,1035
5186,965,1033
5187,962,1035
5188,959,1038
5189,963,1042
5190,966,1043
5191,965,1041
5192,961,1035
5193,959,1036
5194,959,1039
5195,962,1041
5196,963,1045
5197,964,1041
5198,963,1039
5199,961,1042
5200,964,1042
5201,965,1043
5202,966,1042
5203,963,1043
5204,957,1039
5205,959,1038
5206,961,1042
5207,963,1047
5208,966,1046
5209,965,1041
5210,962,1039
5211,961,1036
5212,962,1036
5213,965,1041
5214,971,1047
5215,971,1043
5216,969,1039
5217,963,1037
5218,961,1039
5219,962,1041
5220,967,1040
5221,968,1039
5222,968,1037
5223,964,1036
5224,964,1037
5225,967,1038
5226,969,1041
5227,969,1038
5228,967,1038
5229,962,1036
5230,964,1036
5231,965,1041
5232,968,1039
5233,969,1039
5234,968,1036
5235,966,1035
5236,968,1036
5237,971,1036
5238,974,1036
5239,972,1033
5240,968,1031
5241,971,1032
5242,973,1034
5243,977,1032
5244,980,1033
5245,984,1033
5246,982,1030
5247,980,1032
5248,981,1033
5249,982,1038
5250,983,1040
5251,981,1038
5252,981,1035
5253,980,1032
5254,981,1033
5255,984,1035
5256,985,1034
5257,985,1033
5258,983,1031
5259,979,1029
5260,978,1034
5261,981,1033
5262,982,1034
5263,982,1034
5264,980,1031
5265,977,1032
5266,976,1035
5267,977,1037
5268,976,1035
5269,973,1033
5270,970,1030
5271,963,1026
5272,965,1032
5273,968,1030
5274,971,1033
5275,971,1029
5276,965,1026
5277,959,1027
5278,959,1032
5279,960,1034
5280,965,1034
5281,966,1031
5282,967,1028
5283,964,1030
5284,962,1033
5285,960,1037
5286,962,1038
5287,963,1035
5288,960,1031
5289,958,1030
5290,960,1036
5291,962,1034
5292,964,1033
5293,962,1028
5294,961,1028
5295,959,1027
5296,964,1033
5297,965,1037
5298,969,1039
5299,970,1038
5300,968,1040
5301,964,1041
5302,965,1047
5303,970,1039
5304,979,1027
5305,994,1003
5306,1014,969
5307,1034,937
5308,1056,910
5309,1078,885
5310,1098,868
5311,1121,852
5312,1135,839
5313,1151,825
5314,1170,810
5315,1196,799
5316,1221,784
5317,1250,778
5318,1292,772
5319,1330,779
5320,1365,792
5321,1392,803
5322,1401,808
5323,1394,808
5324,1371,808
5325,1329,816
5326,1268,828
5327,1213,841
5328,1164,851
5329,1129,861
5330,1104,869
5331,1087,880
5332,1080,902
5333,1074,915
5334,1075,928
5335,1069,937
5336,1061,943
5337,1055,954
5338,1049,965
5339,1041,981
5340,1034,991
5341,1025,999
5342,1015,1005
5343,1007,1013
5344,1004,1026
5345,1000,1037
5346,997,1040
5347,985,1048
5348,973,1055
5349,962,1065
5350,957,1079
5351,954,1082
5352,952,1088
5353,947,1087
5354,940,1090
5355,931,1090
5356,931,1095
5357,931,1099
5358,932,1106
5359,930,1104
5360,923,1107
5361,919,1104
5362,919,1111
5363,922,1113
5364,925,1115
5365,923,1116
5366,920,1116
5367,920,1118
5368,916,1123
5369,920,1129
5370,921,1128
5371,919,1129
5372,912,1123
5373,914,1124
5374,914,1129
5375,914,1136
5376,918,1139
5377,916,1139
5378,911,1137
5379,910,1140
5380,905,1146
5381,909,1148
5382,913,1153
5383,913,1154
5384,910,1154
5385,902,1158
5386,901,1164
5387,901,1169
5388,901,1172
5389,903,1174
5390,901,1176
5391,900,1176
5392,898,1178
5393,895,1181
5394,894,1184
5395,891,1186
5396,887,1186
5397,882,1192
5398,886,1201
5399,887,1205
5400,888,1205
5401,885,1204
5402,881,1204
5403,878,1206
5404,874,1212
5405,876,1218
5406,880,1220
5407,878,1220
5408,872,1217
5409,870,1216
5410,867,1215
5411,864,1221
5412,865,1221
5413,866,1219
5414,868,1212
5415,867,1213
5416,868,1213
5417,866,1213
5418,866,1212
5419,866,1207
5420,865,1200
5421,868,1197
5422,867,1192
5423,872,1191
5424,877,1188
5425,880,1180
5426,882,1171
5427,881,1164
5428,885,1160
5429,889,1156
5430,897,1147
5431,901,1138
5432,907,1127
5433,911,1124
5434,915,1120
5435,915,1120
5436,926,1116
5437,930,1108
5438,929,1101
5439,931,1095
5440,937,1092
5441,942,1091
5442,948,1086
5443,946,1081
5444,946,1074
5445,945,1073
5446,950,1072
5447,955,1074
5448,960,1073
5449,962,1067
5450,963,1063
5451,957,1062
5452,956,1062
5453,961,1059
5454,965,1060
5455,966,1057
5456,967,1053
5457,963,1054
5458,961,1057
5459,965,1060
5460,967,1056
5461,969,1055
5462,964,1052
5463,965,1052
5464,964,1056
5465,966,1059
5466,968,1058
5467,969,1056
5468,964,1050
5469,959,1050
5470,960,1052
5471,963,1056
5472,966,1058
5473,967,1054
5474,966,1052
5475,962,1052
5476,960,1056
5477,964,1058
5478,964,1057
5479,963,1059
5480,963,1054
5481,961,1053
5482,961,1058
5483,967,1063
5484,969,1062
5485,964,1059
5486,959,1055
5487,959,1057
5488,959,1058
5489,963,1061
5490,964,1062
5491,964,1060
5492,962,1058
5493,960,1059
5494,954,1059
5495,957,1060
5496,960,1059
5497,961,1058
5498,960,1055
5499,955,1053
5500,956,1058
5501,956,1058
5502,958,1062
5503,958,1061
5504,955,1056
5505,954,1058
5506,959,1059
5507,962,1062
5508,963,1062
5509,960,1060
5510,958,1058
5511,955,1055
5512,957,1059
5513,960,1064
5514,966,1062
5515,966,1062
5516,963,1055
5517,958,1055
5518,952,1055
5519,958,1060
5520,961,1065
5521,964,1061
5522,963,1062
5523,962,1060
5524,962,1061
5525,965,1061
5526,969,1061
5527,968,1057
5528,962,1053
5529,958,1053
5530,959,1055
5531,963,1061
5532,968,1059
5533,968,1060
5534,966,1055
5535,961,1051
5536,962,1053
5537,963,1057
5538,965,1059
5539,967,1055
5540,964,1053
5541,965,1050
5542,967,1054
5543,973,1058
5544,977,1053
5545,979,1051
5546,979,1047
5547,976,1046
5548,978,1050
5549,982,1054
5550,981,1057
5551,980,1055
5552,973,1051
5553,973,1052
5554,974,1056
5555,977,1054
5556,980,1056
5557,981,1052
5558,983,1050
5559,983,1049
5560,980,1052
5561,981,1055
5562,984,1051
5563,982,1048
5564,981,1043
5565,977,1044
5566,980,1047
5567,982,1052
5568,985,1050
5569,984,1047
5570,982,1043
5571,981,1047
5572,975,1049
5573,980,1049
5574,979,1053
5575,978,1050
5576,974,1045
5577,969,1046
5578,972,1046
5579,969,1051
5580,970,1049
5581,970,1048
5582,969,1045
5583,966,1042
5584,960,1043
5585,963,1044
5586,966,1044
5587,966,1042
5588,969,1040
5589,967,1040
5590,969,1044
5591,971,1048
5592,970,1051
5593,968,1049
5594,966,1047
5595,963,1047
5596,964,1049
5597,968,1050
5598,970,1051
5599,969,1051
5600,969,1048
5601,966,1046
5602,967,1050
5603,968,1053
5604,969,1051
5605,971,1048
5606,971,1049
5607,967,1047
5608,970,1051
5609,975,1056
5610,975,1055
5611,975,1061
5612,972,1063
5613,967,1063
5614,965,1067
5615,965,1065
5616,968,1061
5617,972,1053
5618,981,1037
5619,994,1021
5620,1017,1006
5621,1037,991
5622,1057,967
5623,1074,947
5624,1088,923
5625,1104,904
5626,1123,890
5627,1149,877
5628,1177,861
5629,1204,845
5630,1235,832
5631,1266,819
5632,1299,816
5633,1334,817
5634,1368,813
5635,1393,807
5636,1409,805
5637,1420,808
5638,1422,811
5639,1425,819
5640,1422,822
5641,1411,821
5642,1391,821
5643,1352,821
5644,1298,829
5645,1235,839
5646,1174,849
5647,1133,860
5648,1103,866
5649,1082,878
5650,1070,896
5651,1066,915
5652,1063,931
5653,1055,943
5654,1051,952
5655,1043,959
5656,1038,972
5657,1035,982
5658,1032,991
5659,1024,994
5660,1016,998
5661,1008,1006
5662,1002,1013
5663,1004,1022
5664,1004,1027
5665,1003,1034
5666,999,1035
5667,995,1043
5668,988,1051
5669,987,1063
5670,983,1069
5671,976,1073
5672,966,1078
5673,958,1085
5674,953,1090
5675,954,1096
5676,950,1100
5677,946,1102
5678,941,1100
5679,933,1104
5680,929,1108
5681,928,1113
5682,933,1113
5683,932,1118
5684,929,1116
5685,929,1117
5686,928,1120
5687,932,1123
5688,936,1125
5689,934,1122
5690,928,1119
5691,925,1120
5692,924,1127
5693,925,1130
5694,925,1133
5695,925,1131
5696,922,1129
5697,918,1132
5698,922,1136
5699,923,1137
5700,927,1140
5701,925,1141
5702,921,1139
5703,916,1140
5704,917,1143
5705,920,1150
5706,923,1155
5707,923,1151
5708,918,1147
5709,915,1150
5710,915,1154
5711,917,1157
5712,919,1159
5713,917,1158
5714,915,1158
5715,912,1160
5716,910,1165
5717,913,1169
5718,917,1175
5719,916,1174
5720,913,1173
5721,909,1174
5722,906,1179
5723,908,1183
5724,910,1187
5725,910,1187
5726,909,1186
5727,903,1192
5728,903,1198
5729,901,1204
5730,904,1206
5731,900,1207
5732,898,1205
5733,895,1207
5734,892,1212
5735,897,1216
5736,897,1215
5737,895,1214
5738,895,1215
5739,893,1217
5740,892,1219
5741,893,1226
5742,893,1226
5743,889,1228
5744,882,1223
5745,881,1225
5746,884,1229
5747,884,1234
5748,885,1231
5749,884,1231
5750,881,1230
5751,879,1225
5752,878,1228
5753,879,1230
5754,883,1228
5755,882,1223
5756,881,1219
5757,878,1217
5758,878,1217
5759,882,1216
5760,884,1214
5761,885,1207
5762,883,1201
5763,882,1195
5764,886,1193
5765,887,1193
5766,895,1186
5767,895,1181
5768,895,1170
5769,897,1161
5770,902,1161
5771,907,1161
5772,913,1155
5773,914,1146
5774,918,1138
5775,919,1131
5776,921,1127
5777,928,1126
5778,932,1121
5779,933,1112
5780,938,1106
5781,939,1103
5782,946,1100
5783,953,1100
5784,957,1097
5785,958,1093
5786,957,1090
5787,958,1085
5788,956,1084
5789,959,1085
5790,963,1084
5791,961,1077
5792,965,1073
5793,963,1072
5794,965,1072
5795,967,1074
5796,973,1075
5797,971,1068
5798,968,1066
5799,968,1066
5800,967,1066
5801,972,1066
5802,973,1066
5803,973,1066
5804,967,1062
5805,965,1060
5806,967,1063
5807,967,1064
5808,972,1063
5809,973,1063
5810,970,1058
5811,967,1060
5812,964,1062
5813,967,1063
5814,970,1065
5815,971,1062
5816,967,1063
5817,966,1058
5818,965,1064
5819,967,1064
5820,967,1067
5821,966,1065
5822,965,1063
5823,966,1062
5824,968,1065
5825,969,1071
5826,970,1073
5827,974,1067
5828,967,1066
5829,964,1064
5830,960,1065
5831,963,1071
5832,970,1074
5833,968,1070
5834,968,1067
5835,962,1067
5836,960,1071
5837,968,1075
5838,971,1071
5839,971,1072
5840,968,1067
5841,963,1068
5842,963,1071
5843,966,1075
5844,970,1072
5845,969,1068
5846,968,1068
5847,965,1066
5848,966,1071
5849,969,1072
5850,971,1074
5851,969,1073
5852,965,1067
5853,964,1067
5854,967,1068
5855,967,1071
5856,972,1074
5857,971,1071
5858,966,1068
5859,963,1069
5860,961,1070
5861,969,1073
5862,975,1073
5863,973,1068
5864,972,1066
5865,967,1068
5866,967,1068
5867,967,1071
5868,970,1071
5869,967,1069
5870,966,1065
5871,962,1065
5872,967,1065
5873,966,1070
5874,969,1069
5875,970,1067
5876,969,1064
5877,967,1065
5878,969,1063
5879,976,1065
5880,977,1065
5881,977,1064
5882,979,1061
5883,977,1065
5884,977,1066
5885,984,1070
5886,982,1068
5887,984,1066
5888,983,1065
5889,980,1059
5890,978,1065
5891,982,1065
5892,986,1067
5893,991,1062
5894,987,1058
5895,985,1058
5896,981,1059
5897,981,1063
5898,985,1062
5899,986,1059
5900,983,1062
5901,982,1062
5902,982,1063
5903,980,1070
5904,982,1070
5905,978,1065
5906,975,1061
5907,975,1057
5908,975,1063
5909,977,1065
5910,979,1066
5911,972,1064
5912,967,1055
5913,962,1057
5914,959,1059
5915,963,1061
5916,970,1059
5917,969,1059
5918,967,1053
5919,961,1055
5920,961,1058
5921,967,1062
5922,967,1064
5923,965,1062
5924,964,1062
5925,962,1057
5926,962,1059
5927,964,1061
5928,965,1065
5929,965,1061
5930,963,1057
5931,963,1059
5932,962,1061
5933,968,1062
5934,968,1065
5935,967,1062
5936,966,1061
5937,964,1067
5938,964,1071
5939,966,1082
5940,969,1086
5941,966,1084
5942,963,1079
5943,961,1074
5944,970,1066
5945,985,1052
5946,1010,1029
5947,1033,998
5948,1049,966
5949,1064,934
5950,1084,909
5951,1107,893
5952,1136,876
5953,1171,859
5954,1206,847
5955,1244,843
5956,1284,840
5957,1333,840
5958,1375,843
5959,1406,842
5960,1418,842
5961,1424,845
5962,1418,846
5963,1402,850
5964,1373,855
5965,1311,856
5966,1230,863
5967,1155,874
5968,1109,885
5969,1089,899
5970,1077,917
5971,1072,933
5972,1062,945
5973,1054,961
5974,1048,972
5975,1043,984
5976,1040,992
5977,1031,1001
5978,1021,1006
5979,1011,1012
5980,1007,1021
5981,1002,1029
5982,1002,1044
5983,996,1051
5984,988,1057
5985,980,1066
5986,975,1074
5987,971,1084
5988,966,1091
5989,959,1092
5990,951,1097
5991,944,1100
5992,941,1112
5993,941,1116
5994,940,1119
5995,937,1116
5996,933,1117
5997,925,1118
5998,925,1117
5999,928,1120
6000,932,1127
6001,931,1125
6002,929,1126
6003,928,1125
6004,926,1132
6005,927,1136
6006,927,1139
6007,928,1139
6008,927,1135
6009,923,1139
6010,922,1143
6011,924,1151
6012,925,1151
6013,921,1150
6014,921,1150
6015,918,1151
6016,918,1156
6017,921,1161
6018,920,1161
6019,914,1162
6020,907,1162
6021,906,1167
6022,907,1168
6023,910,1176
6024,915,1178
6025,915,1178
6026,909,1183
6027,903,1183
6028,906,1189
6029,905,1200
6030,907,1202
6031,907,1201
6032,903,1202
6033,903,1202
6034,899,1207
6035,897,1214
6036,897,1217
6037,892,1219
6038,890,1218
6039,891,1219
6040,895,1222
6041,897,1229
6042,896,1231
6043,889,1232
6044,880,1231
6045,881,1234
6046,880,1233
6047,879,1237
6048,881,1237
6049,879,1228
6050,876,1225
6051,876,1224
6052,875,1223
6053,875,1224
6054,878,1220
6055,882,1216
6056,880,1211
6057,878,1204
6058,879,1202
6059,883,1200
6060,894,1194
6061,898,1186
6062,896,1177
6063,899,1171
6064,900,1165
6065,905,1163
6066,914,1152
6067,918,1144
6068,920,1135
6069,924,1129
6070,925,1123
6071,933,1122
6072,943,1116
6073,946,1111
6074,948,1101
6075,947,1097
6076,951,1098
6077,953,1095
6078,957,1095
6079,959,1089
6080,957,1085
6081,957,1081
6082,959,1083
6083,962,1085
6084,965,1080
6085,961,1077
6086,959,1073
6087,955,1070
6088,958,1075
6089,964,1078
6090,966,1073
6091,965,1075
6092,958,1070
6093,959,1067
6094,958,1067
6095,960,1073
6096,965,1074
6097,963,1072
6098,960,1067
6099,957,1068
6100,956,1069
6101,961,1071
6102,963,1072
6103,961,1070
6104,957,1069
6105,955,1070
6106,951,1071
6107,955,1074
6108,958,1070
6109,960,1074
6110,957,1074
6111,955,1069
6112,953,1074
6113,954,1077
6114,957,1075
6115,954,1074
6116,952,1070
6117,950,1071
6118,947,1070
6119,950,1079
6120,954,1076
6121,958,1076
6122,954,1075
6123,954,1072
6124,953,1074
6125,954,1075
6126,957,1076
6127,954,1076
6128,954,1074
6129,956,1073
6130,952,1074
6131,955,1079
6132,956,1080
6133,955,1078
6134,957,1073
6135,955,1072
6136,958,1075
6137,958,1076
6138,961,1076
6139,959,1073
6140,956,1070
6141,955,1066
6142,954,1068
6143,958,1071
6144,962,1072
6145,960,1071
6146,957,1067
6147,955,1065
6148,957,1066
6149,961,1070
6150,963,1068
6151,964,1066
6152,961,1064
6153,957,1062
6154,957,1069
6155,957,1069
6156,962,1071
6157,963,1063
6158,961,1063
6159,960,1061
6160,960,1061
6161,965,1066
6162,970,1063
6163,974,1062
6164,972,1056
6165,969,1058
6166,967,1058
6167,969,1063
6168,974,1064
6169,974,1062
6170,975,1059
6171,971,1056
6172,971,1057
6173,974,1060
6174,973,1059
6175,978,1057
6176,973,1052
6177,970,1052
6178,971,1057
6179,974,1058
6180,977,1058
6181,976,1058
6182,973,1055
6183,970,1051
6184,968,1051
6185,967,1055
6186,971,1055
6187,967,1054
6188,959,1051
6189,956,1050
6190,953,1052
6191,955,1052
6192,957,1054
6193,959,1052
6194,957,1049
6195,959,1051
6196,956,1053
6197,955,1056
6198,955,1057
6199,955,1057
6200,956,1053
6201,956,1054
6202,959,1055
6203,960,1059
6204,961,1056
6205,959,1057
6206,956,1052
6207,956,1051
6208,956,1053
6209,961,1057
6210,964,1064
6211,963,1068
6212,959,1070
6213,957,1069
6214,961,1062
6215,976,1055
6216,1001,1034
6217,1021,1009
6218,1034,972
6219,1045,937
6220,1058,906
6221,1080,884
6222,1110,862
6223,1141,843
6224,1174,825
6225,1215,816
6226,1257,813
6227,1306,821
6228,1351,828
6229,1380,833
6230,1392,835
6231,1380,833
6232,1349,834
6233,1291,834
6234,1220,844
6235,1162,854
6236,1120,866
6237,1096,879
6238,1076,895
6239,1063,916
6240,1056,936
6241,1052,951
6242,1046,963
6243,1037,972
6244,1025,987
6245,1016,1003
6246,1011,1014
6247,1004,1022
6248,995,1031
6249,990,1035
6250,982,1043
6251,974,1052
6252,971,1063
6253,962,1072
6254,956,1077
6255,950,1082
6256,940,1095
6257,938,1102
6258,936,1106
6259,931,1107
6260,922,1107
6261,921,1110
6262,920,1114
6263,922,1117
6264,925,1122
6265,919,1124
6266,915,1122
6267,915,1120
6268,913,1126
6269,917,1127
6270,918,1132
6271,914,1131
6272,912,1128
6273,910,1131
6274,907,1134
6275,911,1141
6276,914,1144
6277,911,1144
6278,907,1143
6279,906,1145
6280,904,1150
6281,904,1155
6282,908,1155
6283,906,1159
6284,905,1158
6285,900,1162
6286,899,1166
6287,898,1172
6288,901,1173
6289,898,1177
6290,896,1177
6291,895,1179
6292,893,1181
6293,893,1193
6294,895,1196
6295,894,1194
6296,889,1196
6297,888,1199
6298,887,1206
6299,887,1208
6300,885,1216
6301,882,1214
6302,878,1215
6303,873,1216
6304,874,1222
6305,876,1223
6306,879,1224
6307,876,1224
6308,870,1217
6309,864,1216
6310,867,1218
6311,869,1221
6312,871,1216
6313,873,1211
6314,868,1202
6315,866,1195
6316,866,1193
6317,873,1193
6318,878,1186
6319,880,1179
6320,879,1171
6321,877,1161
6322,881,1158
6323,887,1156
6324,894,1149
6325,900,1143
6326,899,1133
6327,903,1126
6328,905,1119
6329,915,1113
6330,919,1109
6331,927,1101
6332,932,1092
6333,935,1087
6334,937,1086
6335,939,1085
6336,944,1080
6337,948,1074
6338,948,1068
6339,948,1065
6340,950,1063
6341,949,1066
6342,952,1065
6343,952,1063
6344,952,1058
6345,953,1058
6346,954,1061
6347,957,1060
6348,959,1060
6349,957,1060
6350,955,1058
6351,952,1053
6352,952,1054
6353,955,1056
6354,959,1057
6355,955,1056
6356,951,1055
6357,950,1054
6358,953,1054
6359,955,1059
6360,960,1060
6361,958,1055
6362,954,1052
6363,949,1051
6364,948,1052
6365,948,1055
6366,956,1061
6367,954,1059
6368,950,1055
6369,948,1054
6370,944,1056
6371,951,1059
6372,955,1061
6373,952,1062
6374,950,1056
6375,946,1054
6376,945,1058
6377,952,1058
6378,955,1059
6379,950,1057
6380,948,1053
6381,947,1056
6382,945,1057
6383,948,1061
6384,953,1058
6385,951,1058
6386,950,1056
6387,949,1056
6388,948,1058
6389,950,1059
6390,953,1060
6391,952,1055
6392,955,1051
6393,954,1049
6394,953,1051
6395,953,1055
6396,954,1055
6397,953,1054
6398,954,1049
6399,953,1047
6400,949,1050
6401,947,1049
6402,952,1049
6403,955,1047
6404,953,1046
6405,953,1046
6406,952,1048
6407,953,1050
6408,955,1048
6409,953,1046
6410,950,1042
6411,951,1043
6412,949,1044
6413,953,1046
6414,959,1044
6415,959,1040
6416,957,1037
6417,958,1038
6418,961,1039
6419,965,1043
6420,968,1045
6421,969,1041
6422,966,1039
6423,966,1037
6424,967,1039
6425,970,1042
6426,975,1044
6427,972,1042
6428,971,1037
6429,970,1033
6430,973,1037
6431,976,1039
6432,978,1037
6433,975,1035
6434,971,1035
6435,968,1031
6436,968,1036
6437,971,1038
6438,973,1038
6439,973,1036
6440,969,1031
6441,963,1032
6442,962,1034
6443,963,1035
6444,963,1034
6445,966,1034
6446,964,1027
6447,960,1026
6448,954,1025
6449,954,1028
6450,953,1028
6451,955,1029
6452,960,1027
6453,957,1027
6454,954,1030
6455,954,1030
6456,952,1031
6457,954,1033
6458,954,1033
6459,954,1031
6460,953,1032
6461,954,1037
6462,957,1037
6463,954,1034
6464,952,1026
6465,951,1028
6466,951,1030
6467,954,1033
6468,960,1039
6469,959,1040
6470,956,1040
6471,955,1040
6472,956,1039
6473,962,1032
6474,976,1020
6475,997,995
6476,1018,965
6477,1038,944
6478,1056,929
6479,1078,906
6480,1094,878
6481,1116,848
6482,1134,819
6483,1163,799
6484,1199,790
6485,1247,787
6486,1297,782
6487,1340,776
6488,1369,777
6489,1386,782
6490,1386,787
6491,1372,791
6492,1335,792
6493,1271,792
6494,1192,796
6495,1129,808
6496,1092,818
6497,1073,834
6498,1060,847
6499,1054,868
6500,1052,882
6501,1046,905
6502,1049,923
6503,1043,935
6504,1042,949
6505,1029,957
6506,1020,964
6507,1011,975
6508,1005,986
6509,1005,1002
6510,1001,1012
6511,992,1016
6512,981,1017
6513,972,1020
6514,968,1029
6515,962,1039
6516,960,1050
6517,955,1056
6518,949,1059
6519,938,1065
6520,933,1073
6521,931,1075
6522,929,1076
6523,928,1079
6524,927,1080
6525,924,1082
6526,922,1086
6527,924,1092
6528,926,1094
6529,923,1093
6530,922,1089
6531,919,1091
6532,918,1094
6533,918,1099
6534,920,1103
6535,920,1103
6536,917,1101
6537,915,1104
6538,914,1107
6539,918,1111
6540,918,1114
6541,918,1118
6542,913,1116
6543,908,1120
6544,911,1124
6545,911,1130
6546,914,1131
6547,912,1131
6548,906,1130
6549,904,1134
6550,902,1142
6551,905,1147
6552,906,1151
6553,908,1156
6554,903,1151
6555,899,1154
6556,895,1159
6557,896,1166
6558,898,1174
6559,898,1175
6560,896,1174
6561,891,1174
6562,888,1181
6563,888,1186
6564,888,1186
6565,885,1183
6566,885,1183
6567,880,1181
6568,877,1186
6569,880,1190
6570,878,1192
6571,880,1189
6572,876,1187
6573,873,1184
6574,871,1181
6575,875,1183
6576,875,1181
6577,875,1176
6578,874,1165
6579,874,1163
6580,872,1157
6581,877,1152
6582,882,1148
6583,885,1141
6584,884,1134
6585,885,1128
6586,887,1124
6587,891,1118
6588,901,1111
6589,904,1102
6590,909,1092
6591,908,1082
6592,912,1078
6593,921,1072
6594,932,1072
6595,933,1061
6596,939,1051
6597,939,1045
6598,941,1042
6599,947,1040
6600,954,1041
6601,960,1036
6602,960,1030
6603,958,1023
6604,957,1029
6605,960,1027
6606,962,1027
6607,962,1023
6608,962,1018
6609,960,1018
6610,962,1019
6611,961,1021
6612,964,1021
6613,965,1017
6614,965,1014
6615,962,1011
6616,961,1014
6617,962,1016
6618,963,1018
6619,963,1016
6620,959,1013
6621,957,1009
6622,959,1013
6623,962,1014
6624,963,1015
6625,961,1014
6626,959,1012
6627,956,1011
6628,956,1014
6629,957,1013
6630,963,1016
6631,961,1013
6632,953,1013
6633,954,1011
6634,953,1017
6635,956,1018
6636,960,1018
6637,961,1014
6638,958,1014
6639,953,1011
6640,952,1014
6641,954,1018
6642,959,1017
6643,960,1014
6644,959,1015
6645,955,1010
6646,954,1012
6647,956,1016
6648,958,1014
6649,961,1014
6650,959,1011
6651,958,1012
6652,954,1014
6653,956,1017
6654,958,1016
6655,960,1014
6656,960,1011
6657,961,1011
6658,958,1012
6659,959,1016
6660,963,1015
6661,962,1011
6662,958,1006
6663,958,1006
6664,956,1005
6665,959,1008
6666,962,1012
6667,962,1010
6668,958,1004
6669,959,1001
6670,961,1004
6671,963,1006
6672,965,1008
6673,962,1006
6674,958,1003
6675,961,1004
6676,959,1002
6677,965,1005
6678,966,1003
6679,965,1002
6680,964,1000
6681,965,999
6682,972,999
6683,978,1002
6684,980,1001
6685,978,999
6686,977,997
6687,973,996
6688,976,998
6689,976,1004
6690,980,1004
6691,981,995
6692,979,996
6693,977,990
6694,979,995
6695,980,997
6696,984,1001
6697,978,996
6698,973,993
6699,974,989
6700,974,992
6701,975,995
6702,980,994
6703,978,994
6704,972,991
6705,968,989
6706,965,990
6707,967,993
6708,968,993
6709,967,990
6710,962,986
6711,957,983
6712,955,985
6713,956,986
6714,964,987
6715,965,989
6716,963,985
6717,959,983
6718,956,986
6719,954,990
6720,956,991
6721,960,992
6722,961,989
6723,959,986
6724,957,984
6725,959,989
6726,962,989
6727,963,988
6728,961,987
6729,958,988
6730,958,989
6731,958,1000
6732,962,1004
6733,960,1007
6734,957,1003
6735,957,998
6736,962,987
6737,975,968
6738,997,937
6739,1021,906
6740,1043,866
6741,1062,835
6742,1084,809
6743,1107,792
6744,1138,769
6745,1180,751
6746,1222,735
6747,1268,728
6748,1315,726
6749,1360,736
6750,1392,748
6751,1405,754
6752,1402,755
6753,1388,757
6754,1359,763
6755,1303,775
6756,1230,788
6757,1164,801
6758,1116,813
6759,1089,827
6760,1077,844
6761,1076,867
6762,1075,882
6763,1071,890
6764,1061,892
6765,1047,902
6766,1039,913
6767,1033,923
6768,1029,935
6769,1024,943
6770,1017,950
6771,1008,963
6772,999,973
6773,992,983
6774,985,995
6775,976,1000
6776,966,1010
6777,960,1014
6778,954,1023
6779,947,1030
6780,943,1035
6781,940,1036
6782,934,1036
6783,927,1041
6784,924,1044
6785,925,1048
6786,930,1051
6787,927,1050
6788,925,1048
6789,920,1047
6790,919,1050
6791,918,1055
6792,920,1060
6793,921,1057
6794,918,1062
6795,915,1061
6796,912,1066
6797,911,1070
6798,912,1074
6799,913,1076
6800,910,1075
6801,908,1078
6802,907,1079
6803,906,1084
6804,909,1087
6805,907,1088
6806,904,1085
6807,903,1089
6808,902,1092
6809,905,1097
6810,907,1103
6811,905,1103
6812,899,1104
6813,898,1106
6814,899,1112
6815,897,1120
6816,898,1126
6817,898,1124
6818,890,1126
6819,889,1132
6820,888,1137
6821,887,1145
6822,891,1149
6823,888,1150
6824,883,1147
6825,879,1148
6826,877,1149
6827,876,1156
6828,878,1158
6829,877,1158
6830,874,1159
6831,872,1160
6832,870,1163
6833,871,1165
6834,870,1165
6835,866,1163
6836,865,1160
6837,864,1159
6838,864,1158
6839,866,1161
6840,866,1158
6841,864,1155
6842,862,1144
6843,860,1142
6844,862,1136
6845,866,1136
6846,874,1132
6847,879,1126
6848,877,1116
6849,874,1109
6850,878,1099
6851,880,1097
6852,890,1091
6853,896,1082
6854,897,1069
6855,902,1063
6856,904,1057
6857,909,1052
6858,918,1049
6859,922,1043
6860,929,1035
6861,932,1027
6862,933,1025
6863,935,1024
6864,940,1020
6865,939,1017
6866,942,1011
6867,942,1003
6868,947,1004
6869,950,1004
6870,956,1002
6871,954,997
6872,954,995
6873,955,995
6874,955,996
6875,956,997
6876,960,994
6877,961,995
6878,957,990
6879,957,990
6880,955,992
6881,958,993
6882,963,992
6883,964,992
6884,962,988
6885,960,984
6886,956,989
6887,958,991
6888,961,992
6889,958,992
6890,958,988
6891,955,990
6892,955,990
6893,955,990
6894,957,993
6895,955,991
6896,953,987
6897,953,984
6898,955,989
6899,959,992
6900,961,996
6901,960,995
6902,957,989
6903,953,987
6904,949,989
6905,955,994
6906,958,995
6907,954,993
6908,950,990
6909,945,990
6910,945,990
6911,950,994
6912,953,996
6913,951,994
6914,949,990
6915,946,989
6916,945,990
6917,949,994
6918,951,994
6919,955,992
6920,950,989
6921,949,987
6922,948,991
6923,950,993
6924,951,994
6925,952,991
6926,952,989
6927,950,986
6928,950,988
6929,949,989
6930,952,993
6931,953,992
6932,951,988
6933,950,987
6934,952,989
6935,957,991
6936,957,992
6937,954,988
6938,950,986
6939,949,983
6940,949,984
6941,951,990
6942,952,992
6943,955,989
6944,952,985
6945,949,983
6946,950,984
6947,952,986
6948,953,989
6949,958,988
6950,956,983
6951,953,983
6952,952,984
6953,956,987
6954,962,987
6955,963,984
6956,963,983
6957,963,983
6958,961,982
6959,961,988
6960,968,990
6961,966,991
6962,968,989
6963,965,986
6964,965,987
6965,966,988
6966,969,991
6967,969,989
6968,971,983
6969,971,980
6970,970,981
6971,973,985
6972,972,984
6973,973,982
6974,970,982
6975,973,983
6976,975,984
6977,974,985
6978,972,988
6979,966,984
6980,964,980
6981,958,980
6982,959,982
6983,964,985
6984,968,984
6985,963,980
6986,957,974
6987,952,974
6988,950,974
6989,955,979
6990,961,981
6991,959,979
6992,958,976
6993,955,976
6994,953,976
6995,952,979
6996,955,980
6997,957,979
6998,956,979
6999,954,978
7000,954,980
7001,955,983
7002,957,982
7003,959,979
7004,957,976
7005,955,972
7006,953,976
7007,954,981
7008,954,982
7009,955,983
7010,958,980
7011,956,984
7012,959,990
7013,961,995
7014,963,994
7015,962,986
7016,966,968
7017,976,949
7018,998,926
7019,1025,899
7020,1049,874
7021,1073,844
7022,1090,816
7023,1110,787
7024,1136,769
7025,1174,754
7026,1212,743
7027,1248,730
7028,1282,719
7029,1315,719
7030,1347,719
7031,1372,723
7032,1389,729
7033,1396,728
7034,1399,728
7035,1392,733
7036,1376,741
7037,1336,748
7038,1278,760
7039,1206,768
7040,1139,778
7041,1092,791
7042,1073,804
7043,1066,828
7044,1061,850
7045,1058,868
7046,1050,879
7047,1037,890
7048,1031,899
7049,1024,911
7050,1022,919
7051,1015,927
7052,1008,934
7053,998,943
7054,991,956
7055,989,968
7056,987,975
7057,982,983
7058,977,990
7059,966,994
7060,959,1004
7061,950,1013
7062,946,1023
7063,939,1029
7064,935,1031
7065,928,1033
7066,921,1037
7067,919,1039
7068,921,1041
7069,921,1040
7070,916,1041
7071,911,1040
7072,908,1047
7073,911,1050
7074,913,1053
7075,916,1056
7076,915,1052
7077,913,1054
7078,910,1059
7079,910,1063
7080,909,1065
7081,909,1068
7082,910,1070
7083,906,1067
7084,907,1071
7085,909,1072
7086,907,1076
7087,906,1076
7088,902,1075
7089,897,1077
7090,901,1082
7091,904,1089
7092,908,1096
7093,904,1095
7094,901,1093
7095,895,1092
7096,895,1098
7097,897,1107
7098,900,1114
7099,897,1117
7100,891,1115
7101,890,1117
7102,891,1122
7103,894,1128
7104,893,1133
7105,891,1134
7106,888,1131
7107,885,1134
7108,878,1138
7109,879,1147
7110,884,1151
7111,884,1151
7112,881,1151
7113,877,1149
7114,876,1151
7115,875,1158
7116,877,1159
7117,875,1158
7118,872,1160
7119,869,1162
7120,867,1162
7121,867,1164
7122,871,1167
7123,869,1160
7124,866,1157
7125,864,1150
7126,866,1151
7127,870,1151
7128,875,1147
7129,877,1141
7130,872,1132
7131,869,1127
7132,873,1124
7133,877,1120
7134,883,1114
7135,889,1106
7136,889,1097
7137,889,1087
7138,892,1081
7139,896,1075
7140,903,1070
7141,909,1060
7142,913,1055
7143,917,1050
7144,919,1050
7145,924,1045
7146,929,1043
7147,932,1038
7148,930,1026
7149,931,1020
7150,937,1017
7151,942,1018
7152,949,1014
7153,953,1012
7154,948,1005
7155,950,1003
7156,951,1002
7157,955,1003
7158,957,1002
7159,957,998
7160,959,992
7161,954,991
7162,953,994
7163,956,996
7164,958,998
7165,957,995
7166,958,993
7167,955,990
7168,957,992
7169,956,993
7170,959,993
7171,960,991
7172,955,990
7173,950,992
7174,951,992
7175,952,995
7176,955,995
7177,956,993
7178,951,990
7179,950,989
7180,949,991
7181,954,993
7182,955,997
7183,956,995
7184,955,994
7185,950,990
7186,949,992
7187,951,996
7188,953,997
7189,953,995
7190,951,991
7191,950,991
7192,951,994
7193,953,1000
7194,955,1000
7195,955,1001
7196,950,996
7197,947,991
7198,946,994
7199,950,998
7200,953,1001
7201,951,1001
7202,952,997
7203,951,995
7204,950,996
7205,951,998
7206,954,999
7207,955,999
7208,954,997
7209,951,995
7210,949,995
7211,954,1001
7212,955,1000
7213,954,999
7214,950,996
7215,949,992
7216,952,996
7217,957,998
7218,956,999
7219,954,998
7220,952,996
7221,950,995
7222,951,995
7223,955,996
7224,957,997
7225,958,996
7226,955,989
7227,953,989
7228,953,993
7229,953,996
7230,956,997
7231,957,996
7232,955,994
7233,952,991
7234,956,991
7235,954,992
7236,956,995
7237,954,991
7238,955,990
7239,955,989
7240,954,988
7241,958,991
7242,960,992
7243,955,991
7244,955,985
7245,954,984
7246,955,984
7247,960,988
7248,964,991
7249,966,990
7250,966,986
7251,962,986
7252,963,987
7253,965,988
7254,967,990
7255,970,988
7256,968,987
7257,967,984
7258,964,988
7259,967,992
7260,969,990
7261,970,987
7262,971,984
7263,971,981
7264,971,984
7265,973,982
7266,972,985
7267,971,985
7268,969,981
7269,966,979
7270,967,981
7271,971,985
7272,972,986
7273,973,984
7274,965,981
7275,962,983
7276,962,981
7277,965,985
7278,966,986
7279,963,983
7280,957,979
7281,952,977
7282,949,977
7283,954,979
7284,955,981
7285,958,976
7286,959,976
7287,954,972
7288,951,975
7289,953,980
7290,956,980
7291,953,983
7292,954,981
7293,954,981
7294,954,979
7295,953,980
7296,954,981
7297,957,979
7298,954,979
7299,954,977
7300,951,977
7301,953,983
7302,953,983
7303,956,983
7304,954,979
7305,953,982
7306,955,984
7307,958,992
7308,960,995
7309,961,991
7310,960,981
7311,968,963
7312,984,942
7313,1013,914
7314,1041,885
7315,1059,856
7316,1077,828
7317,1093,806
7318,1117,791
7319,1148,781
7320,1183,769
7321,1217,756
7322,1244,746
7323,1269,743
7324,1306,741
7325,1340,744
7326,1370,749
7327,1379,750
7328,1378,747
7329,1355,747
7330,1309,752
7331,1243,762
7332,1167,772
7333,1104,781
7334,1066,792
7335,1047,800
7336,1041,818
7337,1042,833
7338,1043,855
7339,1038,868
7340,1031,877
7341,1022,891
7342,1013,901
7343,1008,916
7344,1006,928
7345,999,935
7346,992,945
7347,980,952
7348,978,963
7349,974,974
7350,972,984
7351,964,992
7352,955,999
7353,944,1007
7354,935,1011
7355,934,1018
7356,931,1024
7357,931,1027
7358,927,1025
7359,922,1028
7360,917,1031
7361,916,1037
7362,918,1040
7363,913,1042
7364,913,1038
7365,912,1038
7366,911,1043
7367,912,1048
7368,912,1052
7369,911,1052
7370,911,1051
7371,909,1051
7372,908,1057
7373,910,1056
7374,912,1060
7375,912,1063
7376,906,1060
7377,901,1063
7378,905,1067
7379,907,1073
7380,909,1075
7381,909,1077
7382,906,1077
7383,898,1082
7384,899,1088
7385,900,1093
7386,904,1098
7387,903,1099
7388,901,1095
7389,894,1098
7390,890,1104
7391,891,1108
7392,892,1116
7393,891,1112
7394,891,1117
7395,888,1121
7396,886,1126
7397,886,1130
7398,888,1134
7399,885,1136
7400,880,1135
7401,877,1136
7402,875,1141
7403,878,1144
7404,880,1150
7405,877,1148
7406,872,1147
7407,866,1149
7408,868,1148
7409,870,1153
7410,873,1151
7411,870,1152
7412,867,1149
7413,864,1146
7414,864,1145
7415,866,1143
7416,869,1141
7417,870,1137
7418,869,1127
7419,870,1122
7420,869,1118
7421,872,1117
7422,878,1111
7423,881,1103
7424,883,1094
7425,880,1088
7426,882,1080
7427,884,1076
7428,891,1075
7429,898,1068
7430,902,1058
7431,903,1053
7432,905,1046
7433,911,1046
7434,921,1041
7435,922,1029
7436,926,1022
7437,925,1017
7438,928,1015
7439,933,1014
7440,938,1010
7441,944,1010
7442,945,1001
7443,942,996
7444,943,995
7445,944,992
7446,951,996
7447,950,991
7448,950,990
7449,953,990
7450,950,987
7451,954,992
7452,955,990
7453,955,986
7454,951,982
7455,948,983
7456,948,983
7457,951,984
7458,954,989
7459,953,984
7460,949,982
7461,946,978
7462,948,982
7463,951,981
7464,955,985
7465,954,984
7466,950,980
7467,946,979
7468,947,980
7469,947,983
7470,950,985
7471,954,986
7472,950,982
7473,948,980
7474,948,985
7475,950,988
7476,948,987
7477,948,986
7478,946,983
7479,947,982
7480,945,986
7481,948,987
7482,951,988
7483,949,988
7484,947,986
7485,943,984
7486,944,986
7487,947,992
7488,948,991
7489,948,990
7490,948,984
7491,943,982
7492,942,985
7493,946,989
7494,949,992
7495,949,990
7496,947,986
7497,948,985
7498,946,986
7499,946,989
7500,948,990
7501,950,990
7502,947,985
7503,948,985
7504,949,989
7505,951,992
7506,951,994
7507,951,992
7508,949,986
7509,946,985
7510,946,986
7511,950,987
7512,954,990
7513,954,990
7514,953,987
7515,949,983
7516,947,985
7517,949,986
7518,950,991
7519,951,985
7520,948,984
7521,946,983
7522,946,984
7523,948,989
7524,947,987
7525,950,988
7526,949,985
7527,949,985
7528,950,983
7529,952,984
7530,953,986
7531,953,987
7532,947,983
7533,946,983
7534,944,983
7535,945,986
7536,950,988
7537,953,984
7538,952,983
7539,947,981
7540,951,984
7541,954,983
7542,960,988
7543,962,986
7544,961,983
7545,959,978
7546,961,981
7547,962,979
7548,964,986
7549,965,985
7550,963,982
7551,963,980
7552,961,981
7553,966,985
7554,968,985
7555,968,981
7556,968,977
7557,965,978
7558,966,979
7559,968,981
7560,968,979
7561,965,978
7562,963,972
7563,963,973
7564,960,976
7565,964,978
7566,971,981
7567,971,979
7568,965,975
7569,957,976
7570,954,977
7571,953,978
7572,955,980
7573,952,978
7574,949,977
7575,948,974
7576,942,976
7577,941,977
7578,946,975
7579,947,974
7580,950,971
7581,950,973
7582,952,972
7583,954,977
7584,952,980
7585,948,980
7586,946,976
7587,944,976
7588,944,979
7589,948,979
7590,951,982
7591,950,982
7592,950,978
7593,945,978
7594,944,977
7595,946,982
7596,949,985
7597,952,985
7598,949,985
7599,948,983
7600,946,984
7601,946,990
7602,948,994
7603,951,987
7604,953,970
7605,959,952
7606,977,925
7607,1003,897
7608,1031,868
7609,1047,839
7610,1067,810
7611,1085,790
7612,1108,769
7613,1137,755
7614,1176,743
7615,1216,732
7616,1254,724
7617,1292,718
7618,1328,729
7619,1363,743
7620,1385,753
7621,1396,759
7622,1395,764
7623,1384,763
7624,1360,768
7625,1309,780
7626,1241,794
7627,1172,810
7628,1121,817
7629,1087,831
7630,1073,850
7631,1065,871
7632,1063,888
7633,1058,897
7634,1049,900
7635,1034,913
7636,1023,922
7637,1014,931
7638,1011,939
7639,1008,949
7640,1003,952
7641,996,964
7642,989,974
7643,983,986
7644,975,996
7645,967,1005
7646,955,1012
7647,948,1018
7648,939,1026
7649,932,1036
7650,925,1039
7651,922,1040
7652,915,1040
7653,909,1043
7654,911,1049
7655,912,1055
7656,911,1060
7657,911,1060
7658,906,1056
7659,903,1056
7660,904,1057
7661,903,1062
7662,908,1066
7663,907,1067
7664,905,1066
7665,900,1067
7666,901,1072
7667,902,1077
7668,904,1082
7669,902,1082
7670,900,1083
7671,897,1082
7672,896,1085
7673,895,1092
7674,896,1096
7675,897,1096
7676,896,1096
7677,895,1098
7678,893,1105
7679,891,1111
7680,893,1115
7681,890,1117
7682,888,1118
7683,883,1123
7684,883,1123
7685,882,1129
7686,884,1138
7687,883,1138
7688,880,1143
7689,878,1139
7690,877,1147
7691,878,1153
7692,878,1160
7693,876,1158
7694,871,1159
7695,865,1161
7696,864,1164
7697,862,1166
7698,861,1172
7699,865,1169
7700,861,1170
7701,858,1169
7702,855,1170
7703,856,1172
7704,858,1176
7705,857,1171
7706,853,1166
7707,848,1162
7708,849,1160
7709,852,1158
7710,856,1156
7711,859,1146
7712,859,1138
7713,857,1134
7714,859,1131
7715,862,1125
7716,867,1121
7717,871,1110
7718,873,1101
7719,878,1094
7720,880,1088
7721,887,1086
7722,893,1080
7723,897,1070
7724,900,1064
7725,903,1054
7726,906,1052
7727,913,1047
7728,920,1046
7729,920,1039
7730,922,1031
7731,923,1030
7732,925,1026
7733,931,1026
7734,939,1024
7735,943,1020
7736,942,1013
7737,940,1011
7738,942,1010
7739,942,1010
7740,946,1015
7741,949,1010
7742,950,1006
7743,947,1006
7744,944,1005
7745,946,1007
7746,949,1007
7747,950,1008
7748,948,1003
7749,944,1002
7750,946,1004
7751,948,1003
7752,946,1007
7753,946,1006
7754,945,1002
7755,944,1003
7756,946,1000
7757,949,1008
7758,950,1010
7759,945,1007
7760,946,1000
7761,939,999
7762,940,1002
7763,942,1007
7764,945,1007
7765,944,1005
7766,945,1002
7767,940,1003
7768,940,1005
7769,940,1007
7770,944,1011
7771,947,1008
7772,942,1004
7773,938,1003
7774,935,1004
7775,939,1008
7776,943,1010
7777,944,1010
7778,942,1005
7779,938,1003
7780,938,1006
7781,940,1006
7782,942,1011
7783,941,1010
7784,942,1005
7785,938,1005
7786,936,1005
7787,939,1007
7788,943,1013
7789,941,1010
7790,939,1005
7791,935,1006
7792,936,1006
7793,940,1008
7794,944,1010
7795,944,1010
7796,943,1005
7797,939,1002
7798,937,1003
7799,939,1004
7800,939,1007
7801,940,1004
7802,941,1005
7803,942,1003
7804,941,1001
7805,940,1006
7806,944,1008
7807,943,1007
7808,944,1005
7809,943,1000
7810,945,1004
7811,948,1006
7812,948,1008
7813,947,1005
7814,939,1000
7815,935,999
7816,937,999
7817,943,1001
7818,945,1003
7819,947,1002
7820,945,998
7821,938,996
7822,941,999
7823,946,1003
7824,950,1004
7825,949,1000
7826,946,1001
7827,943,994
7828,942,994
7829,946,999
7830,955,1003
7831,958,999
7832,957,999
7833,955,995
7834,954,993
7835,956,997
7836,957,1000
7837,961,999
7838,958,998
7839,954,997
7840,953,997
7841,955,997
7842,961,998
7843,963,998
7844,962,994
7845,960,992
7846,959,994
7847,960,996
7848,962,996
7849,962,993
7850,964,991
7851,959,988
7852,953,989
7853,959,991
7854,964,991
7855,965,993
7856,965,989
7857,953,987
7858,954,990
7859,953,991
7860,957,990
7861,953,990
7862,949,983
7863,947,984
7864,947,983
7865,946,986
7866,946,984
7867,948,985
7868,943,982
7869,944,984
7870,945,984
7871,945,989
7872,947,996
7873,944,994
7874,943,989
7875,942,988
7876,940,992
7877,945,992
7878,948,992
7879,949,991
7880,949,987
7881,945,986
7882,944,990
7883,946,994
7884,948,993
7885,947,995
7886,947,994
7887,947,995
7888,946,1002
7889,947,1006
7890,945,1015
7891,945,1014
7892,950,1005
7893,956,995
7894,973,980
7895,992,959
7896,1014,936
7897,1032,904
7898,1049,874
7899,1065,847
7900,1089,821
7901,1118,805
7902,1150,788
7903,1183,767
7904,1216,754
7905,1247,746
7906,1284,736
7907,1325,740
7908,1360,744
7909,1383,747
7910,1392,745
7911,1388,744
7912,1373,749
7913,1344,752
7914,1304,759
7915,1252,762
7916,1187,771
7917,1134,785
7918,1089,801
7919,1062,818
7920,1046,840
7921,1039,855
7922,1036,873
7923,1030,886
7924,1026,900
7925,1020,915
7926,1014,927
7927,1006,935
7928,993,943
7929,988,949
7930,985,957
7931,982,970
7932,981,981
7933,981,988
7934,974,992
7935,967,999
7936,959,1008
7937,949,1020
7938,946,1029
7939,943,1032
7940,936,1035
7941,930,1035
7942,925,1041
7943,922,1049
7944,920,1054
7945,917,1055
7946,916,1054
7947,914,1054
7948,913,1057
7949,913,1061
7950,915,1066
7951,915,1065
7952,910,1063
7953,906,1062
7954,905,1067
7955,907,1073
7956,911,1079
7957,914,1078
7958,914,1075
7959,910,1078
7960,907,1079
7961,909,1084
7962,912,1088
7963,912,1089
7964,910,1088
7965,908,1089
7966,905,1091
7967,905,1095
7968,908,1104
7969,909,1103
7970,904,1097
7971,903,1098
7972,900,1102
7973,905,1112
7974,905,1113
7975,902,1116
7976,901,1119
7977,895,1120
7978,897,1123
7979,898,1131
7980,899,1137
7981,901,1139
7982,900,1138
7983,893,1141
7984,890,1147
7985,893,1151
7986,891,1156
7987,893,1158
7988,892,1156
7989,887,1157
7990,886,1161
7991,884,1165
7992,885,1170
7993,885,1168
7994,881,1170
7995,879,1169
7996,878,1171
7997,880,1171
7998,880,1175
7999,877,1171
8000,873,1168
8001,867,1165
8002,867,1166
8003,871,1164
8004,874,1164
8005,874,1159
8006,868,1151
8007,868,1147
8008,870,1143
8009,875,1144
8010,881,1141
8011,884,1132
8012,883,1127
8013,884,1115
8014,887,1108
8015,891,1105
8016,895,1101
8017,901,1095
8018,903,1084
8019,907,1076
8020,910,1071
8021,918,1071
8022,923,1067
8023,928,1059
8024,927,1048
8025,929,1044
8026,931,1040
8027,939,1037
8028,943,1038
8029,948,1031
8030,945,1024
8031,948,1022
8032,951,1018
8033,952,1017
8034,956,1016
8035,959,1015
8036,958,1011
8037,955,1006
8038,953,1007
8039,955,1010
8040,955,1014
8041,958,1009
8042,961,1007
8043,957,1003
8044,958,1002
8045,959,1009
8046,958,1008
8047,960,1005
8048,957,1003
8049,955,998
8050,957,1001
8051,957,1005
8052,962,1005
8053,959,1003
8054,955,998
8055,952,999
8056,952,1000
8057,955,1005
8058,959,1005
8059,960,1006
8060,956,1002
8061,952,1001
8062,949,1002
8063,952,1003
8064,957,1006
8065,958,1007
8066,955,1004
8067,951,1002
8068,951,1001
8069,951,1005
8070,956,1008
8071,954,1008
8072,954,1003
8073,952,1003
8074,952,1004
8075,954,1008
8076,956,1009
8077,954,1006
8078,954,1004
8079,951,999
8080,956,999
8081,957,1006
8082,961,1010
8083,961,1006
8084,957,1008
8085,952,1005
8086,953,1005
8087,953,1009
8088,955,1009
8089,961,1010
8090,956,1005
8091,952,1004
8092,952,1006
8093,955,1007
8094,956,1009
8095,957,1009
8096,957,1008
8097,954,1002
8098,957,1004
8099,957,1009
8100,958,1011
8101,960,1006
8102,957,1003
8103,956,1004
8104,954,1003
8105,956,1007
8106,960,1008
8107,959,1008
8108,960,1004
8109,957,1002
8110,956,1004
8111,960,1005
8112,964,1009
8113,962,1007
8114,962,1002
8115,956,1002
8116,956,1004
8117,958,1007
8118,961,1011
8119,963,1010
8120,962,1007
8121,959,1004
8122,956,1005
8123,955,1006
8124,960,1007
8125,962,1005
8126,963,1001
8127,962,999
8128,963,1002
8129,966,1005
8130,969,1005
8131,971,1002
8132,972,1000
8133,972,998
8134,972,1001
8135,973,1004
8136,975,1008
8137,974,1004
8138,971,1001
8139,967,1000
8140,969,1000
8141,974,1002
8142,979,1003
8143,982,1001
8144,979,999
8145,972,998
8146,970,997
8147,970,999
8148,974,1002
8149,975,1000
8150,975,997
8151,972,997
8152,973,1000
8153,972,1002
8154,973,1004
8155,973,1000
8156,970,1000
8157,965,1000
8158,967,1001
8159,969,1004
8160,968,1007
8161,967,1002
8162,962,998
8163,956,993
8164,956,997
8165,957,995
8166,962,999
8167,963,999
8168,959,995
8169,958,995
8170,955,995
8171,958,1000
8172,960,1006
8173,959,1004
8174,959,1002
8175,957,999
8176,956,998
8177,957,999
8178,961,1007
8179,959,1004
8180,958,1000
8181,954,999
8182,953,1003
8183,957,1004
8184,960,1005
8185,960,1006
8186,962,1007
8187,960,1007
8188,959,1015
8189,962,1021
8190,964,1023
8191,966,1015
8192,966,1005
8193,978,988
8194,996,971
8195,1019,957
8196,1037,939
8197,1046,920
8198,1059,893
8199,1066,870
8200,1079,847
8201,1096,830
8202,1118,814
8203,1147,797
8204,1184,787
8205,1218,776
8206,1255,773
8207,1293,778
8208,1333,782
8209,1362,787
8210,1376,786
8211,1383,784
8212,1371,783
8213,1343,786
8214,1293,790
8215,1229,793
8216,1170,803
8217,1124,811
8218,1097,823
8219,1080,839
8220,1067,859
8221,1064,876
8222,1060,890
8223,1052,903
8224,1043,913
8225,1037,925
8226,1033,938
8227,1028,946
8228,1016,953
8229,1008,963
8230,1001,976
8231,997,985
8232,995,994
8233,989,999
8234,984,1008
8235,973,1017
8236,968,1023
8237,962,1035
8238,956,1042
8239,952,1045
8240,946,1048
8241,938,1052
8242,935,1058
8243,932,1060
8244,933,1067
8245,932,1066
8246,929,1070
8247,925,1067
8248,925,1067
8249,922,1073
8250,925,1075
8251,926,1079
8252,925,1078
8253,918,1077
8254,921,1081
8255,921,1084
8256,925,1089
8257,924,1088
8258,922,1084
8259,919,1085
8260,914,1088
8261,916,1096
8262,915,1098
8263,917,1101
8264,916,1102
8265,913,1100
8266,911,1103
8267,913,1110
8268,916,1113
8269,913,1119
8270,911,1120
8271,907,1119
8272,909,1126
8273,911,1132
8274,909,1134
8275,910,1136
8276,905,1136
8277,900,1137
8278,897,1144
8279,901,1150
8280,904,1157
8281,903,1158
8282,902,1160
8283,897,1159
8284,892,1162
8285,893,1168
8286,892,1173
8287,894,1175
8288,892,1174
8289,886,1172
8290,884,1176
8291,884,1179
8292,887,1183
8293,889,1178
8294,885,1176
8295,882,1176
8296,880,1175
8297,881,1172
8298,885,1172
8299,886,1168
8300,888,1160
8301,884,1154
8302,881,1151
8303,886,1148
8304,890,1147
8305,892,1140
8306,895,1131
8307,895,1120
8308,897,1114
8309,904,1113
8310,911,1104
8311,917,1096
8312,919,1087
8313,923,1078
8314,927,1070
8315,934,1068
8316,941,1064
8317,947,1054
8318,948,1048
8319,948,1044
8320,951,1043
8321,957,1046
8322,962,1043
8323,961,1037
8324,963,1031
8325,959,1026
8326,960,1024
8327,964,1025
8328,967,1028
8329,970,1024
8330,969,1019
8331,965,1018
8332,962,1017
8333,965,1021
8334,965,1026
8335,966,1022
8336,963,1017
8337,961,1016
8338,960,1016
8339,963,1018
8340,964,1019
8341,966,1017
8342,966,1018
8343,963,1013
8344,960,1014
8345,962,1016
8346,961,1021
8347,959,1019
8348,959,1019
8349,960,1016
8350,956,1015
8351,959,1022
8352,957,1021
8353,958,1021
8354,957,1019
8355,958,1018
8356,957,1020
8357,959,1021
8358,961,1025
8359,959,1025
8360,955,1021
8361,955,1019
8362,955,1020
8363,958,1018
8364,956,1023
8365,957,1021
8366,954,1016
8367,954,1017
8368,953,1017
8369,955,1019
8370,958,1023
8371,956,1019
8372,957,1016
8373,953,1017
8374,952,1018
8375,956,1019
8376,960,1023
8377,959,1023
8378,957,1020
8379,956,1017
8380,955,1016
8381,956,1019
8382,962,1019
8383,961,1019
8384,958,1018
8385,955,1017
8386,953,1014
8387,954,1017
8388,959,1019
8389,960,1018
8390,958,1015
8391,957,1015
8392,957,1013
8393,953,1017
8394,954,1021
8395,960,1020
8396,959,1015
8397,954,1014
8398,954,1013
8399,954,1016
8400,957,1016
8401,960,1018
8402,958,1013
8403,956,1013
8404,957,1014
8405,958,1018
8406,961,1020
8407,960,1018
8408,959,1016
8409,957,1013
8410,960,1014
8411,963,1018
8412,967,1019
8413,971,1015
8414,969,1013
8415,969,1008
8416,965,1012
8417,973,1015
8418,972,1015
8419,976,1015
8420,971,1012
8421,969,1012
8422,968,1014
8423,973,1018
8424,978,1021
8425,981,1018
8426,977,1014
8427,976,1008
8428,977,1010
8429,979,1012
8430,981,1010
8431,978,1011
8432,977,1007
8433,975,1009
8434,974,1011
8435,972,1011
8436,973,1013
8437,973,1009
8438,970,1009
8439,967,1007
8440,964,1006
8441,963,1007
8442,962,1009
8443,962,1010
8444,959,1008
8445,956,1008
8446,956,1004
8447,960,1008
8448,962,1008
8449,962,1012
8450,960,1005
8451,957,1006
8452,958,1007
8453,958,1009
8454,962,1012
8455,961,1011
8456,960,1008
8457,956,1006
8458,957,1008
8459,958,1011
8460,964,1011
8461,963,1008
8462,959,1005
8463,956,1003
8464,957,1008
8465,959,1012
8466,965,1019
8467,967,1022
8468,968,1023
8469,963,1018
8470,965,1006
8471,974,988
8472,996,966
8473,1020,933
8474,1044,901
8475,1060,874
8476,1076,851
8477,1099,827
8478,1118,807
8479,1143,785
8480,1168,762
8481,1203,748
8482,1240,742
8483,1279,744
8484,1318,748
8485,1347,755
8486,1368,760
8487,1370,763
8488,1359,769
8489,1330,774
8490,1276,785
8491,1215,794
8492,1157,802
8493,1116,814
8494,1090,825
8495,1080,841
8496,1069,865
8497,1068,883
8498,1059,901
8499,1050,913
8500,1044,927
8501,1042,939
8502,1034,951
8503,1027,960
8504,1015,968
8505,1005,975
8506,997,988
8507,993,997
8508,993,1008
8509,991,1017
8510,982,1022
8511,971,1028
8512,960,1037
8513,956,1050
8514,952,1054
8515,947,1063
8516,938,1063
8517,932,1065
8518,927,1070
8519,927,1075
8520,926,1076
8521,925,1077
8522,924,1075
8523,920,1074
8524,923,1080
8525,924,1088
8526,926,1090
8527,924,1088
8528,918,1088
8529,917,1088
8530,916,1090
8531,920,1098
8532,920,1106
8533,922,1106
8534,918,1103
8535,912,1104
8536,914,1105
8537,916,1111
8538,918,1115
8539,914,1113
8540,912,1118
8541,908,1115
8542,909,1125
8543,908,1128
8544,909,1135
8545,911,1137
8546,909,1139
8547,904,1138
8548,899,1145
8549,903,1151
8550,906,1159
8551,905,1162
8552,904,1162
8553,897,1164
8554,894,1167
8555,890,1173
8556,892,1179
8557,891,1178
8558,891,1178
8559,888,1178
8560,887,1181
8561,886,1187
8562,886,1190
8563,883,1192
8564,883,1187
8565,881,1191
8566,877,1191
8567,880,1191
8568,881,1193
8569,881,1190
8570,878,1183
8571,875,1178
8572,875,1177
8573,878,1175
8574,880,1170
8575,882,1165
8576,878,1158
8577,880,1153
8578,880,1145
8579,886,1141
8580,895,1134
8581,900,1129
8582,902,1115
8583,903,1103
8584,905,1100
8585,915,1092
8586,924,1085
8587,930,1075
8588,932,1069
8589,932,1062
8590,935,1059
8591,943,1058
8592,952,1058
8593,958,1048
8594,958,1043
8595,955,1036
8596,954,1034
8597,959,1036
8598,967,1036
8599,969,1032
8600,967,1025
8601,962,1022
8602,957,1022
8603,957,1023
8604,967,1028
8605,968,1026
8606,969,1024
8607,966,1022
8608,963,1023
8609,964,1023
8610,964,1028
8611,966,1029
8612,964,1022
8613,965,1022
8614,963,1021
8615,964,1025
8616,966,1028
8617,963,1025
8618,964,1020
8619,960,1020
8620,959,1025
8621,959,1029
8622,965,1030
8623,965,1030
8624,962,1028
8625,959,1025
8626,958,1026
8627,959,1029
8628,960,1031
8629,962,1032
8630,960,1028
8631,959,1028
8632,960,1027
8633,961,1032
8634,961,1033
8635,962,1031
8636,963,1032
8637,960,1029
8638,963,1029
8639,963,1029
8640,967,1029
8641,965,1027
8642,962,1028
8643,963,1024
8644,963,1028
8645,967,1030
8646,969,1030
8647,970,1028
8648,967,1026
8649,964,1024
8650,965,1025
8651,968,1027
8652,971,1029
8653,971,1026
8654,970,1024
8655,966,1022
