'sample #','MLII','V1'
0,1068,1061
1,1068,1061
2,1068,1061
3,1068,1061
4,1068,1061
5,1068,1061
6,1068,1061
7,1068,1061
8,1068,1061
9,1062,1057
10,1058,1061
11,1052,1063
12,1053,1069
13,1049,1067
14,1046,1062
15,1038,1064
16,1029,1065
17,1026,1068
18,1025,1071
19,1024,1072
20,1018,1067
21,1014,1065
22,1008,1069
23,1008,1072
24,1008,1075
25,1007,1073
26,1002,1073
27,995,1070
28,992,1070
29,996,1074
30,998,1076
31,998,1074
32,996,1069
33,993,1068
34,988,1069
35,989,1071
36,992,1073
37,993,1073
38,990,1073
39,991,1069
40,990,1069
41,992,1074
42,994,1076
43,991,1078
44,990,1073
45,987,1070
46,986,1071
47,991,1074
48,993,1076
49,993,1076
50,993,1072
51,993,1073
52,992,1073
53,995,1079
54,1001,1083
55,1002,1080
56,1002,1076
57,998,1074
58,998,1078
59,999,1079
60,1006,1082
61,1010,1077
62,1010,1074
63,1010,1074
64,1009,1074
65,1010,1075
66,1005,1074
67,1000,1069
68,998,1065
69,998,1068
70,996,1068
71,998,1069
72,998,1069
73,994,1069
74,993,1067
75,992,1065
76,993,1066
77,998,1073
78,1001,1074
79,993,1074
80,989,1071
81,984,1068
82,985,1071
83,989,1071
84,991,1070
85,986,1071
86,984,1070
87,983,1066
88,984,1070
89,988,1071
90,991,1071
91,991,1074
92,989,1071
93,986,1069
94,989,1070
95,989,1076
96,989,1077
97,988,1076
98,987,1071
99,987,1068
100,989,1071
101,988,1072
102,990,1074
103,991,1072
104,989,1071
105,989,1071
106,987,1073
107,988,1073
108,995,1075
109,990,1071
110,986,1064
111,981,1065
112,981,1068
113,984,1075
114,987,1077
115,986,1080
116,986,1081
117,994,1078
118,1019,1076
119,1052,1068
120,1087,1059
121,1118,1048
122,1150,1036
123,1168,1022
124,1184,1013
125,1192,1000
126,1184,999
127,1159,993
128,1127,991
129,1076,993
130,1008,1001
131,941,1013
132,894,1021
133,867,1029
134,873,1037
135,891,1050
136,913,1062
137,930,1071
138,949,1076
139,961,1073
140,971,1071
141,973,1068
142,979,1068
143,982,1070
144,989,1074
145,990,1072
146,990,1068
147,987,1065
148,987,1072
149,991,1073
150,998,1078
151,996,1075
152,997,1067
153,996,1067
154,993,1067
155,997,1072
156,1001,1072
157,1006,1073
158,1009,1072
159,1007,1069
160,1007,1073
161,1010,1074
162,1012,1076
163,1013,1071
164,1012,1068
165,1011,1064
166,1012,1066
167,1020,1067
168,1029,1073
169,1032,1071
170,1032,1066
171,1032,1064
172,1034,1065
173,1043,1068
174,1044,1073
175,1048,1070
176,1047,1068
177,1048,1064
178,1051,1066
179,1055,1067
180,1063,1068
181,1065,1067
182,1065,1060
183,1065,1061
184,1069,1062
185,1072,1066
186,1077,1067
187,1076,1064
188,1077,1063
189,1074,1061
190,1073,1062
191,1075,1066
192,1077,1069
193,1077,1065
194,1073,1063
195,1069,1063
196,1067,1067
197,1066,1069
198,1065,1075
199,1058,1070
200,1054,1070
201,1048,1070
202,1045,1071
203,1041,1076
204,1040,1077
205,1035,1077
206,1028,1073
207,1022,1075
208,1020,1076
209,1019,1080
210,1016,1084
211,1013,1082
212,1009,1080
213,1002,1076
214,1000,1078
215,999,1085
216,1001,1083
217,1000,1085
218,999,1082
219,994,1081
220,992,1083
221,993,1088
222,994,1090
223,991,1086
224,991,1085
225,985,1082
226,987,1081
227,988,1084
228,990,1088
229,986,1086
230,987,1079
231,984,1080
232,984,1084
233,986,1086
234,988,1090
235,988,1089
236,984,1085
237,986,1087
238,987,1086
239,991,1093
240,993,1091
241,995,1091
242,996,1091
243,991,1089
244,994,1092
245,994,1095
246,998,1096
247,999,1098
248,997,1096
249,999,1094
250,1002,1096
251,1006,1098
252,1009,1100
253,1008,1095
254,1002,1089
255,1001,1086
256,997,1087
257,996,1089
258,998,1095
259,998,1091
260,994,1087
261,988,1086
262,983,1090
263,984,1093
264,990,1095
265,992,1097
266,990,1095
267,985,1095
268,980,1098
269,978,1102
270,985,1101
271,984,1104
272,981,1103
273,978,1098
274,978,1104
275,983,1106
276,986,1110
277,982,1111
278,980,1107
279,982,1109
280,980,1113
281,982,1114
282,983,1118
283,983,1114
284,980,1113
285,980,1114
286,980,1115
287,984,1118
288,985,1124
289,985,1122
290,981,1120
291,977,1122
292,980,1125
293,984,1126
294,987,1131
295,985,1129
296,981,1130
297,982,1127
298,982,1134
299,986,1136
300,989,1138
301,986,1138
302,983,1139
303,979,1142
304,978,1146
305,980,1155
306,987,1158
307,1003,1157
308,1027,1149
309,1056,1141
310,1087,1134
311,1121,1131
312,1153,1126
313,1177,1113
314,1187,1100
315,1184,1088
316,1159,1086
317,1133,1088
318,1097,1095
319,1036,1100
320,967,1112
321,909,1117
322,870,1127
323,864,1141
324,877,1159
325,895,1173
326,913,1181
327,928,1182
328,940,1187
329,955,1189
330,970,1188
331,975,1189
332,979,1189
333,978,1186
334,979,1187
335,983,1193
336,989,1195
337,989,1196
338,988,1193
339,986,1190
340,986,1191
341,990,1194
342,994,1198
343,996,1197
344,995,1195
345,995,1193
346,995,1191
347,998,1193
348,1001,1196
349,1003,1195
350,1003,1190
351,1004,1190
352,1006,1190
353,1010,1195
354,1014,1200
355,1018,1194
356,1019,1190
357,1016,1187
358,1020,1188
359,1027,1190
360,1034,1195
361,1038,1193
362,1041,1188
363,1037,1185
364,1042,1186
365,1046,1186
366,1050,1188
367,1054,1186
368,1055,1182
369,1057,1178
370,1059,1181
371,1059,1182
372,1063,1183
373,1067,1185
374,1067,1178
375,1065,1175
376,1062,1179
377,1068,1182
378,1074,1184
379,1074,1180
380,1066,1177
381,1063,1176
382,1059,1181
383,1061,1180
384,1066,1179
385,1063,1178
386,1061,1174
387,1052,1177
388,1049,1177
389,1046,1183
390,1044,1183
391,1040,1181
392,1036,1181
393,1029,1179
394,1020,1179
395,1018,1181
396,1015,1183
397,1011,1183
398,1006,1183
399,1002,1179
400,1002,1178
401,1001,1182
402,999,1185
403,996,1183
404,992,1181
405,988,1177
406,987,1179
407,987,1181
408,989,1184
409,987,1180
410,982,1176
411,979,1175
412,982,1179
413,983,1181
414,984,1184
415,979,1182
416,980,1174
417,977,1170
418,977,1172
419,978,1176
420,982,1178
421,985,1177
422,984,1172
423,978,1172
424,979,1172
425,984,1174
426,987,1177
427,986,1176
428,985,1174
429,982,1170
430,987,1173
431,989,1178
432,992,1180
433,991,1174
434,985,1173
435,987,1170
436,990,1174
437,994,1175
438,1000,1175
439,1003,1174
440,1003,1172
441,1002,1169
442,1000,1170
443,999,1168
444,995,1164
445,993,1165
446,988,1159
447,984,1157
448,983,1160
449,984,1162
450,984,1163
451,981,1159
452,979,1156
453,978,1156
454,978,1159
455,983,1162
456,985,1167
457,981,1167
458,976,1162
459,970,1158
460,968,1157
461,971,1160
462,976,1161
463,974,1159
464,974,1157
465,970,1158
466,969,1157
467,972,1160
468,978,1163
469,980,1160
470,976,1156
471,972,1155
472,972,1157
473,974,1162
474,976,1161
475,975,1159
476,974,1155
477,973,1153
478,974,1154
479,973,1157
480,977,1157
481,977,1155
482,974,1152
483,973,1149
484,973,1149
485,976,1152
486,980,1154
487,982,1153
488,980,1148
489,976,1147
490,976,1151
491,975,1153
492,972,1151
493,967,1154
494,967,1155
495,972,1153
496,988,1155
497,1017,1151
498,1049,1142
499,1076,1130
500,1098,1121
501,1124,1107
502,1145,1098
503,1160,1088
504,1169,1076
505,1159,1066
506,1131,1057
507,1097,1054
508,1060,1059
509,1010,1070
510,954,1079
511,902,1087
512,865,1090
513,852,1100
514,864,1114
515,887,1132
516,906,1141
517,920,1147
518,931,1143
519,938,1144
520,952,1144
521,962,1142
522,970,1143
523,973,1139
524,970,1138
525,976,1138
526,976,1140
527,979,1142
528,981,1145
529,982,1139
530,983,1136
531,979,1132
532,981,1135
533,984,1138
534,988,1141
535,990,1139
536,991,1132
537,988,1132
538,991,1133
539,994,1137
540,998,1140
541,997,1136
542,996,1132
543,998,1130
544,1000,1130
545,1005,1133
546,1009,1136
547,1012,1130
548,1013,1129
549,1010,1127
550,1013,1125
551,1015,1128
552,1022,1128
553,1022,1124
554,1024,1124
555,1027,1124
556,1030,1125
557,1035,1125
558,1043,1121
559,1047,1114
560,1049,1112
561,1048,1112
562,1049,1111
563,1052,1115
564,1058,1116
565,1060,1110
566,1061,1110
567,1061,1108
568,1060,1108
569,1061,1111
570,1064,1112
571,1063,1109
572,1064,1110
573,1062,1107
574,1062,1110
575,1065,1111
576,1067,1112
577,1065,1111
578,1060,1108
579,1056,1108
580,1052,1110
581,1050,1113
582,1051,1116
583,1049,1112
584,1045,1111
585,1039,1110
586,1030,1112
587,1029,1116
588,1025,1117
589,1022,1120
590,1019,1112
591,1011,1116
592,1007,1117
593,1007,1119
594,1008,1119
595,1005,1116
596,1000,1116
597,996,1114
598,992,1113
599,992,1116
600,994,1117
601,990,1117
602,987,1113
603,985,1114
604,985,1116
605,984,1116
606,984,1120
607,983,1118
608,982,1115
609,978,1115
610,978,1114
611,979,1116
612,983,1121
613,983,1113
614,981,1111
615,978,1110
616,978,1113
617,979,1112
618,980,1113
619,980,1110
620,978,1105
621,975,1104
622,975,1103
623,977,1110
624,981,1113
625,984,1113
626,984,1113
627,979,1109
628,982,1110
629,984,1115
630,984,1119
631,989,1115
632,988,1114
633,987,1110
634,988,1110
635,993,1112
636,995,1112
637,998,1112
638,997,1111
639,1000,1108
640,998,1108
641,1000,1108
642,999,1110
643,996,1106
644,991,1104
645,986,1102
646,981,1101
647,982,1104
648,983,1103
649,984,1100
650,980,1095
651,975,1093
652,975,1093
653,975,1096
654,976,1100
655,978,1098
656,978,1098
657,976,1099
658,973,1099
659,974,1101
660,975,1101
661,976,1099
662,973,1096
663,970,1090
664,970,1094
665,972,1098
666,971,1097
667,973,1091
668,975,1088
669,969,1089
670,967,1092
671,967,1095
672,969,1095
673,967,1094
674,966,1094
675,961,1093
676,959,1095
677,965,1100
678,971,1100
679,970,1094
680,967,1091
681,963,1084
682,964,1087
683,970,1093
684,974,1093
685,975,1090
686,971,1086
687,967,1085
688,967,1086
689,972,1089
690,977,1089
691,977,1084
692,971,1084
693,964,1084
694,964,1087
695,964,1091
696,967,1098
697,967,1098
698,977,1101
699,990,1093
700,1016,1085
701,1047,1070
702,1075,1057
703,1104,1039
704,1123,1025
705,1134,1011
706,1130,1002
707,1110,1002
708,1087,1004
709,1048,1006
710,992,1008
711,934,1016
712,885,1029
713,854,1042
714,843,1052
715,856,1061
716,874,1068
717,890,1070
718,906,1073
719,923,1081
720,942,1080
721,955,1077
722,960,1074
723,964,1073
724,963,1076
725,967,1076
726,972,1076
727,974,1076
728,972,1076
729,970,1075
730,972,1079
731,972,1083
732,976,1087
733,981,1082
734,978,1075
735,979,1074
736,981,1074
737,988,1077
738,995,1077
739,991,1073
740,986,1069
741,985,1071
742,992,1071
743,999,1074
744,1004,1075
745,1002,1072
746,1001,1070
747,1000,1067
748,1002,1072
749,1009,1075
750,1014,1072
751,1016,1072
752,1014,1066
753,1019,1063
754,1022,1062
755,1029,1069
756,1035,1068
757,1035,1064
758,1038,1057
759,1035,1058
760,1035,1062
761,1040,1066
762,1045,1067
763,1048,1062
764,1049,1056
765,1047,1057
766,1047,1059
767,1050,1061
768,1052,1065
769,1053,1059
770,1050,1058
771,1049,1057
772,1052,1056
773,1054,1061
774,1053,1062
775,1051,1061
776,1048,1058
777,1044,1057
778,1043,1060
779,1043,1066
780,1042,1069
781,1039,1067
782,1032,1065
783,1026,1063
784,1020,1067
785,1017,1070
786,1016,1072
787,1010,1067
788,1004,1063
789,996,1064
790,994,1065
791,994,1072
792,997,1073
793,997,1068
794,991,1065
795,981,1064
796,979,1068
797,983,1070
798,986,1076
799,985,1072
800,983,1067
801,978,1064
802,975,1067
803,975,1069
804,973,1075
805,973,1074
806,973,1070
807,971,1066
808,973,1065
809,976,1067
810,978,1071
811,977,1071
812,975,1066
813,970,1068
814,968,1068
815,972,1072
816,974,1072
817,974,1067
818,973,1063
819,971,1065
820,972,1068
821,976,1070
822,980,1072
823,982,1066
824,978,1064
825,977,1067
826,975,1069
827,980,1072
828,985,1071
829,985,1071
830,985,1067
831,986,1068
832,987,1069
833,985,1070
834,989,1074
835,990,1075
836,992,1070
837,994,1067
838,995,1066
839,993,1063
840,994,1060
841,987,1058
842,980,1054
843,975,1052
844,975,1056
845,978,1056
846,983,1063
847,981,1062
848,978,1057
849,977,1053
850,975,1054
851,976,1059
852,981,1064
853,974,1057
854,964,1053
855,954,1050
856,954,1056
857,960,1059
858,964,1061
859,966,1060
860,964,1058
861,963,1056
862,963,1058
863,966,1061
864,972,1063
865,974,1061
866,970,1058
867,965,1056
868,968,1058
869,967,1060
870,969,1064
871,968,1062
872,967,1057
873,966,1056
874,970,1055
875,969,1057
876,968,1059
877,967,1057
878,964,1053
879,965,1050
880,969,1055
881,971,1056
882,968,1059
883,968,1054
884,965,1056
885,967,1051
886,971,1057
887,974,1057
888,974,1061
889,973,1061
890,966,1057
891,960,1058
892,964,1065
893,973,1071
894,985,1067
895,1002,1057
896,1022,1046
897,1042,1036
898,1064,1030
899,1090,1022
900,1112,1011
901,1126,1000
902,1129,989
903,1120,983
904,1103,986
905,1081,994
906,1047,995
907,998,997
908,944,1002
909,894,1007
910,859,1019
911,844,1029
912,857,1037
913,879,1045
914,898,1049
915,907,1052
916,920,1054
917,937,1054
918,955,1056
919,964,1051
920,967,1049
921,969,1045
922,971,1052
923,971,1054
924,973,1056
925,975,1055
926,974,1053
927,969,1050
928,968,1048
929,975,1056
930,980,1057
931,981,1056
932,981,1053
933,984,1051
934,982,1053
935,983,1053
936,985,1058
937,991,1052
938,990,1055
939,989,1049
940,991,1049
941,996,1049
942,1002,1052
943,1003,1048
944,1004,1050
945,1005,1047
946,1009,1047
947,1009,1049
948,1015,1051
949,1019,1049
950,1023,1046
951,1025,1042
952,1025,1042
953,1024,1044
954,1029,1048
955,1030,1046
956,1031,1042
957,1034,1042
958,1038,1043
959,1043,1042
960,1048,1041
961,1048,1035
962,1047,1029
963,1044,1032
964,1044,1036
965,1051,1039
966,1057,1043
967,1057,1038
968,1059,1034
969,1057,1033
970,1059,1033
971,1059,1035
972,1057,1037
973,1056,1034
974,1059,1032
975,1062,1029
976,1060,1034
977,1058,1037
978,1051,1046
979,1043,1046
980,1031,1043
981,1021,1043
982,1015,1043
983,1015,1048
984,1022,1051
985,1020,1049
986,1011,1044
987,999,1037
988,994,1044
989,994,1052
990,997,1054
991,996,1052
992,990,1045
993,981,1041
994,979,1045
995,978,1051
996,981,1051
997,981,1049
998,977,1047
999,977,1043
1000,983,1046
1001,981,1047
1002,975,1046
1003,972,1043
1004,966,1044
1005,965,1045
1006,969,1047
1007,975,1048
1008,977,1047
1009,972,1044
1010,971,1044
1011,972,1048
1012,974,1051
1013,973,1055
1014,971,1047
1015,971,1041
1016,968,1036
1017,968,1040
1018,969,1044
1019,973,1052
1020,974,1050
1021,974,1047
1022,969,1044
1023,972,1041
1024,974,1045
1025,979,1046
1026,980,1050
1027,979,1045
1028,981,1043
1029,984,1045
1030,982,1048
1031,983,1051
1032,987,1049
1033,988,1048
1034,989,1045
1035,990,1049
1036,993,1047
1037,995,1046
1038,994,1045
1039,988,1043
1040,983,1040
1041,982,1039
1042,984,1042
1043,981,1039
1044,976,1034
1045,970,1035
1046,970,1033
1047,972,1035
1048,977,1039
1049,984,1044
1050,985,1041
1051,983,1041
1052,979,1039
1053,974,1038
1054,973,1039
1055,978,1040
1056,977,1042
1057,973,1037
1058,965,1036
1059,963,1037
1060,964,1043
1061,967,1042
1062,968,1043
1063,970,1040
1064,966,1039
1065,967,1039
1066,967,1041
1067,969,1043
1068,968,1044
1069,970,1044
1070,971,1043
1071,974,1046
1072,975,1047
1073,975,1051
1074,974,1046
1075,969,1039
1076,964,1035
1077,962,1036
1078,964,1035
1079,968,1038
1080,969,1037
1081,971,1039
1082,968,1035
1083,967,1039
1084,972,1042
1085,975,1040
1086,969,1042
1087,966,1041
1088,963,1045
1089,963,1047
1090,970,1052
1091,983,1053
1092,1002,1045
1093,1026,1036
1094,1046,1026
1095,1066,1018
1096,1095,1013
1097,1123,1001
1098,1142,991
1099,1150,975
1100,1146,968
1101,1122,967
1102,1092,973
1103,1047,979
1104,983,987
1105,918,996
1106,866,1002
1107,848,1009
1108,857,1018
1109,880,1033
1110,902,1034
1111,917,1038
1112,927,1041
1113,938,1045
1114,952,1048
1115,964,1047
1116,967,1041
1117,969,1034
1118,968,1034
1119,970,1037
1120,975,1041
1121,980,1044
1122,981,1042
1123,978,1039
1124,978,1037
1125,977,1040
1126,981,1045
1127,986,1044
1128,988,1040
1129,989,1040
1130,985,1038
1131,986,1044
1132,990,1047
1133,997,1045
1134,998,1044
1135,994,1039
1136,995,1039
1137,996,1040
1138,1002,1043
1139,1009,1043
1140,1011,1042
1141,1012,1040
1142,1013,1038
1143,1016,1039
1144,1019,1040
1145,1027,1044
1146,1031,1044
1147,1030,1040
1148,1027,1038
1149,1034,1038
1150,1039,1040
1151,1042,1038
1152,1045,1035
1153,1047,1033
1154,1045,1034
1155,1050,1035
1156,1055,1038
1157,1059,1042
1158,1059,1037
1159,1057,1031
1160,1054,1031
1161,1054,1033
1162,1060,1039
1163,1063,1040
1164,1065,1037
1165,1065,1033
1166,1061,1033
1167,1061,1037
1168,1057,1038
1169,1059,1042
1170,1059,1039
1171,1052,1036
1172,1050,1036
1173,1048,1041
1174,1048,1046
1175,1046,1047
1176,1037,1045
1177,1027,1046
1178,1023,1045
1179,1018,1046
1180,1017,1051
1181,1014,1052
1182,1013,1050
1183,1004,1047
1184,997,1046
1185,994,1053
1186,997,1057
1187,1000,1058
1188,996,1057
1189,992,1055
1190,988,1048
1191,987,1046
1192,989,1052
1193,989,1053
1194,988,1051
1195,984,1050
1196,981,1049
1197,982,1050
1198,984,1054
1199,986,1053
1200,985,1052
1201,981,1049
1202,978,1048
1203,975,1051
1204,975,1057
1205,980,1055
1206,984,1055
1207,985,1047
1208,985,1048
1209,981,1053
1210,976,1056
1211,977,1056
1212,978,1055
1213,979,1054
1214,980,1053
1215,981,1055
1216,985,1061
1217,987,1059
1218,984,1061
1219,987,1056
1220,984,1056
1221,983,1057
1222,987,1063
1223,994,1062
1224,995,1060
1225,992,1055
1226,992,1055
1227,993,1057
1228,995,1059
1229,999,1060
1230,998,1056
1231,992,1049
1232,989,1049
1233,989,1051
1234,991,1055
1235,990,1056
1236,989,1051
1237,986,1047
1238,983,1044
1239,979,1046
1240,980,1048
1241,981,1053
1242,981,1053
1243,981,1050
1244,983,1052
1245,980,1053
1246,979,1056
1247,979,1056
1248,976,1055
1249,975,1051
1250,973,1052
1251,971,1053
1252,974,1056
1253,978,1057
1254,977,1055
1255,974,1056
1256,972,1052
1257,974,1056
1258,974,1058
1259,977,1060
1260,977,1055
1261,976,1050
1262,974,1051
1263,973,1055
1264,976,1057
1265,976,1060
1266,977,1060
1267,975,1055
1268,974,1053
1269,974,1054
1270,978,1057
1271,979,1055
1272,978,1055
1273,978,1054
1274,976,1053
1275,974,1055
1276,978,1056
1277,983,1057
1278,983,1054
1279,983,1049
1280,976,1052
1281,972,1055
1282,968,1060
1283,971,1060
1284,971,1061
1285,971,1060
1286,978,1062
1287,1001,1055
1288,1031,1056
1289,1061,1049
1290,1086,1042
1291,1106,1033
1292,1128,1020
1293,1150,1008
1294,1170,999
1295,1183,988
1296,1174,979
1297,1149,975
1298,1120,975
1299,1081,976
1300,1022,986
1301,965,994
1302,912,998
1303,872,1001
1304,856,1007
1305,859,1023
1306,882,1043
1307,901,1053
1308,915,1053
1309,928,1051
1310,940,1051
1311,952,1055
1312,962,1056
1313,970,1055
1314,974,1057
1315,977,1053
1316,973,1051
1317,975,1054
1318,977,1057
1319,984,1058
1320,985,1058
1321,984,1057
1322,981,1053
1323,981,1055
1324,987,1056
1325,990,1055
1326,991,1055
1327,987,1052
1328,978,1051
1329,983,1057
1330,986,1058
1331,993,1056
1332,998,1053
1333,998,1047
1334,1001,1045
1335,1002,1050
1336,1004,1055
1337,1006,1056
1338,1011,1051
1339,1012,1047
1340,1014,1044
1341,1016,1045
1342,1018,1047
1343,1022,1052
1344,1024,1049
1345,1030,1046
1346,1033,1042
1347,1035,1044
1348,1042,1045
1349,1042,1047
1350,1040,1045
1351,1040,1041
1352,1040,1041
1353,1043,1044
1354,1045,1048
1355,1052,1047
1356,1054,1044
1357,1059,1034
1358,1059,1033
1359,1061,1036
1360,1063,1039
1361,1068,1044
1362,1067,1042
1363,1066,1040
1364,1065,1035
1365,1063,1036
1366,1063,1044
1367,1063,1044
1368,1059,1043
1369,1056,1039
1370,1053,1040
1371,1043,1043
1372,1040,1052
1373,1036,1058
1374,1028,1054
1375,1025,1047
1376,1023,1040
1377,1016,1044
1378,1014,1050
1379,1011,1056
1380,1002,1053
1381,998,1051
1382,991,1050
1383,989,1051
1384,987,1053
1385,988,1051
1386,988,1053
1387,984,1052
1388,978,1050
1389,974,1051
1390,971,1056
1391,976,1056
1392,977,1053
1393,974,1050
1394,971,1044
1395,973,1051
1396,975,1056
1397,977,1055
1398,975,1052
1399,972,1049
1400,970,1047
1401,969,1052
1402,970,1057
1403,971,1055
1404,969,1056
1405,967,1050
1406,966,1050
1407,970,1052
1408,975,1054
1409,979,1055
1410,977,1057
1411,972,1053
1412,969,1055
1413,970,1060
1414,974,1061
1415,978,1061
1416,980,1057
1417,980,1054
1418,981,1056
1419,986,1057
1420,993,1059
1421,995,1060
1422,990,1059
1423,985,1055
1424,983,1053
1425,982,1056
1426,981,1054
1427,981,1050
1428,980,1048
1429,977,1044
1430,974,1043
1431,969,1049
1432,970,1048
1433,972,1051
1434,971,1048
1435,971,1047
1436,968,1050
1437,966,1053
1438,966,1053
1439,965,1052
1440,963,1051
1441,963,1048
1442,960,1046
1443,960,1047
1444,967,1051
1445,970,1053
1446,965,1053
1447,960,1049
1448,952,1049
1449,953,1052
1450,959,1054
1451,966,1055
1452,966,1051
1453,961,1050
1454,958,1046
1455,957,1051
1456,961,1049
1457,967,1055
1458,969,1050
1459,965,1051
1460,964,1048
1461,961,1051
1462,963,1054
1463,967,1055
1464,967,1051
1465,964,1047
1466,965,1047
1467,964,1045
1468,968,1049
1469,971,1047
1470,965,1046
1471,960,1047
1472,955,1052
1473,957,1055
1474,969,1060
1475,988,1056
1476,1015,1045
1477,1043,1032
1478,1071,1024
1479,1098,1015
1480,1127,1007
1481,1150,997
1482,1162,983
1483,1161,966
1484,1136,959
1485,1108,960
1486,1070,966
1487,1016,976
1488,948,982
1489,888,989
1490,845,995
1491,836,1011
1492,856,1033
1493,887,1044
1494,907,1051
1495,919,1050
1496,928,1048
1497,939,1050
1498,955,1053
1499,967,1054
1500,970,1051
1501,966,1048
1502,963,1044
1503,962,1045
1504,966,1052
1505,973,1053
1506,975,1046
1507,978,1041
1508,980,1041
1509,983,1044
1510,985,1050
1511,983,1052
1512,979,1048
1513,979,1047
1514,979,1047
1515,979,1044
1516,983,1048
1517,990,1050
1518,992,1046
1519,998,1043
1520,1001,1041
1521,1001,1040
1522,1002,1042
1523,1004,1046
1524,1005,1044
1525,1005,1043
1526,1009,1040
1527,1013,1035
1528,1018,1038
1529,1020,1039
1530,1024,1038
1531,1024,1037
1532,1026,1036
1533,1032,1038
1534,1040,1035
1535,1044,1036
1536,1043,1032
1537,1048,1032
1538,1048,1030
1539,1054,1032
1540,1057,1035
1541,1060,1035
1542,1058,1032
1543,1055,1029
1544,1049,1028
1545,1050,1027
1546,1051,1033
1547,1053,1036
1548,1055,1031
1549,1054,1027
1550,1051,1027
1551,1043,1033
1552,1043,1040
1553,1044,1042
1554,1037,1040
1555,1030,1036
1556,1024,1032
1557,1023,1036
1558,1022,1041
1559,1019,1040
1560,1013,1043
1561,1010,1039
1562,1006,1040
1563,1002,1042
1564,999,1045
1565,995,1044
1566,990,1045
1567,985,1043
1568,979,1042
1569,979,1044
1570,974,1047
1571,977,1051
1572,978,1046
1573,984,1042
1574,982,1040
1575,976,1043
1576,968,1044
1577,970,1045
1578,976,1045
1579,980,1042
1580,980,1038
1581,978,1044
1582,970,1050
1583,963,1057
1584,958,1061
1585,957,1057
1586,960,1050
1587,964,1042
1588,968,1043
1589,964,1041
1590,961,1038
1591,959,1038
1592,957,1037
1593,961,1041
1594,968,1045
1595,972,1048
1596,974,1048
1597,972,1044
1598,970,1047
1599,969,1048
1600,975,1050
1601,978,1050
1602,979,1048
1603,983,1044
1604,984,1046
1605,985,1048
1606,988,1050
1607,987,1051
1608,982,1045
1609,978,1042
1610,973,1038
1611,974,1040
1612,977,1045
1613,980,1045
1614,976,1044
1615,967,1043
1616,961,1040
1617,958,1044
1618,959,1045
1619,963,1043
1620,962,1043
1621,961,1039
1622,963,1040
1623,960,1041
1624,958,1045
1625,959,1048
1626,959,1044
1627,957,1044
1628,957,1043
1629,958,1039
1630,960,1043
1631,963,1045
1632,963,1042
1633,962,1039
1634,958,1042
1635,958,1041
1636,962,1043
1637,964,1042
1638,959,1043
1639,957,1045
1640,957,1046
1641,955,1045
1642,955,1048
1643,955,1050
1644,955,1047
1645,955,1046
1646,954,1046
1647,954,1046
1648,955,1047
1649,961,1046
1650,960,1045
1651,960,1043
1652,958,1043
1653,961,1048
1654,964,1046
1655,969,1047
1656,966,1046
1657,960,1043
1658,955,1046
1659,949,1052
1660,950,1057
1661,959,1058
1662,975,1058
1663,998,1043
1664,1021,1032
1665,1048,1024
1666,1083,1015
1667,1116,1005
1668,1137,991
1669,1149,977
1670,1150,963
1671,1132,956
1672,1103,962
1673,1065,966
1674,1010,973
1675,938,983
1676,879,989
1677,841,999
1678,830,1011
1679,846,1028
1680,872,1036
1681,888,1042
1682,901,1045
1683,916,1048
1684,933,1051
1685,950,1050
1686,956,1045
1687,957,1039
1688,956,1040
1689,956,1043
1690,961,1048
1691,967,1050
1692,967,1051
1693,967,1048
1694,968,1047
1695,969,1051
1696,975,1049
1697,976,1048
1698,976,1044
1699,976,1038
1700,975,1039
1701,978,1041
1702,981,1044
1703,986,1041
1704,985,1045
1705,986,1043
1706,984,1045
1707,987,1044
1708,991,1046
1709,997,1043
1710,1001,1042
1711,1004,1035
1712,1000,1039
1713,999,1040
1714,1004,1044
1715,1012,1041
1716,1013,1035
1717,1016,1031
1718,1018,1035
1719,1020,1036
1720,1029,1034
1721,1037,1033
1722,1042,1033
1723,1038,1033
1724,1038,1029
1725,1040,1030
1726,1045,1031
1727,1051,1029
1728,1053,1030
1729,1047,1027
1730,1048,1029
1731,1047,1033
1732,1048,1034
1733,1053,1035
1734,1054,1031
1735,1053,1028
1736,1048,1031
1737,1047,1035
1738,1049,1037
1739,1049,1039
1740,1047,1037
1741,1039,1035
1742,1034,1031
1743,1029,1033
1744,1026,1038
1745,1026,1042
1746,1022,1041
1747,1016,1039
1748,1009,1038
1749,1004,1044
1750,998,1050
1751,993,1048
1752,991,1040
1753,987,1040
1754,983,1046
1755,981,1049
1756,979,1048
1757,978,1047
1758,979,1046
1759,975,1047
1760,968,1049
1761,967,1048
1762,969,1049
1763,974,1047
1764,974,1048
1765,972,1043
1766,965,1046
1767,966,1048
1768,968,1051
1769,969,1053
1770,970,1052
1771,967,1044
1772,964,1042
1773,965,1044
1774,968,1046
1775,972,1050
1776,972,1047
1777,971,1044
1778,970,1044
1779,971,1048
1780,974,1053
1781,974,1052
1782,972,1049
1783,963,1046
1784,959,1051
1785,961,1055
1786,970,1060
1787,978,1058
1788,978,1055
1789,978,1055
1790,982,1051
1791,982,1052
1792,987,1055
1793,994,1054
1794,994,1049
1795,990,1045
1796,983,1046
1797,976,1048
1798,973,1049
1799,976,1047
1800,974,1043
1801,971,1043
1802,960,1047
1803,956,1050
1804,958,1052
1805,962,1051
1806,964,1049
1807,966,1041
1808,965,1043
1809,961,1046
1810,961,1051
1811,957,1049
1812,961,1051
1813,957,1052
1814,956,1050
1815,954,1050
1816,953,1051
1817,954,1052
1818,956,1049
1819,953,1044
1820,949,1049
1821,955,1048
1822,956,1048
1823,959,1046
1824,958,1045
1825,958,1040
1826,953,1041
1827,952,1043
1828,955,1048
1829,958,1047
1830,959,1048
1831,959,1044
1832,959,1046
1833,962,1045
1834,962,1047
1835,963,1051
1836,962,1047
1837,959,1045
1838,953,1048
1839,951,1050
1840,953,1053
1841,958,1050
1842,960,1046
1843,957,1044
1844,952,1051
1845,949,1054
1846,950,1061
1847,963,1061
1848,978,1056
1849,997,1044
1850,1018,1033
1851,1043,1021
1852,1070,1016
1853,1096,1004
1854,1109,992
1855,1122,983
1856,1128,973
1857,1117,973
1858,1098,976
1859,1062,982
1860,1001,985
1861,930,994
1862,869,998
1863,832,1008
1864,828,1023
1865,846,1038
1866,869,1049
1867,891,1045
1868,911,1045
1869,934,1047
1870,946,1047
1871,950,1048
1872,952,1042
1873,951,1041
1874,955,1038
1875,958,1040
1876,960,1049
1877,963,1051
1878,966,1047
1879,965,1040
1880,965,1037
1881,966,1044
1882,967,1047
1883,972,1045
1884,973,1045
1885,974,1044
1886,972,1043
1887,972,1045
1888,977,1046
1889,982,1045
1890,982,1043
1891,981,1041
1892,979,1038
1893,983,1038
1894,990,1041
1895,997,1039
1896,1001,1036
1897,1000,1033
1898,1000,1033
1899,1000,1037
1900,1006,1041
1901,1013,1036
1902,1016,1032
1903,1017,1031
1904,1014,1031
1905,1015,1041
1906,1019,1042
1907,1027,1042
1908,1033,1038
1909,1034,1038
1910,1034,1031
1911,1037,1029
1912,1042,1030
1913,1050,1030
1914,1051,1026
1915,1047,1028
1916,1041,1025
1917,1041,1030
1918,1045,1031
1919,1047,1031
1920,1047,1026
1921,1043,1025
1922,1038,1023
1923,1035,1029
1924,1038,1030
1925,1040,1031
1926,1039,1032
1927,1034,1031
1928,1029,1031
1929,1029,1036
1930,1027,1042
1931,1026,1041
1932,1021,1040
1933,1014,1038
1934,1008,1038
1935,1009,1036
1936,1010,1036
1937,1003,1039
1938,985,1041
1939,965,1045
1940,961,1045
1941,966,1049
1942,969,1048
1943,971,1052
1944,970,1051
1945,970,1048
1946,967,1045
1947,965,1044
1948,963,1046
1949,964,1047
1950,964,1048
1951,961,1047
1952,960,1046
1953,960,1050
1954,961,1051
1955,968,1054
1956,971,1052
1957,974,1046
1958,968,1039
1959,959,1039
1960,955,1046
1961,956,1049
1962,955,1051
1963,956,1047
1964,953,1045
1965,957,1047
1966,963,1047
1967,966,1050
1968,965,1047
1969,965,1048
1970,965,1051
1971,968,1054
1972,972,1057
1973,971,1056
1974,967,1054
1975,965,1053
1976,964,1052
1977,968,1053
1978,976,1057
1979,981,1058
1980,979,1055
1981,980,1051
1982,977,1046
1983,977,1048
1984,977,1044
1985,976,1043
1986,973,1041
1987,971,1037
1988,965,1038
1989,964,1036
1990,964,1038
1991,966,1040
1992,969,1041
1993,968,1038
1994,969,1038
1995,967,1042
1996,963,1046
1997,960,1052
1998,958,1049
1999,955,1042
2000,956,1038
2001,954,1040
2002,956,1048
2003,959,1049
2004,959,1045
2005,956,1039
2006,955,1039
2007,957,1041
2008,961,1046
2009,963,1046
2010,963,1043
2011,959,1044
2012,953,1042
2013,957,1044
2014,960,1046
2015,965,1042
2016,965,1046
2017,957,1043
2018,951,1040
2019,950,1045
2020,954,1053
2021,957,1052
2022,957,1047
2023,960,1040
2024,953,1036
2025,953,1042
2026,956,1044
2027,959,1046
2028,957,1042
2029,955,1040
2030,956,1040
2031,958,1045
2032,957,1044
2033,955,1048
2034,953,1047
2035,955,1046
2036,972,1045
2037,997,1040
2038,1025,1034
2039,1060,1019
2040,1089,1006
2041,1118,986
2042,1132,980
2043,1134,973
2044,1116,972
2045,1092,973
2046,1053,976
2047,998,978
2048,935,988
2049,876,999
2050,840,1010
2051,834,1017
2052,851,1027
2053,873,1037
2054,889,1041
2055,905,1044
2056,921,1044
2057,937,1045
2058,941,1046
2059,944,1045
2060,947,1043
2061,951,1042
2062,953,1045
2063,961,1045
2064,962,1043
2065,963,1039
2066,963,1037
2067,964,1044
2068,966,1047
2069,969,1049
2070,972,1045
2071,972,1037
2072,973,1038
2073,973,1039
2074,979,1039
2075,982,1038
2076,979,1036
2077,975,1034
2078,974,1034
2079,977,1043
2080,979,1042
2081,985,1043
2082,986,1039
2083,987,1037
2084,990,1039
2085,994,1040
2086,999,1044
2087,1004,1040
2088,1008,1033
2089,1011,1033
2090,1012,1033
2091,1017,1035
2092,1024,1035
2093,1030,1034
2094,1034,1028
2095,1037,1029
2096,1038,1027
2097,1041,1028
2098,1047,1032
2099,1051,1027
2100,1050,1022
2101,1046,1021
2102,1040,1024
2103,1036,1025
2104,1039,1034
2105,1042,1033
2106,1042,1032
2107,1043,1032
2108,1041,1035
2109,1038,1041
2110,1040,1041
2111,1038,1032
2112,1036,1025
2113,1030,1027
2114,1022,1030
2115,1017,1032
2116,1016,1037
2117,1015,1039
2118,1009,1042
2119,1001,1037
2120,992,1038
2121,987,1039
2122,987,1042
2123,985,1044
2124,984,1041
2125,983,1039
2126,981,1034
2127,976,1038
2128,976,1042
2129,976,1043
2130,973,1042
2131,970,1039
2132,966,1040
2133,969,1042
2134,968,1047
2135,969,1050
2136,968,1048
2137,968,1042
2138,962,1039
2139,954,1047
2140,951,1048
2141,958,1047
2142,962,1040
2143,962,1035
2144,957,1036
2145,959,1043
2146,959,1048
2147,960,1047
2148,958,1041
2149,955,1041
2150,954,1043
2151,959,1045
2152,964,1048
2153,970,1048
2154,969,1050
2155,967,1051
2156,962,1045
2157,969,1047
2158,975,1053
2159,977,1050
2160,977,1049
2161,978,1040
2162,982,1039
2163,984,1042
2164,981,1042
2165,976,1041
2166,967,1039
2167,965,1035
2168,966,1032
2169,968,1035
2170,970,1037
2171,974,1039
2172,970,1037
2173,963,1035
2174,973,1040
2175,977,1043
2176,977,1043
2177,964,1044
2178,951,1035
2179,945,1033
2180,941,1039
2181,937,1043
2182,939,1047
2183,947,1049
2184,951,1044
2185,950,1038
2186,947,1040
2187,950,1046
2188,954,1046
2189,956,1038
2190,959,1034
2191,960,1030
2192,960,1033
2193,962,1036
2194,965,1041
2195,966,1045
2196,959,1043
2197,952,1043
2198,951,1039
2199,955,1040
2200,952,1045
2201,951,1051
2202,948,1053
2203,946,1047
2204,946,1038
2205,947,1036
2206,953,1037
2207,955,1044
2208,951,1046
2209,946,1039
2210,948,1036
2211,949,1035
2212,948,1040
2213,952,1047
2214,956,1050
2215,966,1040
2216,990,1028
2217,1020,1019
2218,1053,1012
2219,1086,1008
2220,1115,996
2221,1137,982
2222,1151,965
2223,1153,957
2224,1137,954
2225,1106,955
2226,1064,955
2227,1004,957
2228,935,968
2229,870,981
2230,832,996
2231,835,1013
2232,858,1028
2233,883,1039
2234,903,1044
2235,923,1047
2236,937,1044
2237,945,1037
2238,952,1028
2239,951,1028
2240,954,1031
2241,959,1033
2242,966,1038
2243,962,1040
2244,956,1042
2245,951,1040
2246,952,1041
2247,955,1042
2248,956,1040
2249,959,1040
2250,962,1036
2251,968,1027
2252,972,1020
2253,973,1024
2254,971,1027
2255,973,1031
2256,968,1029
2257,966,1030
2258,969,1034
2259,975,1041
2260,975,1036
2261,980,1033
2262,984,1028
2263,992,1028
2264,998,1028
2265,1000,1027
2266,1002,1030
2267,1007,1032
2268,1010,1030
2269,1014,1022
2270,1011,1020
2271,1015,1024
2272,1018,1031
2273,1028,1031
2274,1032,1029
2275,1031,1022
2276,1029,1016
2277,1035,1017
2278,1040,1027
2279,1041,1027
2280,1035,1022
2281,1024,1018
2282,1023,1018
2283,1030,1026
2284,1034,1034
2285,1034,1030
2286,1039,1021
2287,1042,1015
2288,1036,1018
2289,1029,1024
2290,1027,1031
2291,1030,1033
2292,1026,1026
2293,1018,1025
2294,1005,1026
2295,1002,1027
2296,1002,1036
2297,1002,1034
2298,999,1028
2299,993,1025
2300,990,1028
2301,981,1038
2302,979,1040
2303,973,1036
2304,969,1031
2305,964,1029
2306,962,1027
2307,962,1032
2308,961,1040
2309,962,1041
2310,957,1041
2311,950,1035
2312,949,1029
2313,954,1031
2314,957,1034
2315,957,1036
2316,952,1034
2317,946,1036
2318,941,1037
2319,945,1039
2320,947,1040
2321,955,1037
2322,948,1029
2323,946,1030
2324,943,1034
2325,945,1042
2326,946,1041
2327,956,1036
2328,952,1032
2329,952,1029
2330,951,1031
2331,955,1038
2332,957,1040
2333,960,1037
2334,959,1035
2335,960,1033
2336,962,1037
2337,964,1046
2338,965,1051
2339,963,1052
2340,961,1043
2341,961,1038
2342,965,1034
2343,968,1033
2344,972,1037
2345,977,1037
2346,976,1034
2347,973,1028
2348,970,1024
2349,966,1024
2350,964,1028
2351,966,1028
2352,964,1026
2353,965,1027
2354,957,1026
2355,959,1027
2356,961,1033
2357,960,1031
2358,957,1033
2359,957,1035
2360,957,1042
2361,957,1040
2362,958,1037
2363,959,1028
2364,958,1022
2365,952,1022
2366,944,1025
2367,942,1034
2368,944,1038
2369,950,1037
2370,948,1035
2371,945,1036
2372,939,1035
2373,946,1032
2374,947,1033
2375,952,1037
2376,954,1040
2377,956,1039
2378,953,1037
2379,948,1039
2380,947,1038
2381,947,1040
2382,946,1040
2383,947,1035
2384,948,1027
2385,950,1028
2386,955,1035
2387,955,1038
2388,949,1036
2389,948,1031
2390,945,1025
2391,951,1029
2392,954,1031
2393,957,1035
2394,955,1032
2395,950,1031
2396,945,1031
2397,944,1034
2398,950,1039
2399,961,1037
2400,970,1037
2401,984,1030
2402,1008,1021
2403,1036,1014
2404,1069,1009
2405,1101,999
2406,1133,988
2407,1149,968
2408,1147,955
2409,1124,948
2410,1097,954
2411,1064,958
2412,1013,960
2413,941,959
2414,872,969
2415,828,990
2416,827,1008
2417,853,1022
2418,883,1025
2419,903,1027
2420,911,1030
2421,918,1038
2422,927,1038
2423,941,1029
2424,953,1025
2425,957,1019
2426,959,1020
2427,957,1021
2428,960,1025
2429,960,1027
2430,965,1023
2431,965,1027
2432,967,1026
2433,967,1030
2434,967,1031
2435,971,1030
2436,972,1025
2437,972,1024
2438,967,1024
2439,969,1027
2440,971,1031
2441,976,1030
2442,977,1030
2443,975,1027
2444,974,1026
2445,974,1027
2446,979,1033
2447,983,1032
2448,988,1025
2449,986,1022
2450,988,1023
2451,996,1024
2452,1006,1026
2453,1012,1023
2454,1012,1023
2455,1011,1021
2456,1012,1022
2457,1020,1022
2458,1027,1022
2459,1031,1022
2460,1031,1017
2461,1030,1014
2462,1029,1014
2463,1033,1017
2464,1041,1024
2465,1044,1024
2466,1046,1020
2467,1041,1015
2468,1040,1014
2469,1041,1015
2470,1046,1022
2471,1049,1023
2472,1050,1021
2473,1045,1017
2474,1039,1016
2475,1038,1020
2476,1038,1021
2477,1038,1019
2478,1032,1024
2479,1026,1024
2480,1022,1027
2481,1019,1033
2482,1017,1042
2483,1014,1043
2484,1005,1044
2485,1000,1037
2486,1000,1033
2487,1000,1035
2488,1000,1033
2489,989,1030
2490,974,1031
2491,966,1028
2492,964,1033
2493,968,1036
2494,971,1035
2495,974,1035
2496,970,1033
2497,965,1031
2498,963,1029
2499,962,1033
2500,967,1040
2501,969,1042
2502,968,1041
2503,968,1034
2504,963,1030
2505,960,1031
2506,960,1033
2507,961,1035
2508,966,1031
2509,963,1028
2510,962,1026
2511,959,1034
2512,959,1038
2513,961,1034
2514,959,1033
2515,956,1032
2516,956,1033
2517,959,1034
2518,963,1039
2519,971,1040
2520,971,1037
2521,968,1039
2522,965,1039
2523,969,1040
2524,971,1043
2525,973,1047
2526,973,1047
2527,972,1042
2528,972,1036
2529,973,1035
2530,981,1036
2531,986,1042
2532,986,1037
2533,979,1033
2534,974,1030
2535,973,1031
2536,974,1035
2537,974,1031
2538,969,1026
2539,963,1019
2540,958,1022
2541,958,1023
2542,961,1027
2543,965,1026
2544,967,1027
2545,968,1022
2546,967,1025
2547,962,1027
2548,958,1033
2549,956,1035
2550,957,1037
2551,952,1030
2552,956,1029
2553,959,1027
2554,961,1024
2555,965,1023
2556,965,1024
2557,956,1027
2558,954,1030
2559,955,1033
2560,960,1036
2561,961,1032
2562,964,1029
2563,961,1027
2564,959,1029
2565,959,1036
2566,961,1036
2567,961,1036
2568,957,1030
2569,955,1030
2570,955,1029
2571,955,1031
2572,958,1035
2573,964,1034
2574,963,1030
2575,964,1028
2576,962,1027
2577,960,1031
2578,962,1036
2579,961,1034
2580,965,1029
2581,965,1025
2582,963,1031
2583,959,1032
2584,960,1039
2585,961,1040
2586,961,1040
2587,966,1039
2588,975,1036
2589,997,1038
2590,1026,1031
2591,1055,1017
2592,1086,994
2593,1112,979
2594,1131,971
2595,1141,961
2596,1136,954
2597,1111,954
2598,1078,959
2599,1018,967
2600,945,973
2601,880,977
2602,841,987
2603,835,999
2604,856,1010
2605,877,1018
2606,895,1024
2607,909,1026
2608,925,1029
2609,941,1032
2610,953,1031
2611,958,1026
2612,960,1021
2613,964,1021
2614,969,1025
2615,972,1028
2616,972,1026
2617,971,1026
2618,968,1026
2619,973,1030
2620,975,1032
2621,979,1035
2622,978,1032
2623,978,1028
2624,978,1028
2625,977,1031
2626,982,1031
2627,983,1030
2628,984,1022
2629,984,1023
2630,986,1027
2631,988,1028
2632,992,1027
2633,1000,1022
2634,999,1019
2635,1001,1020
2636,1002,1022
2637,1008,1025
2638,1014,1026
2639,1018,1022
2640,1019,1015
2641,1018,1011
2642,1020,1018
2643,1025,1019
2644,1030,1017
2645,1038,1012
2646,1040,1011
2647,1042,1007
2648,1040,1010
2649,1047,1010
2650,1050,1016
2651,1053,1013
2652,1046,1012
2653,1040,1010
2654,1045,1012
2655,1048,1012
2656,1053,1013
2657,1057,1012
2658,1058,1013
2659,1053,1010
2660,1053,1016
2661,1054,1018
2662,1054,1020
2663,1058,1020
2664,1056,1012
2665,1046,1009
2666,1043,1010
2667,1038,1019
2668,1038,1019
2669,1035,1017
2670,1031,1019
2671,1024,1016
2672,1016,1022
2673,1009,1029
2674,1008,1036
2675,1007,1035
2676,1000,1030
2677,996,1026
2678,992,1024
2679,988,1021
2680,987,1027
2681,988,1022
2682,988,1023
2683,984,1019
2684,979,1019
2685,977,1021
2686,981,1024
2687,986,1024
2688,980,1024
2689,972,1019
2690,972,1023
2691,973,1031
2692,974,1035
2693,977,1030
2694,976,1025
2695,973,1022
2696,974,1023
2697,973,1027
2698,976,1029
2699,978,1026
2700,979,1022
2701,977,1021
2702,972,1024
2703,968,1024
2704,968,1032
2705,967,1039
2706,969,1043
2707,969,1040
2708,972,1030
2709,978,1029
2710,979,1030
2711,982,1028
2712,984,1025
2713,983,1017
2714,981,1019
2715,981,1024
2716,985,1028
2717,989,1037
2718,993,1033
2719,990,1029
2720,991,1027
2721,993,1029
2722,999,1030
2723,999,1024
2724,996,1023
2725,988,1018
2726,982,1020
2727,977,1016
2728,978,1017
2729,981,1016
2730,979,1017
2731,975,1016
2732,973,1018
2733,972,1020
2734,972,1026
2735,977,1023
2736,980,1021
2737,973,1019
2738,970,1022
2739,970,1028
2740,969,1028
2741,968,1027
2742,972,1024
2743,969,1023
2744,968,1022
2745,971,1026
2746,970,1026
2747,973,1028
2748,972,1025
2749,969,1021
2750,965,1021
2751,967,1023
2752,968,1028
2753,971,1030
2754,969,1028
2755,969,1024
2756,967,1024
2757,968,1028
2758,972,1030
2759,973,1028
2760,975,1025
2761,971,1020
2762,967,1022
2763,965,1025
2764,965,1028
2765,967,1030
2766,967,1025
2767,969,1022
2768,966,1021
2769,967,1024
2770,971,1030
2771,974,1031
2772,972,1035
2773,970,1030
2774,969,1029
2775,965,1032
2776,967,1034
2777,969,1037
2778,974,1035
2779,984,1029
2780,1000,1020
2781,1022,1015
2782,1047,1009
2783,1071,1000
2784,1099,985
2785,1120,974
2786,1131,967
2787,1138,961
2788,1140,955
2789,1128,954
2790,1101,953
2791,1059,953
2792,1000,962
2793,939,977
2794,884,987
2795,856,998
2796,844,1007
2797,858,1014
2798,880,1025
2799,896,1032
2800,915,1032
2801,930,1026
2802,944,1019
2803,954,1015
2804,958,1017
2805,964,1019
2806,968,1022
2807,971,1023
2808,974,1019
2809,974,1021
2810,976,1021
2811,976,1028
2812,981,1026
2813,986,1023
2814,983,1024
2815,982,1025
2816,980,1025
2817,980,1031
2818,982,1033
2819,984,1030
2820,987,1024
2821,987,1018
2822,988,1019
2823,987,1023
2824,994,1027
2825,998,1026
2826,1001,1018
2827,999,1016
2828,998,1017
2829,999,1020
2830,1005,1023
2831,1009,1023
2832,1013,1017
2833,1015,1013
2834,1017,1012
2835,1020,1018
2836,1025,1016
2837,1031,1015
2838,1032,1014
2839,1035,1014
2840,1036,1018
2841,1038,1016
2842,1043,1015
2843,1047,1010
2844,1048,1009
2845,1047,1011
2846,1045,1014
2847,1048,1017
2848,1052,1019
2849,1058,1012
2850,1058,1008
2851,1058,1007
2852,1057,1007
2853,1062,1013
2854,1062,1015
2855,1062,1012
2856,1060,1008
2857,1056,1005
2858,1053,1007
2859,1055,1012
2860,1056,1017
2861,1052,1020
2862,1049,1024
2863,1042,1019
2864,1037,1023
2865,1033,1022
2866,1030,1023
2867,1031,1019
2868,1029,1019
2869,1023,1019
2870,1013,1020
2871,1011,1027
2872,1011,1029
2873,1001,1030
2874,998,1024
2875,992,1022
2876,990,1024
2877,990,1028
2878,992,1033
2879,992,1033
2880,989,1030
2881,982,1025
2882,980,1026
2883,979,1027
2884,980,1027
2885,980,1026
2886,979,1025
2887,975,1023
2888,975,1027
2889,978,1028
2890,979,1034
2891,980,1036
2892,978,1039
2893,976,1036
2894,973,1032
2895,976,1027
2896,977,1028
2897,979,1028
2898,974,1026
2899,973,1024
2900,974,1023
2901,976,1026
2902,979,1029
2903,982,1031
2904,981,1037
2905,980,1035
2906,979,1033
2907,981,1034
2908,985,1036
2909,988,1038
2910,988,1035
2911,987,1031
2912,982,1036
2913,983,1039
2914,985,1040
2915,987,1035
2916,993,1035
2917,995,1030
2918,995,1028
2919,997,1034
2920,997,1033
2921,1004,1035
2922,1000,1029
2923,994,1026
2924,989,1029
2925,986,1027
2926,988,1029
2927,993,1022
2928,990,1016
2929,987,1016
2930,981,1017
2931,981,1021
2932,984,1026
2933,985,1023
2934,984,1023
2935,981,1018
2936,982,1019
2937,983,1026
2938,985,1026
2939,984,1027
2940,979,1022
2941,973,1022
2942,970,1022
2943,971,1026
2944,975,1034
2945,977,1036
2946,973,1031
2947,973,1022
2948,972,1024
2949,973,1031
2950,974,1033
2951,977,1036
2952,975,1028
2953,977,1022
2954,976,1019
2955,973,1018
2956,976,1021
2957,978,1021
2958,977,1021
2959,974,1020
2960,973,1022
2961,975,1028
2962,977,1037
2963,982,1036
2964,980,1030
2965,977,1022
2966,974,1018
2967,977,1024
2968,980,1028
2969,978,1031
2970,979,1026
2971,976,1025
2972,976,1025
2973,977,1027
2974,975,1031
2975,978,1034
2976,975,1031
2977,969,1027
2978,965,1026
2979,966,1030
2980,971,1038
2981,980,1034
2982,987,1027
2983,998,1015
2984,1015,1011
2985,1035,1011
2986,1059,1012
2987,1085,1000
2988,1108,988
2989,1121,974
2990,1131,967
2991,1141,964
2992,1144,962
2993,1135,961
2994,1109,962
2995,1069,963
2996,1012,970
2997,955,975
2998,907,985
2999,872,993
3000,855,999
3001,858,1002
3002,877,1013
3003,899,1021
3004,917,1029
3005,932,1029
3006,946,1028
3007,954,1023
3008,961,1017
3009,967,1018
3010,974,1024
3011,976,1023
3012,979,1020
3013,976,1017
3014,977,1019
3015,980,1025
3016,986,1026
3017,989,1024
3018,986,1023
3019,986,1021
3020,985,1020
3021,988,1022
3022,993,1019
3023,994,1018
3024,992,1017
3025,991,1019
3026,990,1025
3027,994,1031
3028,998,1035
3029,1002,1034
3030,1003,1025
3031,1003,1014
3032,1004,1009
3033,1006,1010
3034,1009,1015
3035,1014,1016
3036,1016,1018
3037,1014,1013
3038,1018,1016
3039,1022,1017
3040,1027,1017
3041,1032,1011
3042,1034,1008
3043,1034,1009
3044,1037,1012
3045,1041,1015
3046,1047,1018
3047,1051,1011
3048,1052,1001
3049,1053,996
3050,1053,1001
3051,1056,1002
3052,1060,1006
3053,1063,1004
3054,1066,1003
3055,1064,1003
3056,1061,1003
3057,1064,1003
3058,1069,1008
3059,1070,1010
3060,1068,1008
3061,1066,1004
3062,1063,1003
3063,1063,1008
3064,1067,1009
3065,1069,1007
3066,1067,1007
3067,1063,1007
3068,1059,1010
3069,1056,1013
3070,1056,1019
3071,1051,1016
3072,1048,1014
3073,1041,1011
3074,1037,1011
3075,1034,1016
3076,1034,1017
3077,1028,1013
3078,1024,1013
3079,1016,1016
3080,1010,1018
3081,1006,1023
3082,1004,1029
3083,1006,1030
3084,1002,1028
3085,998,1021
3086,993,1018
3087,994,1021
3088,996,1027
3089,996,1023
3090,993,1015
3091,991,1014
3092,986,1019
3093,986,1023
3094,991,1025
3095,991,1021
3096,989,1019
3097,983,1017
3098,984,1021
3099,985,1022
3100,989,1024
3101,990,1020
3102,991,1018
3103,986,1019
3104,981,1020
3105,983,1026
3106,988,1022
3107,993,1021
3108,991,1020
3109,988,1019
3110,985,1020
3111,985,1025
3112,989,1026
3113,990,1026
3114,992,1024
3115,991,1017
3116,990,1014
3117,995,1023
3118,999,1028
3119,995,1025
3120,996,1021
3121,992,1018
3122,994,1023
3123,996,1026
3124,1003,1031
3125,1009,1036
3126,1010,1031
3127,1006,1026
3128,1004,1023
3129,1005,1026
3130,1006,1024
3131,1007,1018
3132,1005,1014
3133,1000,1006
3134,994,1010
3135,995,1015
3136,998,1020
3137,996,1019
3138,996,1018
3139,993,1018
3140,989,1020
3141,988,1027
3142,991,1030
3143,994,1025
3144,994,1015
3145,994,1008
3146,992,1012
3147,987,1018
3148,992,1022
3149,994,1022
3150,993,1019
3151,992,1012
3152,987,1013
3153,990,1014
3154,989,1021
3155,993,1021
3156,992,1018
3157,988,1012
3158,988,1010
3159,989,1011
3160,992,1014
3161,998,1016
3162,995,1012
3163,991,1013
3164,991,1017
3165,994,1023
3166,996,1023
3167,996,1026
3168,995,1019
3169,993,1012
3170,989,1011
3171,992,1006
3172,995,1013
3173,998,1016
3174,997,1015
3175,993,1017
3176,992,1015
3177,994,1018
3178,998,1017
3179,999,1014
3180,996,1011
3181,994,1012
3182,990,1014
3183,992,1015
3184,998,1019
3185,997,1021
3186,992,1016
3187,986,1020
3188,980,1026
3189,986,1037
3190,1003,1039
3191,1028,1033
3192,1056,1017
3193,1080,995
3194,1106,985
3195,1135,980
3196,1163,981
3197,1183,974
3198,1199,958
3199,1209,940
3200,1209,930
3201,1197,926
3202,1175,931
3203,1143,929
3204,1087,933
3205,1022,941
3206,961,950
3207,913,960
3208,884,975
3209,878,987
3210,888,1003
3211,902,1012
3212,919,1018
3213,938,1021
3214,958,1023
3215,973,1017
3216,979,1014
3217,983,1014
3218,985,1015
3219,989,1020
3220,996,1022
3221,1000,1022
3222,1001,1021
3223,998,1019
3224,999,1019
3225,1001,1021
3226,1005,1023
3227,1006,1024
3228,1007,1021
3229,1005,1014
3230,1003,1016
3231,1004,1022
3232,1004,1031
3233,1008,1029
3234,1008,1026
3235,1008,1017
3236,1007,1013
3237,1013,1015
3238,1015,1020
3239,1019,1018
3240,1019,1011
3241,1020,1012
3242,1022,1011
3243,1023,1013
3244,1028,1018
3245,1031,1016
3246,1032,1017
3247,1031,1012
3248,1030,1010
3249,1036,1010
3250,1042,1015
3251,1046,1014
3252,1048,1011
3253,1049,1008
3254,1051,1009
3255,1055,1012
3256,1061,1016
3257,1066,1014
3258,1067,1017
3259,1064,1014
3260,1067,1012
3261,1071,1006
3262,1074,1008
3263,1080,1009
3264,1081,1004
3265,1081,999
3266,1079,997
3267,1080,999
3268,1086,1002
3269,1089,1002
3270,1089,1002
3271,1085,998
3272,1081,999
3273,1083,1004
3274,1083,1008
3275,1084,1009
3276,1081,1006
3277,1074,1003
3278,1071,1002
3279,1070,1003
3280,1066,1011
3281,1062,1017
3282,1057,1014
3283,1050,1017
3284,1044,1015
3285,1042,1016
3286,1039,1019
3287,1038,1021
3288,1032,1018
3289,1029,1019
3290,1023,1023
3291,1020,1026
3292,1021,1027
3293,1019,1027
3294,1014,1022
3295,1013,1021
3296,1010,1023
3297,1010,1021
3298,1013,1022
3299,1014,1023
3300,1011,1018
3301,1007,1017
3302,1000,1023
3303,1002,1024
3304,1003,1029
3305,1006,1027
3306,1003,1024
3307,998,1022
3308,1001,1025
3309,1000,1027
3310,1004,1035
3311,1004,1034
3312,1003,1026
3313,999,1017
3314,1000,1015
3315,1002,1022
3316,1007,1030
3317,1010,1029
3318,1010,1025
3319,1009,1023
3320,1009,1025
3321,1007,1034
3322,1010,1046
3323,1013,1042
3324,1014,1036
3325,1010,1032
3326,1009,1033
3327,1013,1033
3328,1020,1036
3329,1025,1037
3330,1025,1034
3331,1021,1030
3332,1020,1027
3333,1020,1023
3334,1016,1023
3335,1014,1020
3336,1011,1017
3337,1009,1019
3338,1003,1015
3339,1003,1023
3340,1007,1029
3341,1010,1023
3342,1008,1020
3343,1002,1016
3344,996,1017
3345,998,1023
3346,1001,1029
3347,1005,1031
3348,1002,1030
3349,995,1028
3350,989,1028
3351,986,1025
3352,985,1028
3353,987,1032
3354,988,1033
3355,988,1029
3356,986,1024
3357,988,1024
3358,994,1025
3359,997,1019
3360,997,1017
3361,994,1017
3362,990,1018
3363,988,1022
3364,992,1025
3365,993,1023
3366,992,1027
3367,988,1031
3368,982,1035
3369,983,1039
3370,988,1036
3371,992,1030
3372,993,1021
3373,991,1023
3374,993,1021
3375,993,1018
3376,994,1013
3377,993,1008
3378,993,1011
3379,988,1016
3380,990,1023
3381,991,1029
3382,994,1028
3383,997,1027
3384,992,1029
3385,986,1028
3386,986,1029
3387,986,1030
3388,990,1031
3389,991,1034
3390,993,1036
3391,997,1032
3392,1009,1027
3393,1034,1027
3394,1062,1019
3395,1087,1015
3396,1112,1005
3397,1140,990
3398,1161,975
3399,1174,964
3400,1183,953
3401,1178,945
3402,1152,943
3403,1119,938
3404,1069,933
3405,1003,946
3406,934,972
3407,881,988
3408,859,1001
3409,868,1010
3410,893,1012
3411,916,1011
3412,932,1009
3413,949,1016
3414,961,1018
3415,971,1017
3416,982,1013
3417,987,1015
3418,991,1026
3419,989,1030
3420,992,1032
3421,996,1024
3422,992,1026
3423,994,1023
3424,993,1021
3425,995,1021
3426,994,1020
3427,995,1026
3428,993,1024
3429,997,1029
3430,1002,1030
3431,1007,1030
3432,1010,1029
3433,1007,1026
3434,1010,1019
3435,1012,1011
3436,1014,1015
3437,1014,1019
3438,1010,1021
3439,1008,1017
3440,1008,1013
3441,1012,1014
3442,1020,1018
3443,1026,1019
3444,1025,1021
3445,1025,1019
3446,1026,1016
3447,1034,1018
3448,1038,1022
3449,1045,1019
3450,1046,1015
3451,1045,1009
3452,1045,1013
3453,1047,1024
3454,1050,1031
3455,1057,1020
3456,1064,1001
3457,1064,993
3458,1061,997
3459,1063,1008
3460,1067,1015
3461,1066,1012
3462,1069,1011
3463,1070,1012
3464,1069,1012
3465,1071,1009
3466,1077,1002
3467,1080,997
3468,1076,995
3469,1071,1002
3470,1068,1011
3471,1068,1018
3472,1069,1024
3473,1076,1021
3474,1074,1007
3475,1068,992
3476,1066,993
3477,1064,1003
3478,1061,1010
3479,1052,1016
3480,1044,1019
3481,1038,1016
3482,1032,1015
3483,1025,1016
3484,1027,1018
3485,1025,1016
3486,1020,1014
3487,1014,1012
3488,1011,1015
3489,1009,1021
3490,1008,1024
3491,1007,1024
3492,1006,1029
3493,996,1032
3494,988,1043
3495,988,1049
3496,992,1049
3497,998,1033
3498,1000,1017
3499,999,1008
3500,992,1009
3501,988,1017
3502,988,1024
3503,989,1031
3504,988,1032
3505,985,1029
3506,986,1028
3507,980,1030
3508,984,1034
3509,985,1030
3510,986,1019
3511,988,1012
3512,986,1013
3513,984,1016
3514,986,1022
3515,986,1017
3516,985,1017
3517,983,1016
3518,981,1021
3519,981,1022
3520,986,1028
3521,988,1026
3522,990,1019
3523,986,1020
3524,982,1023
3525,986,1028
3526,992,1027
3527,992,1022
3528,993,1023
3529,989,1025
3530,988,1028
3531,988,1034
3532,987,1036
3533,991,1034
3534,994,1027
3535,995,1018
3536,997,1017
3537,1001,1022
3538,1005,1026
3539,1003,1022
3540,1003,1025
3541,998,1026
3542,993,1022
3543,989,1020
3544,992,1018
3545,991,1012
3546,988,1010
3547,983,1010
3548,976,1011
3549,979,1012
3550,984,1017
3551,989,1023
3552,982,1025
3553,978,1023
3554,980,1023
3555,987,1024
3556,983,1031
3557,980,1030
3558,977,1021
3559,973,1012
3560,972,1011
3561,974,1017
3562,976,1020
3563,981,1018
3564,980,1015
3565,976,1014
3566,975,1019
3567,975,1018
3568,977,1020
3569,981,1017
3570,979,1018
3571,976,1020
3572,974,1020
3573,974,1023
3574,974,1031
3575,975,1033
3576,972,1030
3577,968,1021
3578,972,1010
3579,978,1008
3580,979,1015
3581,976,1026
3582,975,1023
3583,974,1020
3584,971,1016
3585,976,1020
3586,978,1025
3587,973,1023
3588,973,1021
3589,971,1017
3590,968,1015
3591,970,1016
3592,975,1025
3593,973,1029
3594,969,1032
3595,967,1030
3596,968,1032
3597,975,1032
3598,989,1030
3599,1010,1019
3600,1033,1010
3601,1053,990
3602,1079,979
3603,1105,973
3604,1130,972
3605,1148,962
3606,1160,950
3607,1156,938
3608,1133,937
3609,1096,941
3610,1047,953
3611,988,963
3612,924,967
3613,873,967
3614,846,978
3615,848,991
3616,872,1007
3617,897,1016
3618,914,1019
3619,926,1019
3620,936,1018
3621,948,1019
3622,956,1022
3623,963,1021
3624,969,1018
3625,973,1014
3626,978,1012
3627,978,1017
3628,982,1021
3629,981,1017
3630,980,1010
3631,976,1008
3632,975,1015
3633,977,1023
3634,984,1031
3635,989,1023
3636,989,1020
3637,987,1017
3638,987,1018
3639,993,1018
3640,996,1017
3641,998,1008
3642,999,1003
3643,994,1002
3644,1001,1007
3645,1007,1015
3646,1013,1018
3647,1013,1015
3648,1014,1012
3649,1017,1010
3650,1020,1013
3651,1022,1014
3652,1030,1018
3653,1030,1013
3654,1032,1009
3655,1032,1006
3656,1034,1005
3657,1040,1008
3658,1047,1013
3659,1051,1019
3660,1052,1019
3661,1053,1013
3662,1054,1008
3663,1059,1007
3664,1061,1011
3665,1064,1015
3666,1061,1015
3667,1061,1006
3668,1063,998
3669,1068,1004
3670,1070,1010
3671,1067,1008
3672,1064,1008
3673,1062,1008
3674,1058,1016
3675,1057,1022
3676,1057,1028
3677,1057,1020
3678,1056,1009
3679,1052,996
3680,1047,998
3681,1044,1009
3682,1041,1020
3683,1035,1022
3684,1030,1021
3685,1019,1018
3686,1013,1021
3687,1012,1025
3688,1016,1034
3689,1012,1029
3690,1006,1022
3691,1003,1017
3692,999,1016
3693,996,1021
3694,998,1021
3695,996,1023
3696,993,1024
3697,987,1024
3698,987,1025
3699,987,1031
3700,987,1031
3701,988,1026
3702,988,1020
3703,987,1021
3704,984,1019
3705,982,1023
3706,987,1030
3707,988,1030
3708,985,1028
3709,981,1027
3710,981,1029
3711,982,1036
3712,985,1039
3713,986,1033
3714,984,1031
3715,981,1032
3716,980,1034
3717,984,1038
3718,990,1035
3719,993,1032
3720,993,1029
3721,988,1032
3722,987,1034
3723,987,1041
3724,993,1047
3725,998,1047
3726,998,1042
3727,999,1039
3728,997,1034
3729,1001,1026
3730,1006,1020
3731,1007,1021
3732,1001,1024
3733,992,1023
3734,987,1025
3735,986,1032
3736,988,1040
3737,987,1041
3738,985,1037
3739,982,1040
3740,982,1041
3741,983,1036
3742,986,1028
3743,986,1026
3744,985,1030
3745,978,1038
3746,974,1039
3747,974,1033
3748,980,1028
3749,983,1030
3750,979,1029
3751,978,1030
3752,975,1035
3753,975,1043
3754,979,1042
3755,980,1039
3756,980,1025
3757,978,1020
3758,976,1025
3759,977,1034
3760,982,1039
3761,986,1036
3762,987,1033
3763,988,1028
3764,985,1027
3765,981,1031
3766,982,1034
3767,980,1030
3768,979,1028
3769,976,1031
3770,972,1034
3771,975,1039
3772,978,1046
3773,980,1045
3774,980,1034
3775,980,1029
3776,978,1031
3777,981,1043
3778,982,1046
3779,982,1038
3780,978,1036
3781,975,1042
3782,984,1052
3783,1005,1052
3784,1038,1038
3785,1067,1019
3786,1096,1006
3787,1123,998
3788,1147,988
3789,1166,977
3790,1179,967
3791,1174,955
3792,1146,946
3793,1106,943
3794,1049,950
3795,976,969
3796,909,985
3797,862,997
3798,848,1005
3799,862,1020
3800,889,1036
3801,915,1042
3802,936,1043
3803,953,1038
3804,964,1030
3805,972,1025
3806,972,1024
3807,976,1031
3808,984,1036
3809,985,1037
3810,986,1032
3811,985,1029
3812,985,1032
3813,989,1038
3814,993,1042
3815,995,1045
3816,993,1044
3817,990,1040
3818,992,1041
3819,994,1044
3820,1000,1049
3821,1005,1050
3822,1002,1046
3823,1002,1040
3824,1005,1037
3825,1005,1044
3826,1009,1051
3827,1013,1050
3828,1018,1041
3829,1018,1033
3830,1020,1025
3831,1027,1027
3832,1032,1031
3833,1034,1030
3834,1032,1034
3835,1032,1033
3836,1035,1034
3837,1044,1037
3838,1049,1038
3839,1054,1033
3840,1057,1027
3841,1061,1025
3842,1058,1024
3843,1059,1030
3844,1063,1030
3845,1067,1027
3846,1071,1023
3847,1070,1021
3848,1068,1025
3849,1070,1028
3850,1075,1031
3851,1078,1031
3852,1072,1032
3853,1063,1031
3854,1062,1028
3855,1067,1031
3856,1069,1031
3857,1067,1026
3858,1060,1026
3859,1053,1028
3860,1053,1031
3861,1052,1033
3862,1049,1037
3863,1043,1039
3864,1034,1039
3865,1025,1037
3866,1023,1035
3867,1021,1034
3868,1019,1038
3869,1018,1037
3870,1010,1039
3871,1002,1039
3872,999,1044
3873,1001,1049
3874,1001,1049
3875,999,1051
3876,996,1041
3877,990,1042
3878,991,1043
3879,992,1041
3880,990,1049
3881,987,1048
3882,986,1047
3883,987,1044
3884,987,1044
3885,988,1047
3886,992,1051
3887,993,1045
3888,991,1040
3889,986,1037
3890,988,1042
3891,988,1044
3892,986,1047
3893,985,1046
3894,986,1043
3895,984,1044
3896,983,1047
3897,986,1050
3898,992,1051
3899,993,1047
3900,991,1051
3901,990,1054
3902,991,1052
3903,993,1053
3904,999,1053
3905,1001,1054
3906,997,1055
3907,997,1056
3908,999,1057
3909,1004,1058
3910,1010,1060
3911,1014,1055
3912,1013,1051
3913,1006,1048
3914,1000,1046
3915,998,1047
3916,995,1052
3917,994,1049
3918,986,1041
3919,982,1037
3920,983,1036
3921,985,1045
3922,990,1045
3923,992,1043
3924,992,1042
3925,991,1041
3926,988,1039
3927,985,1039
3928,987,1043
3929,986,1045
3930,982,1039
3931,979,1034
3932,978,1036
3933,977,1041
3934,979,1048
3935,977,1047
3936,976,1046
3937,974,1037
3938,977,1042
3939,982,1046
3940,982,1049
3941,982,1044
3942,981,1038
3943,978,1038
3944,977,1042
3945,979,1047
3946,984,1053
3947,989,1051
3948,986,1047
3949,982,1039
3950,983,1037
3951,988,1042
3952,988,1043
3953,986,1051
3954,982,1052
3955,976,1046
3956,975,1038
3957,973,1033
3958,976,1040
3959,978,1043
3960,976,1044
3961,974,1044
3962,972,1044
3963,971,1057
3964,975,1065
3965,986,1058
3966,1007,1045
3967,1029,1030
3968,1055,1023
3969,1086,1009
3970,1118,1000
3971,1143,986
3972,1154,970
3973,1153,961
3974,1138,958
3975,1111,963
3976,1076,969
3977,1020,976
3978,951,991
3979,887,996
3980,850,1001
3981,847,1012
3982,874,1034
3983,902,1050
3984,921,1050
3985,933,1037
3986,946,1039
3987,964,1033
3988,976,1035
3989,979,1037
3990,980,1039
3991,980,1035
3992,982,1036
3993,986,1038
3994,989,1046
3995,992,1046
3996,988,1041
3997,987,1035
3998,986,1031
3999,989,1036
4000,994,1039
4001,1001,1040
4002,1001,1036
4003,999,1031
4004,998,1028
4005,1003,1029
4006,1006,1036
4007,1010,1039
4008,1011,1036
4009,1008,1033
4010,1009,1034
4011,1013,1042
4012,1016,1045
4013,1021,1044
4014,1023,1037
4015,1025,1030
4016,1027,1022
4017,1034,1027
4018,1040,1031
4019,1045,1029
4020,1048,1027
4021,1048,1023
4022,1050,1026
4023,1055,1023
4024,1062,1027
4025,1062,1034
4026,1059,1035
4027,1061,1026
4028,1062,1014
4029,1067,1011
4030,1073,1017
4031,1071,1023
4032,1070,1023
4033,1065,1021
4034,1065,1018
4035,1069,1019
4036,1071,1025
4037,1071,1021
4038,1064,1014
4039,1055,1021
4040,1047,1028
4041,1043,1033
4042,1043,1032
4043,1042,1034
4044,1039,1033
4045,1031,1038
4046,1026,1043
4047,1020,1041
4048,1017,1035
4049,1014,1033
4050,1008,1036
4051,1003,1040
4052,1001,1039
4053,999,1038
4054,997,1039
4055,995,1039
4056,994,1038
4057,984,1040
4058,977,1045
4059,979,1049
4060,983,1053
4061,987,1042
4062,987,1029
4063,985,1022
4064,983,1031
4065,983,1035
4066,988,1038
4067,988,1038
4068,987,1043
4069,981,1043
4070,980,1038
4071,982,1031
4072,991,1029
4073,992,1032
4074,990,1031
4075,987,1029
4076,987,1030
4077,986,1035
4078,986,1039
4079,984,1037
4080,986,1033
4081,986,1033
4082,985,1039
4083,989,1046
4084,992,1051
4085,990,1056
4086,987,1060
4087,989,1056
4088,993,1045
4089,999,1035
4090,1006,1031
4091,1002,1034
4092,1002,1040
4093,999,1041
4094,997,1043
4095,997,1039
4096,996,1035
4097,996,1031
4098,997,1019
4099,999,1009
4100,993,1004
4101,985,1013
4102,981,1022
4103,981,1028
4104,985,1030
4105,984,1028
4106,987,1021
4107,989,1019
4108,987,1020
4109,983,1020
4110,981,1023
4111,977,1018
4112,977,1017
4113,980,1019
4114,979,1021
4115,978,1024
4116,975,1020
4117,973,1019
4118,972,1019
4119,971,1027
4120,973,1029
4121,977,1026
4122,976,1024
4123,970,1018
4124,970,1012
4125,974,1010
4126,977,1019
4127,978,1027
4128,974,1027
4129,970,1022
4130,970,1017
4131,974,1013
4132,976,1014
4133,979,1018
4134,979,1015
4135,976,1008
4136,977,1002
4137,977,1010
4138,977,1014
4139,979,1008
4140,977,1005
4141,974,1001
4142,972,1007
4143,974,1010
4144,977,1016
4145,978,1021
4146,980,1024
4147,994,1018
4148,1016,1009
4149,1040,1002
4150,1065,996
4151,1091,982
4152,1112,961
4153,1126,939
4154,1133,923
4155,1129,917
4156,1114,925
4157,1089,935
4158,1038,938
4159,979,940
4160,921,954
4161,877,971
4162,858,986
4163,869,1000
4164,892,1004
4165,911,1005
4166,926,1009
4167,941,1009
4168,953,997
4169,960,992
4170,969,995
4171,970,1001
4172,975,1002
4173,978,1007
4174,981,1006
4175,979,1002
4176,978,999
4177,977,999
4178,979,1002
4179,984,1004
4180,991,1003
4181,992,998
4182,995,997
4183,991,995
4184,991,1000
4185,991,997
4186,995,1001
4187,997,1004
4188,998,1006
4189,1002,1002
4190,1002,996
4191,1008,988
4192,1011,993
4193,1014,990
4194,1014,991
4195,1015,985
4196,1015,982
4197,1024,980
4198,1031,987
4199,1038,996
4200,1037,1004
4201,1037,1004
4202,1043,999
4203,1048,983
4204,1049,978
4205,1042,982
4206,1039,984
4207,1039,983
4208,1048,982
4209,1050,980
4210,1056,978
4211,1059,982
4212,1056,983
4213,1051,983
4214,1055,983
4215,1058,984
4216,1064,984
4217,1067,979
4218,1064,979
4219,1059,975
4220,1052,978
4221,1048,981
4222,1053,986
4223,1056,986
4224,1055,979
4225,1045,976
4226,1038,972
4227,1035,977
4228,1035,985
4229,1028,990
4230,1023,987
4231,1018,983
4232,1014,984
4233,1010,993
4234,1008,1000
4235,1003,999
4236,999,992
4237,996,981
4238,997,975
4239,997,984
4240,994,1000
4241,991,1010
4242,989,1001
4243,988,981
4244,987,976
4245,988,980
4246,989,986
4247,990,986
4248,989,981
4249,985,979
4250,982,983
4251,982,984
4252,981,986
4253,981,985
4254,980,984
4255,980,991
4256,977,1001
4257,983,1014
4258,986,1009
4259,987,996
4260,983,985
4261,978,976
4262,979,975
4263,983,979
4264,982,985
4265,986,987
4266,984,990
4267,984,989
4268,984,987
4269,986,990
4270,988,996
4271,984,993
4272,983,992
4273,982,993
4274,988,994
4275,992,996
4276,998,1000
4277,997,1000
4278,994,1002
4279,993,1001
4280,996,996
4281,999,987
4282,1006,982
4283,1007,977
4284,1003,970
4285,996,969
4286,994,973
4287,993,975
4288,992,977
4289,990,978
4290,990,973
4291,989,977
4292,992,986
4293,994,996
4294,996,1002
4295,993,1000
4296,988,994
4297,984,989
4298,983,981
4299,987,972
4300,990,971
4301,989,974
4302,983,969
4303,983,973
4304,985,977
4305,984,984
4306,985,992
4307,989,990
4308,987,993
4309,984,990
4310,983,992
4311,982,993
4312,983,997
4313,986,991
4314,987,983
4315,984,973
4316,980,972
4317,982,980
4318,985,987
4319,988,997
4320,987,998
4321,983,996
4322,979,987
4323,985,975
4324,991,970
4325,993,969
4326,990,970
4327,985,974
4328,982,986
4329,980,1004
4330,977,1014
4331,978,1010
4332,988,992
4333,1005,974
4334,1028,971
4335,1058,970
4336,1085,967
4337,1116,952
4338,1141,934
4339,1157,918
4340,1165,914
4341,1157,911
4342,1134,916
4343,1095,913
4344,1031,920
4345,960,927
4346,902,935
4347,866,945
4348,870,962
4349,893,981
4350,918,990
4351,934,985
4352,948,983
4353,963,984
4354,974,995
4355,979,999
4356,979,995
4357,978,989
4358,979,988
4359,984,989
4360,990,987
4361,996,971
4362,998,960
4363,994,965
4364,990,980
4365,995,989
4366,997,998
4367,999,1005
4368,1000,1002
4369,1001,990
4370,1005,977
4371,1008,972
4372,1014,978
4373,1018,977
4374,1018,976
4375,1018,972
4376,1013,973
4377,1018,980
4378,1025,990
4379,1032,984
4380,1037,974
4381,1035,969
4382,1036,977
4383,1040,994
4384,1046,1002
4385,1052,1000
4386,1051,992
4387,1052,984
4388,1056,982
4389,1062,972
4390,1068,963
4391,1073,958
4392,1069,965
4393,1066,973
4394,1067,980
4395,1075,980
4396,1080,980
4397,1079,978
4398,1078,979
4399,1073,978
4400,1069,979
4401,1068,989
4402,1073,996
4403,1070,999
4404,1064,988
4405,1055,981
4406,1047,983
4407,1044,989
4408,1046,982
4409,1050,972
4410,1048,968
4411,1040,976
4412,1033,990
4413,1026,1003
4414,1022,1004
4415,1014,1008
4416,1012,1006
4417,1013,995
4418,1012,985
4419,1006,986
4420,1004,990
4421,999,992
4422,999,995
4423,1001,1003
4424,997,1006
4425,994,998
4426,992,992
4427,995,990
4428,997,990
4429,994,989
4430,991,993
4431,990,1003
4432,992,1006
4433,994,1002
4434,989,996
4435,987,986
4436,988,988
4437,992,996
4438,996,1011
4439,994,1020
4440,988,1014
4441,986,992
4442,987,972
4443,994,970
4444,996,980
4445,991,993
4446,985,1005
4447,983,1012
4448,988,1015
4449,997,1009
4450,1005,1003
4451,1005,999
4452,1002,1000
4453,997,1004
4454,998,1014
4455,1002,1011
4456,1008,1008
4457,1009,1003
4458,1009,997
4459,1008,992
4460,1005,994
4461,1006,1007
4462,1005,1015
4463,1001,1012
4464,997,996
4465,995,977
4466,999,973
4467,1004,977
4468,1003,988
4469,1002,990
4470,996,995
4471,993,1000
4472,992,1002
4473,993,1006
4474,994,1007
4475,990,1010
4476,982,1011
4477,975,1007
4478,978,1000
4479,991,995
4480,993,994
4481,989,995
4482,980,997
4483,976,998
4484,977,1006
4485,985,1002
4486,990,999
4487,992,1002
4488,989,1011
4489,984,1011
4490,985,997
4491,986,978
4492,988,976
4493,992,984
4494,986,990
4495,979,991
4496,977,994
4497,982,1007
4498,982,1023
4499,983,1023
4500,980,1019
4501,982,1005
4502,985,999
4503,989,996
4504,990,997
4505,991,995
4506,989,991
4507,984,991
4508,984,996
4509,981,1005
4510,984,1014
4511,988,1014
4512,989,1008
4513,994,1006
4514,1006,1004
4515,1035,997
4516,1065,997
4517,1091,988
4518,1116,974
4519,1137,957
4520,1156,942
4521,1178,927
4522,1186,924
4523,1167,917
4524,1130,914
4525,1079,919
4526,1010,932
4527,947,945
4528,901,955
4529,877,963
4530,875,974
4531,892,979
4532,913,983
4533,932,988
4534,949,993
4535,957,994
4536,964,998
4537,970,1003
4538,974,1012
4539,980,1016
4540,983,1023
4541,982,1018
4542,986,1011
4543,990,996
4544,991,982
4545,991,989
4546,988,998
4547,987,1004
4548,986,1002
4549,987,1002
4550,988,1008
4551,991,1014
4552,996,1016
4553,999,1010
4554,998,1008
4555,995,1017
4556,994,1026
4557,998,1023
4558,1009,1004
4559,1017,983
4560,1025,975
4561,1029,978
4562,1031,987
4563,1026,989
4564,1026,988
4565,1026,985
4566,1025,991
4567,1030,998
4568,1039,1002
4569,1051,1007
4570,1060,1013
4571,1062,1018
4572,1057,1010
4573,1056,1002
4574,1055,1000
4575,1057,1006
4576,1062,1001
4577,1068,991
4578,1071,979
4579,1073,972
4580,1075,974
4581,1077,993
4582,1073,1011
4583,1073,1018
4584,1071,1012
4585,1070,1004
4586,1066,1010
4587,1065,1012
4588,1066,1003
4589,1073,987
4590,1074,981
4591,1066,990
4592,1059,997
4593,1057,995
4594,1058,986
4595,1053,986
4596,1046,991
4597,1039,1003
4598,1029,1011
4599,1027,1018
4600,1027,1017
4601,1021,1019
4602,1012,1013
4603,1003,1008
4604,1003,1004
4605,1008,1006
4606,1011,1009
4607,1008,1020
4608,1000,1024
4609,994,1018
4610,996,1007
4611,997,1004
4612,999,1006
4613,997,1010
4614,997,999
4615,995,993
4616,989,997
4617,987,1003
4618,988,1017
4619,990,1020
4620,995,1024
4621,994,1023
4622,987,1018
4623,985,1014
4624,985,1013
4625,988,1010
4626,991,1002
4627,991,999
4628,988,1009
4629,986,1023
4630,987,1031
4631,991,1025
4632,995,1017
4633,994,1009
4634,988,1009
4635,985,1011
4636,986,1016
4637,992,1022
4638,997,1021
4639,998,1011
4640,1004,1008
4641,1004,1018
4642,1000,1029
4643,997,1025
4644,1001,1013
4645,1002,1011
4646,1003,1012
4647,1008,1018
4648,1011,1028
4649,1016,1026
4650,1010,1017
4651,1004,1008
4652,996,1008
4653,996,1013
4654,996,1020
4655,998,1016
4656,997,1015
4657,991,1021
4658,992,1021
4659,994,1014
4660,998,1007
4661,1001,1000
4662,1000,1002
4663,996,1000
4664,992,1007
4665,990,1018
4666,988,1031
4667,986,1036
4668,984,1031
4669,984,1011
4670,983,1004
4671,978,1005
4672,978,1015
4673,980,1013
4674,981,1011
4675,981,1008
4676,982,1013
4677,989,1022
4678,992,1024
4679,992,1017
4680,990,1005
4681,985,1000
4682,979,1005
4683,980,1010
4684,987,1016
4685,988,1016
4686,985,1015
4687,980,1017
4688,982,1021
4689,987,1026
4690,987,1028
4691,981,1023
4692,981,1021
4693,977,1025
4694,977,1023
4695,982,1020
4696,985,1016
4697,987,1011
4698,982,1006
4699,974,1007
4700,972,1011
4701,976,1017
4702,983,1023
4703,985,1027
4704,992,1020
4705,1008,1008
4706,1037,998
4707,1064,995
4708,1095,990
4709,1120,984
4710,1141,977
4711,1160,967
4712,1170,956
4713,1165,949
4714,1142,945
4715,1093,941
4716,1017,946
4717,947,958
4718,895,969
4719,865,978
4720,864,991
4721,883,1004
4722,901,1005
4723,919,1002
4724,933,1005
4725,947,1017
4726,963,1019
4727,970,1018
4728,973,1012
4729,973,1007
4730,979,1004
4731,986,1010
4732,990,1020
4733,985,1021
4734,980,1019
4735,980,1018
4736,985,1018
4737,985,1021
4738,982,1019
4739,982,1013
4740,984,1010
4741,986,1008
4742,991,1015
4743,995,1019
4744,995,1017
4745,999,1015
4746,1003,1012
4747,1003,1008
4748,1001,1011
4749,999,1016
4750,1002,1021
4751,1003,1020
4752,1006,1023
4753,1005,1023
4754,1008,1024
4755,1015,1022
4756,1023,1021
4757,1025,1025
4758,1025,1022
4759,1024,1017
4760,1030,1010
4761,1039,1002
4762,1046,998
4763,1044,999
4764,1043,1003
4765,1043,1006
4766,1050,1007
4767,1055,1004
4768,1058,1008
4769,1059,1005
4770,1057,1005
4771,1055,1007
4772,1054,1016
4773,1055,1016
4774,1063,1016
4775,1068,1009
4776,1068,1006
4777,1064,1010
4778,1059,1015
4779,1057,1020
4780,1055,1019
4781,1052,1011
4782,1047,1011
4783,1045,1011
4784,1044,1012
4785,1048,1015
4786,1050,1017
4787,1044,1019
4788,1034,1017
4789,1024,1020
4790,1018,1020
4791,1014,1023
4792,1009,1033
4793,1003,1033
4794,994,1028
4795,990,1024
4796,986,1023
4797,985,1023
4798,985,1031
4799,982,1032
4800,979,1029
4801,977,1026
4802,973,1016
4803,975,1014
4804,981,1011
4805,978,1014
4806,974,1016
4807,967,1020
4808,966,1024
4809,964,1030
4810,964,1041
4811,961,1050
4812,956,1057
4813,957,1053
4814,961,1049
4815,964,1034
4816,967,1020
4817,971,1010
4818,968,1011
4819,968,1020
4820,968,1025
4821,966,1028
4822,969,1028
4823,967,1026
4824,964,1024
4825,960,1025
4826,957,1029
4827,959,1034
4828,960,1039
4829,965,1038
4830,963,1044
4831,961,1048
4832,960,1053
4833,961,1054
4834,967,1048
4835,968,1047
4836,970,1043
4837,968,1038
4838,968,1037
4839,976,1038
4840,983,1039
4841,983,1043
4842,981,1043
4843,979,1038
4844,978,1041
4845,978,1038
4846,980,1037
4847,978,1036
4848,975,1031
4849,972,1022
4850,970,1024
4851,969,1023
4852,968,1029
4853,969,1037
4854,965,1038
4855,961,1039
4856,960,1039
4857,963,1037
4858,970,1037
4859,973,1030
4860,968,1033
4861,962,1030
4862,959,1031
4863,958,1036
4864,962,1032
4865,961,1032
4866,960,1034
4867,949,1037
4868,942,1042
4869,944,1045
4870,952,1046
4871,958,1039
4872,956,1036
4873,949,1031
4874,947,1037
4875,951,1043
4876,952,1044
4877,951,1039
4878,953,1033
4879,956,1029
4880,959,1031
4881,962,1035
4882,963,1039
4883,962,1037
4884,956,1033
4885,954,1030
4886,950,1036
4887,954,1043
4888,952,1047
4889,950,1045
4890,947,1041
4891,943,1041
4892,946,1042
4893,952,1053
4894,960,1053
4895,964,1046
4896,962,1037
4897,953,1034
4898,947,1038
4899,945,1042
4900,945,1045
4901,945,1044
4902,948,1049
4903,960,1048
4904,977,1043
4905,1006,1036
4906,1037,1030
4907,1070,1023
4908,1096,1015
4909,1114,1007
4910,1126,1007
4911,1136,1004
4912,1133,995
4913,1116,985
4914,1081,971
4915,1025,971
4916,960,985
4917,906,1000
4918,868,1006
4919,849,1010
4920,850,1013
4921,862,1025
4922,875,1037
4923,889,1042
4924,904,1047
4925,920,1041
4926,930,1039
4927,935,1037
4928,938,1040
4929,948,1043
4930,956,1050
4931,964,1049
4932,964,1041
4933,962,1029
4934,965,1030
4935,966,1033
4936,967,1046
4937,967,1055
4938,966,1058
4939,964,1056
4940,962,1053
4941,962,1053
4942,965,1054
4943,966,1054
4944,968,1048
4945,968,1040
4946,971,1035
4947,978,1036
4948,987,1039
4949,991,1038
4950,992,1034
4951,989,1033
4952,989,1039
4953,993,1044
4954,995,1046
4955,993,1047
4956,989,1048
4957,987,1047
4958,988,1051
4959,994,1053
4960,1003,1057
4961,1013,1050
4962,1017,1040
4963,1018,1036
4964,1019,1039
4965,1024,1048
4966,1030,1044
4967,1031,1034
4968,1028,1026
4969,1023,1034
4970,1025,1036
4971,1035,1047
4972,1045,1050
4973,1050,1047
4974,1052,1040
4975,1049,1034
4976,1046,1034
4977,1048,1036
4978,1051,1043
4979,1048,1041
4980,1044,1038
4981,1042,1039
4982,1045,1043
4983,1054,1049
4984,1058,1045
4985,1048,1040
4986,1040,1033
4987,1031,1032
4988,1030,1037
4989,1029,1046
4990,1032,1050
4991,1030,1046
4992,1028,1045
4993,1027,1041
4994,1020,1039
4995,1014,1042
4996,1006,1048
4997,999,1053
4998,992,1054
4999,985,1052
5000,981,1050
5001,982,1054
5002,986,1055
5003,986,1061
5004,978,1060
5005,975,1062
5006,971,1065
5007,970,1065
5008,967,1061
5009,966,1053
5010,966,1044
5011,964,1041
5012,964,1041
5013,966,1049
5014,967,1053
5015,970,1051
5016,970,1055
5017,966,1053
5018,968,1057
5019,973,1059
5020,977,1063
5021,965,1059
5022,954,1058
5023,951,1053
5024,956,1058
5025,963,1069
5026,970,1068
5027,975,1058
5028,979,1038
5029,979,1031
5030,977,1036
5031,975,1047
5032,974,1056
5033,976,1055
5034,973,1054
5035,968,1058
5036,964,1059
5037,959,1065
5038,958,1072
5039,962,1069
5040,964,1066
5041,969,1068
5042,971,1073
5043,979,1072
5044,983,1070
5045,982,1063
5046,983,1055
5047,982,1054
5048,983,1056
5049,981,1058
5050,983,1059
5051,980,1057
5052,973,1052
5053,973,1055
5054,972,1054
5055,975,1051
5056,977,1045
5057,973,1039
5058,969,1039
5059,966,1046
5060,969,1051
5061,967,1058
5062,969,1057
5063,969,1054
5064,968,1053
5065,963,1052
5066,963,1059
5067,965,1061
5068,965,1062
5069,960,1055
5070,956,1053
5071,959,1050
5072,959,1050
5073,966,1053
5074,968,1055
5075,966,1059
5076,963,1058
5077,957,1054
5078,959,1055
5079,963,1061
5080,968,1064
5081,967,1058
5082,965,1048
5083,964,1042
5084,963,1042
5085,962,1049
5086,969,1052
5087,970,1050
5088,969,1049
5089,970,1049
5090,968,1051
5091,966,1053
5092,963,1058
5093,957,1061
5094,956,1055
5095,958,1054
5096,960,1050
5097,966,1053
5098,972,1056
5099,971,1060
5100,965,1057
5101,957,1059
5102,949,1067
5103,951,1071
5104,960,1068
5105,975,1058
5106,992,1045
5107,1016,1033
5108,1049,1025
5109,1085,1025
5110,1116,1023
5111,1135,1015
5112,1143,1009
5113,1140,1000
5114,1125,1004
5115,1094,1003
5116,1042,1011
5117,977,1022
5118,918,1035
5119,872,1038
5120,850,1042
5121,856,1048
5122,882,1051
5123,903,1050
5124,915,1048
5125,931,1047
5126,947,1050
5127,957,1056
5128,965,1058
5129,964,1059
5130,964,1051
5131,965,1047
5132,966,1051
5133,972,1057
5134,976,1058
5135,975,1058
5136,974,1053
5137,975,1054
5138,975,1057
5139,978,1060
5140,983,1061
5141,980,1061
5142,975,1056
5143,974,1055
5144,976,1056
5145,981,1059
5146,984,1062
5147,981,1060
5148,983,1058
5149,984,1057
5150,988,1058
5151,993,1058
5152,998,1060
5153,1000,1055
5154,997,1051
5155,998,1050
5156,1002,1051
5157,1007,1055
5158,1014,1060
5159,1019,1059
5160,1017,1055
5161,1016,1050
5162,1018,1057
5163,1027,1056
5164,1039,1055
5165,1043,1052
5166,1041,1047
5167,1033,1046
5168,1034,1048
5169,1041,1058
5170,1050,1061
5171,1052,1055
5172,1054,1054
5173,1050,1053
5174,1050,1050
5175,1056,1049
5176,1063,1049
5177,1064,1049
5178,1060,1043
5179,1052,1041
5180,1049,1042
5181,1050,1047
5182,1053,1053
5183,1051,1054
5184,1046,1054
5185,1038,1054
5186,1035,1054
5187,1030,1055
5188,1025,1049
5189,1022,1048
5190,1016,1041
5191,1009,1040
5192,1008,1042
5193,1007,1042
5194,1001,1048
5195,997,1045
5196,993,1041
5197,991,1039
5198,987,1042
5199,986,1046
5200,983,1048
5201,984,1043
5202,983,1043
5203,978,1043
5204,980,1046
5205,981,1045
5206,981,1047
5207,980,1042
5208,975,1039
5209,969,1041
5210,969,1045
5211,974,1047
5212,979,1047
5213,976,1044
5214,975,1043
5215,973,1037
5216,973,1041
5217,979,1045
5218,980,1044
5219,980,1041
5220,979,1040
5221,972,1042
5222,969,1043
5223,971,1043
5224,971,1041
5225,970,1045
5226,967,1042
5227,969,1048
5228,973,1047
5229,980,1047
5230,985,1045
5231,983,1044
5232,978,1044
5233,977,1044
5234,980,1051
5235,984,1055
5236,987,1055
5237,988,1056
5238,986,1052
5239,988,1047
5240,989,1046
5241,993,1044
5242,996,1043
5243,997,1047
5244,992,1045
5245,987,1043
5246,985,1042
5247,986,1043
5248,987,1044
5249,987,1045
5250,982,1037
5251,978,1035
5252,977,1041
5253,979,1047
5254,980,1055
5255,981,1058
5256,979,1051
5257,977,1049
5258,982,1047
5259,986,1047
5260,981,1049
5261,972,1047
5262,968,1045
5263,969,1041
5264,971,1042
5265,978,1044
5266,981,1043
5267,979,1043
5268,973,1042
5269,970,1043
5270,967,1049
5271,969,1053
5272,973,1052
5273,979,1049
5274,980,1046
5275,976,1042
5276,975,1047
5277,972,1053
5278,975,1058
5279,972,1055
5280,973,1051
5281,974,1049
5282,974,1051
5283,972,1056
5284,973,1057
5285,976,1052
5286,982,1045
5287,981,1044
5288,982,1046
5289,985,1049
5290,989,1050
5291,988,1049
5292,981,1043
5293,971,1046
5294,970,1050
5295,976,1051
5296,981,1051
5297,978,1054
5298,974,1054
5299,967,1054
5300,972,1061
5301,986,1060
5302,1001,1053
5303,1020,1042
5304,1044,1034
5305,1074,1032
5306,1108,1029
5307,1138,1025
5308,1161,1019
5309,1177,1006
5310,1182,990
5311,1167,991
5312,1137,1006
5313,1084,1013
5314,1021,1022
5315,957,1023
5316,903,1023
5317,880,1022
5318,878,1031
5319,891,1042
5320,909,1048
5321,918,1051
5322,924,1057
5323,933,1057
5324,949,1054
5325,965,1053
5326,974,1048
5327,977,1053
5328,975,1055
5329,972,1055
5330,973,1055
5331,978,1056
5332,990,1055
5333,997,1043
5334,994,1038
5335,989,1035
5336,989,1040
5337,991,1047
5338,994,1048
5339,995,1049
5340,993,1043
5341,994,1037
5342,997,1036
5343,1002,1043
5344,1010,1051
5345,1010,1048
5346,1006,1050
5347,998,1056
5348,995,1061
5349,1001,1061
5350,1009,1059
5351,1013,1049
5352,1012,1046
5353,1011,1045
5354,1015,1046
5355,1020,1050
5356,1026,1050
5357,1031,1044
5358,1037,1040
5359,1035,1035
5360,1038,1034
5361,1038,1039
5362,1043,1040
5363,1044,1042
5364,1048,1040
5365,1050,1038
5366,1055,1039
5367,1055,1038
5368,1062,1041
5369,1062,1044
5370,1057,1042
5371,1058,1039
5372,1063,1040
5373,1076,1043
5374,1084,1045
5375,1078,1045
5376,1065,1037
5377,1059,1035
5378,1062,1036
5379,1064,1042
5380,1060,1045
5381,1056,1048
5382,1052,1042
5383,1047,1044
5384,1047,1044
5385,1049,1049
5386,1046,1050
5387,1037,1047
5388,1030,1042
5389,1026,1037
5390,1024,1040
5391,1023,1041
5392,1018,1045
5393,1012,1053
5394,1008,1056
5395,1008,1059
5396,1003,1062
5397,999,1063
5398,992,1061
5399,986,1058
5400,983,1052
5401,984,1056
5402,987,1058
5403,994,1059
5404,1001,1053
5405,1000,1046
5406,995,1043
5407,989,1040
5408,984,1045
5409,985,1055
5410,983,1059
5411,978,1061
5412,973,1053
5413,968,1048
5414,972,1052
5415,974,1056
5416,976,1055
5417,976,1054
5418,978,1048
5419,977,1043
5420,976,1048
5421,973,1058
5422,974,1063
5423,976,1065
5424,977,1061
5425,980,1054
5426,979,1055
5427,979,1051
5428,980,1051
5429,981,1048
5430,983,1053
5431,985,1059
5432,987,1064
5433,992,1060
5434,997,1058
5435,997,1054
5436,996,1054
5437,995,1060
5438,994,1065
5439,1000,1064
5440,999,1059
5441,995,1055
5442,988,1055
5443,988,1053
5444,988,1052
5445,986,1050
5446,990,1045
5447,988,1050
5448,981,1047
5449,976,1051
5450,975,1053
5451,978,1050
5452,979,1048
5453,977,1043
5454,973,1038
5455,972,1040
5456,970,1048
5457,972,1057
5458,970,1070
5459,968,1074
5460,971,1072
5461,967,1063
5462,969,1055
5463,973,1053
5464,981,1053
5465,980,1056
5466,974,1054
5467,970,1052
5468,969,1050
5469,971,1045
5470,979,1041
5471,983,1042
5472,979,1040
5473,974,1046
5474,969,1058
5475,970,1066
5476,971,1073
5477,970,1071
5478,967,1059
5479,963,1047
5480,965,1041
5481,971,1049
5482,971,1062
5483,968,1066
5484,966,1061
5485,966,1053
5486,967,1050
5487,973,1055
5488,981,1058
5489,986,1061
5490,981,1062
5491,972,1068
5492,967,1072
5493,963,1068
5494,965,1073
5495,973,1071
5496,984,1061
5497,1004,1054
5498,1031,1043
5499,1065,1032
5500,1102,1028
5501,1132,1025
5502,1151,1022
5503,1168,1013
5504,1186,999
5505,1197,1000
5506,1186,1004
5507,1144,1008
5508,1081,1009
5509,1010,1008
5510,946,1018
5511,899,1022
5512,879,1026
5513,876,1031
5514,890,1035
5515,905,1037
5516,921,1043
5517,942,1048
5518,961,1047
5519,969,1053
5520,975,1054
5521,974,1061
5522,970,1065
5523,971,1078
5524,980,1074
5525,981,1071
5526,981,1063
5527,979,1058
5528,976,1055
5529,981,1061
5530,984,1066
5531,987,1066
5532,990,1063
5533,995,1056
5534,993,1051
5535,996,1051
5536,1004,1055
5537,1003,1059
5538,1000,1051
5539,996,1051
5540,1002,1052
5541,1005,1059
5542,1013,1063
5543,1013,1057
5544,1015,1058
5545,1018,1056
5546,1023,1061
5547,1024,1066
5548,1027,1065
5549,1028,1060
5550,1032,1054
5551,1035,1047
5552,1039,1047
5553,1043,1053
5554,1045,1058
5555,1048,1054
5556,1048,1052
5557,1048,1053
5558,1053,1057
5559,1059,1061
5560,1063,1063
5561,1068,1055
5562,1069,1047
5563,1071,1043
5564,1071,1046
5565,1075,1055
5566,1076,1060
5567,1074,1062
5568,1074,1062
5569,1075,1064
5570,1075,1062
5571,1073,1060
5572,1073,1059
5573,1066,1052
5574,1061,1043
5575,1057,1043
5576,1054,1049
5577,1050,1063
5578,1045,1065
5579,1040,1056
5580,1033,1052
5581,1028,1049
5582,1029,1053
5583,1026,1062
5584,1023,1060
5585,1014,1055
5586,1006,1056
5587,1001,1056
5588,1002,1061
5589,1003,1066
5590,996,1068
5591,989,1069
5592,988,1066
5593,991,1062
5594,994,1059
5595,1002,1057
5596,1003,1059
5597,1003,1061
5598,995,1063
5599,988,1065
5600,987,1065
5601,987,1063
5602,986,1055
5603,978,1054
5604,981,1055
5605,983,1056
5606,984,1057
5607,975,1058
5608,977,1067
5609,975,1074
5610,977,1074
5611,983,1071
5612,986,1073
5613,994,1075
5614,998,1075
5615,995,1065
5616,988,1059
5617,984,1061
5618,986,1066
5619,991,1066
5620,1001,1067
5621,999,1066
5622,996,1063
5623,999,1059
5624,1006,1060
5625,1014,1060
5626,1020,1060
5627,1018,1055
5628,1010,1049
5629,1003,1048
5630,997,1052
5631,994,1054
5632,996,1062
5633,989,1065
5634,986,1066
5635,986,1065
5636,987,1067
5637,989,1068
5638,995,1066
5639,994,1058
5640,990,1050
5641,985,1051
5642,979,1059
5643,978,1066
5644,984,1069
5645,983,1070
5646,979,1064
5647,975,1059
5648,977,1062
5649,978,1071
5650,979,1073
5651,976,1066
5652,974,1056
5653,973,1054
5654,977,1060
5655,984,1069
5656,990,1075
5657,989,1071
5658,978,1061
5659,973,1052
5660,973,1057
5661,976,1065
5662,982,1071
5663,980,1066
5664,979,1061
5665,978,1059
5666,977,1060
5667,980,1062
5668,985,1065
5669,987,1061
5670,979,1059
5671,978,1055
5672,978,1059
5673,979,1061
5674,987,1063
5675,987,1065
5676,981,1057
5677,975,1060
5678,971,1067
5679,967,1082
5680,963,1093
5681,966,1089
5682,983,1074
5683,1010,1056
5684,1040,1043
5685,1074,1048
5686,1110,1045
5687,1148,1043
5688,1177,1032
5689,1202,1020
5690,1226,1008
5691,1232,1003
5692,1216,1006
5693,1170,1003
5694,1102,1003
5695,1023,1008
5696,953,1018
5697,906,1031
5698,890,1038
5699,890,1044
5700,902,1044
5701,921,1048
5702,944,1048
5703,962,1053
5704,979,1060
5705,983,1064
5706,988,1065
5707,987,1067
5708,988,1066
5709,992,1056
5710,996,1053
5711,993,1051
5712,993,1057
5713,991,1060
5714,992,1066
5715,995,1068
5716,1000,1064
5717,1000,1057
5718,994,1059
5719,994,1067
5720,998,1075
5721,1003,1077
5722,1010,1070
5723,1012,1065
5724,1012,1062
5725,1012,1065
5726,1015,1071
5727,1021,1075
5728,1024,1071
5729,1025,1066
5730,1025,1065
5731,1024,1055
5732,1028,1061
5733,1034,1069
5734,1043,1069
5735,1046,1068
5736,1045,1067
5737,1046,1067
5738,1050,1070
5739,1054,1072
5740,1060,1064
5741,1066,1057
5742,1069,1056
5743,1068,1056
5744,1069,1063
5745,1073,1065
5746,1080,1066
5747,1082,1065
5748,1079,1067
5749,1077,1075
5750,1079,1081
5751,1083,1083
5752,1091,1077
5753,1090,1069
5754,1088,1061
5755,1083,1060
5756,1079,1069
5757,1081,1075
5758,1086,1079
5759,1090,1063
5760,1083,1049
5761,1077,1040
5762,1073,1039
5763,1072,1048
5764,1068,1056
5765,1065,1061
5766,1054,1056
5767,1046,1058
5768,1039,1068
5769,1035,1084
5770,1035,1088
5771,1031,1078
5772,1028,1062
5773,1024,1055
5774,1018,1060
5775,1017,1067
5776,1018,1066
5777,1018,1057
5778,1012,1058
5779,1005,1063
5780,1004,1074
5781,1004,1082
5782,1006,1080
5783,1009,1069
5784,1007,1066
5785,1005,1066
5786,1005,1075
5787,1004,1078
5788,1006,1078
5789,1004,1072
5790,1003,1063
5791,1000,1057
5792,1004,1064
5793,1010,1070
5794,1016,1063
5795,1014,1053
5796,1005,1054
5797,1002,1068
5798,1002,1083
5799,1004,1095
5800,1008,1092
5801,1006,1088
5802,1008,1079
5803,1009,1069
5804,1013,1066
5805,1020,1068
5806,1027,1072
5807,1023,1075
5808,1019,1076
5809,1019,1064
5810,1025,1053
5811,1028,1053
5812,1032,1062
5813,1029,1068
5814,1027,1073
5815,1023,1074
5816,1021,1073
5817,1019,1073
5818,1019,1075
5819,1016,1072
5820,1012,1063
5821,1011,1057
5822,1008,1057
5823,1007,1062
5824,1008,1067
5825,1006,1070
5826,1004,1071
5827,1003,1067
5828,1003,1070
5829,1005,1070
5830,1005,1071
5831,1002,1062
5832,994,1061
5833,991,1064
5834,991,1068
5835,994,1077
5836,995,1078
5837,993,1079
5838,995,1076
5839,998,1074
5840,1000,1072
5841,1004,1075
5842,1009,1072
5843,1010,1066
5844,1008,1062
5845,1002,1060
5846,1002,1063
5847,1002,1065
5848,1000,1064
5849,997,1071
5850,994,1082
5851,994,1082
5852,997,1076
5853,1003,1065
5854,1010,1055
5855,1006,1053
5856,998,1058
5857,995,1064
5858,996,1069
5859,1004,1072
5860,1004,1066
5861,1005,1067
5862,1002,1066
5863,999,1073
5864,999,1077
5865,1000,1074
5866,1004,1073
5867,1003,1076
5868,1003,1083
5869,1015,1082
5870,1044,1074
5871,1082,1057
5872,1117,1047
5873,1145,1044
5874,1175,1040
5875,1205,1028
5876,1229,1011
5877,1245,993
5878,1241,985
5879,1218,981
5880,1179,974
5881,1123,968
5882,1048,974
5883,972,992
5884,917,1016
5885,896,1040
5886,899,1052
5887,918,1057
5888,944,1058
5889,967,1062
5890,984,1064
5891,990,1067
5892,991,1063
5893,994,1064
5894,999,1063
5895,1005,1072
5896,1003,1082
5897,1003,1091
5898,1004,1095
5899,1005,1086
5900,1007,1075
5901,1014,1061
5902,1012,1050
5903,1009,1057
5904,1005,1068
5905,1005,1075
5906,1007,1073
5907,1013,1072
5908,1019,1074
5909,1022,1078
5910,1022,1074
5911,1023,1067
5912,1023,1064
5913,1025,1062
5914,1031,1063
5915,1033,1065
5916,1033,1065
5917,1032,1059
5918,1035,1058
5919,1039,1062
5920,1043,1059
5921,1045,1058
5922,1050,1057
5923,1050,1067
5924,1054,1079
5925,1061,1090
5926,1064,1083
5927,1067,1068
5928,1068,1054
5929,1067,1056
5930,1067,1061
5931,1073,1060
5932,1081,1052
5933,1081,1042
5934,1082,1042
5935,1082,1044
5936,1083,1051
5937,1088,1055
5938,1089,1059
5939,1085,1058
5940,1084,1057
5941,1083,1052
5942,1082,1060
5943,1085,1070
5944,1091,1074
5945,1091,1065
5946,1089,1053
5947,1082,1043
5948,1076,1050
5949,1075,1057
5950,1074,1059
5951,1070,1056
5952,1061,1062
5953,1055,1069
5954,1049,1077
5955,1048,1073
5956,1047,1068
5957,1039,1065
5958,1029,1073
5959,1021,1080
5960,1019,1085
5961,1023,1080
5962,1024,1078
5963,1020,1076
5964,1013,1073
5965,1009,1074
5966,1011,1071
5967,1014,1064
5968,1018,1058
5969,1015,1060
5970,1008,1060
5971,998,1068
5972,995,1075
5973,995,1072
5974,995,1064
5975,996,1061
5976,995,1058
5977,997,1056
5978,997,1067
5979,1003,1079
5980,1004,1083
5981,1000,1073
5982,994,1065
5983,987,1072
5984,989,1082
5985,992,1082
5986,993,1074
5987,995,1066
5988,991,1063
5989,986,1061
5990,979,1068
5991,982,1080
5992,991,1081
5993,991,1073
5994,993,1061
5995,993,1063
5996,992,1076
5997,1000,1092
5998,1000,1101
5999,1001,1097
6000,998,1079
6001,997,1060
6002,1000,1053
6003,1001,1048
6004,1006,1052
6005,1002,1055
6006,1001,1058
6007,997,1064
6008,996,1081
6009,994,1093
6010,995,1094
6011,991,1082
6012,990,1069
6013,989,1057
6014,991,1058
6015,992,1064
6016,991,1070
6017,984,1074
6018,975,1079
6019,973,1088
6020,977,1091
6021,989,1083
6022,993,1069
6023,992,1055
6024,980,1056
6025,972,1066
6026,967,1069
6027,971,1064
6028,979,1056
6029,977,1059
6030,975,1065
6031,971,1071
6032,974,1070
6033,975,1066
6034,978,1067
6035,978,1063
6036,976,1061
6037,974,1057
6038,975,1056
6039,973,1063
6040,971,1069
6041,969,1079
6042,965,1093
6043,965,1095
6044,969,1083
6045,976,1063
6046,977,1047
6047,975,1046
6048,969,1048
6049,972,1045
6050,974,1053
6051,979,1063
6052,982,1062
6053,979,1063
6054,973,1066
6055,968,1069
6056,961,1074
6057,963,1079
6058,965,1078
6059,966,1071
6060,968,1066
6061,969,1074
6062,983,1080
6063,1006,1071
6064,1042,1054
6065,1073,1040
6066,1100,1035
6067,1126,1031
6068,1157,1023
6069,1183,1013
6070,1198,1000
6071,1190,986
6072,1163,977
6073,1118,974
6074,1056,978
6075,989,986
6076,925,993
6077,873,1004
6078,848,1020
6079,854,1042
6080,873,1068
6081,900,1077
6082,925,1070
6083,941,1058
6084,950,1045
6085,957,1043
6086,963,1050
6087,967,1054
6088,973,1061
6089,973,1070
6090,972,1067
6091,968,1069
6092,965,1074
6093,969,1081
6094,970,1084
6095,970,1080
6096,976,1068
6097,979,1061
6098,980,1059
6099,983,1064
6100,987,1066
6101,988,1062
6102,987,1061
6103,982,1066
6104,982,1078
6105,983,1085
6106,988,1084
6107,992,1075
6108,992,1065
6109,989,1056
6110,994,1050
6111,1000,1052
6112,1005,1056
6113,1007,1059
6114,1011,1058
6115,1012,1055
6116,1016,1059
6117,1019,1066
6118,1024,1069
6119,1026,1067
6120,1026,1063
6121,1027,1058
6122,1030,1062
6123,1036,1064
6124,1042,1063
6125,1044,1057
6126,1043,1049
6127,1039,1052
6128,1039,1058
6129,1044,1069
6130,1049,1069
6131,1052,1059
6132,1051,1049
6133,1049,1048
6134,1047,1054
6135,1048,1061
6136,1049,1062
6137,1047,1052
6138,1042,1049
6139,1038,1053
6140,1037,1057
6141,1037,1065
6142,1036,1072
6143,1032,1070
6144,1027,1066
6145,1023,1061
6146,1019,1069
6147,1013,1073
6148,1014,1068
6149,1009,1062
6150,1002,1057
6151,993,1059
6152,987,1071
6153,986,1075
6154,985,1077
6155,980,1078
6156,974,1074
6157,973,1072
6158,970,1072
6159,972,1071
6160,972,1072
6161,970,1070
6162,965,1068
6163,961,1071
6164,960,1077
6165,963,1078
6166,964,1081
6167,961,1081
6168,959,1080
6169,957,1080
6170,957,1084
6171,959,1081
6172,963,1081
6173,961,1083
6174,958,1082
6175,958,1078
6176,959,1078
6177,963,1077
6178,962,1075
6179,961,1074
6180,958,1072
6181,955,1073
6182,954,1073
6183,956,1082
6184,960,1088
6185,958,1083
6186,961,1079
6187,961,1077
6188,960,1080
6189,964,1086
6190,966,1087
6191,966,1088
6192,964,1087
6193,960,1085
6194,960,1089
6195,969,1089
6196,973,1092
6197,974,1090
6198,972,1085
6199,972,1080
6200,974,1084
6201,974,1084
6202,973,1078
6203,970,1072
6204,966,1068
6205,962,1064
6206,961,1072
6207,960,1075
6208,961,1078
6209,959,1074
6210,956,1076
6211,954,1079
6212,955,1084
6213,958,1086
6214,964,1084
6215,961,1080
6216,955,1070
6217,955,1071
6218,956,1072
6219,955,1077
6220,949,1082
6221,944,1078
6222,942,1081
6223,941,1087
6224,942,1089
6225,946,1089
6226,950,1085
6227,952,1082
6228,946,1084
6229,946,1090
6230,947,1090
6231,950,1088
6232,955,1083
6233,951,1081
6234,949,1082
6235,947,1085
6236,951,1088
6237,950,1089
6238,950,1090
6239,948,1089
6240,949,1087
6241,947,1086
6242,948,1086
6243,952,1087
6244,955,1088
6245,954,1087
6246,947,1086
6247,942,1087
6248,942,1089
6249,941,1094
6250,941,1096
6251,939,1105
6252,944,1107
6253,963,1106
6254,998,1092
6255,1039,1075
6256,1080,1065
6257,1115,1053
6258,1138,1032
6259,1146,1016
6260,1130,1006
6261,1101,1000
6262,1052,1002
6263,983,1013
6264,911,1021
6265,853,1030
6266,825,1045
6267,833,1064
6268,857,1079
6269,880,1083
6270,895,1081
6271,910,1090
6272,924,1097
6273,937,1100
6274,944,1095
6275,949,1090
6276,948,1085
6277,950,1084
6278,951,1083
6279,955,1087
6280,957,1092
6281,958,1094
6282,958,1091
6283,957,1090
6284,956,1092
6285,961,1099
6286,965,1098
6287,970,1092
6288,969,1087
6289,967,1090
6290,971,1095
6291,974,1096
6292,977,1095
6293,979,1094
6294,978,1086
6295,976,1084
6296,980,1089
6297,985,1093
6298,992,1095
6299,992,1093
6300,997,1088
6301,997,1078
6302,999,1083
6303,1001,1090
6304,1011,1097
6305,1016,1089
6306,1019,1082
6307,1021,1078
6308,1022,1078
6309,1026,1085
6310,1035,1085
6311,1035,1079
6312,1033,1074
6313,1031,1076
6314,1031,1083
6315,1037,1088
6316,1043,1087
6317,1043,1083
6318,1043,1077
6319,1040,1085
6320,1037,1094
6321,1037,1101
6322,1039,1102
6323,1040,1092
6324,1033,1092
6325,1027,1094
6326,1028,1094
6327,1027,1089
6328,1027,1081
6329,1023,1077
6330,1017,1080
6331,1008,1084
6332,1001,1093
6333,998,1100
6334,998,1097
6335,993,1098
6336,987,1097
6337,981,1098
6338,981,1099
6339,980,1100
6340,977,1101
6341,972,1101
6342,966,1104
6343,964,1112
6344,963,1123
6345,964,1131
6346,966,1118
6347,970,1097
6348,968,1076
6349,967,1076
6350,963,1086
6351,967,1100
6352,966,1100
6353,969,1096
6354,966,1092
6355,964,1095
6356,963,1096
6357,966,1103
6358,970,1100
6359,967,1101
6360,965,1099
6361,960,1102
6362,963,1104
6363,966,1102
6364,969,1101
6365,968,1099
6366,968,1091
6367,968,1090
6368,969,1092
6369,971,1101
6370,973,1105
6371,972,1105
6372,970,1104
6373,969,1100
6374,974,1102
6375,976,1103
6376,981,1108
6377,980,1110
6378,979,1103
6379,981,1096
6380,984,1095
6381,989,1102
6382,989,1112
6383,986,1115
6384,983,1116
6385,979,1103
6386,981,1090
6387,984,1086
6388,986,1087
6389,986,1088
6390,980,1092
6391,977,1089
6392,980,1084
6393,986,1079
6394,988,1082
6395,988,1081
6396,980,1074
6397,970,1075
6398,968,1090
6399,972,1106
6400,975,1120
6401,982,1112
6402,990,1088
6403,998,1071
6404,1004,1071
6405,1006,1083
6406,1010,1082
6407,1016,1071
6408,1029,1059
6409,1046,1060
6410,1072,1066
6411,1102,1072
6412,1134,1066
6413,1163,1058
6414,1187,1040
6415,1207,1031
6416,1227,1031
6417,1243,1043
6418,1256,1053
6419,1261,1055
6420,1262,1051
6421,1265,1043
6422,1265,1038
6423,1265,1031
6424,1261,1016
6425,1254,1003
6426,1255,994
6427,1261,996
6428,1273,1003
6429,1289,1010
6430,1296,1011
6431,1288,1012
6432,1263,1021
6433,1222,1029
6434,1172,1038
6435,1101,1045
6436,1016,1060
6437,950,1075
6438,922,1083
6439,917,1086
6440,920,1091
6441,921,1098
6442,918,1096
6443,914,1094
6444,906,1089
6445,903,1088
6446,899,1091
6447,896,1098
6448,893,1101
6449,891,1099
6450,887,1100
6451,884,1100
6452,884,1102
6453,884,1102
6454,882,1104
6455,881,1104
6456,880,1105
6457,875,1106
6458,874,1107
6459,875,1110
6460,877,1111
6461,878,1109
6462,874,1105
6463,874,1109
6464,871,1113
6465,871,1115
6466,872,1113
6467,872,1109
6468,869,1109
6469,869,1116
6470,868,1117
6471,874,1118
6472,876,1120
6473,872,1117
6474,873,1107
6475,869,1102
6476,871,1106
6477,872,1116
6478,873,1124
6479,877,1130
6480,875,1126
6481,876,1119
6482,883,1118
6483,887,1118
6484,896,1110
6485,897,1108
6486,899,1106
6487,898,1106
6488,905,1112
6489,910,1111
6490,917,1109
6491,918,1111
6492,919,1111
6493,917,1106
6494,923,1109
6495,930,1108
6496,935,1100
6497,937,1100
6498,935,1096
6499,935,1095
6500,939,1097
6501,940,1103
6502,946,1107
6503,950,1103
6504,951,1096
6505,949,1088
6506,948,1092
6507,948,1096
6508,949,1101
6509,949,1103
6510,947,1094
6511,947,1089
6512,946,1090
6513,945,1098
6514,948,1105
6515,949,1105
6516,945,1100
6517,944,1100
6518,946,1101
6519,948,1102
6520,952,1098
6521,951,1102
6522,950,1101
6523,949,1094
6524,952,1086
6525,955,1085
6526,957,1088
6527,956,1091
6528,951,1090
6529,948,1086
6530,949,1088
6531,953,1092
6532,956,1094
6533,959,1091
6534,959,1087
6535,955,1085
6536,955,1085
6537,956,1088
6538,956,1091
6539,957,1091
6540,954,1086
6541,954,1088
6542,956,1099
6543,956,1108
6544,963,1105
6545,963,1096
6546,962,1084
6547,960,1082
6548,961,1090
6549,967,1089
6550,971,1086
6551,972,1084
6552,971,1085
6553,971,1091
6554,963,1096
6555,959,1105
6556,959,1103
6557,964,1095
6558,968,1084
6559,969,1077
6560,973,1081
6561,976,1086
6562,978,1087
6563,974,1086
6564,974,1084
6565,973,1088
6566,977,1092
6567,983,1096
6568,988,1093
6569,990,1086
6570,986,1084
6571,983,1088
6572,982,1092
6573,988,1095
6574,990,1097
6575,988,1093
6576,984,1089
6577,977,1094
6578,976,1106
6579,981,1111
6580,983,1097
6581,984,1069
6582,981,1053
6583,975,1055
6584,971,1065
6585,972,1071
6586,975,1076
6587,977,1079
6588,974,1080
6589,971,1084
6590,969,1086
6591,971,1081
6592,975,1083
6593,972,1080
6594,968,1081
6595,967,1079
6596,966,1079
6597,969,1082
6598,973,1089
6599,972,1089
6600,970,1089
6601,970,1087
6602,970,1085
6603,973,1090
6604,975,1099
6605,974,1105
6606,976,1092
6607,976,1071
6608,979,1062
6609,978,1065
6610,978,1074
6611,978,1078
6612,974,1079
6613,972,1083
6614,975,1089
6615,978,1088
6616,982,1083
6617,984,1079
6618,979,1080
6619,975,1089
6620,971,1102
6621,975,1107
6622,978,1101
6623,983,1076
6624,987,1065
6625,1004,1069
6626,1028,1076
6627,1062,1067
6628,1091,1056
6629,1118,1047
6630,1141,1038
6631,1157,1025
6632,1170,1011
6633,1166,1001
6634,1143,999
6635,1107,992
6636,1058,993
6637,996,999
6638,935,1008
6639,887,1021
6640,865,1036
6641,864,1051
6642,882,1066
6643,903,1075
6644,925,1076
6645,945,1078
6646,963,1077
6647,970,1078
6648,974,1077
6649,976,1083
6650,978,1090
6651,985,1096
6652,988,1091
6653,986,1083
6654,978,1086
6655,981,1089
6656,984,1085
6657,990,1083
6658,994,1083
6659,998,1082
6660,998,1079
6661,995,1074
6662,995,1081
6663,999,1087
6664,1004,1087
6665,1007,1085
6666,1006,1079
6667,1007,1082
6668,1010,1083
6669,1015,1091
6670,1016,1090
6671,1018,1085
6672,1023,1076
6673,1024,1071
6674,1027,1076
6675,1031,1088
6676,1034,1088
6677,1038,1076
6678,1041,1066
6679,1044,1064
6680,1044,1071
6681,1050,1076
6682,1052,1077
6683,1055,1076
6684,1056,1076
6685,1056,1077
6686,1065,1072
6687,1066,1069
6688,1068,1068
6689,1066,1070
6690,1064,1072
6691,1065,1074
6692,1069,1073
6693,1071,1075
6694,1074,1080
6695,1079,1076
6696,1075,1070
6697,1071,1064
6698,1073,1068
6699,1072,1076
6700,1072,1079
6701,1069,1076
6702,1064,1071
6703,1058,1070
6704,1055,1080
6705,1054,1090
6706,1049,1091
6707,1049,1079
6708,1040,1074
6709,1034,1078
6710,1028,1080
6711,1025,1083
6712,1022,1083
6713,1019,1082
6714,1015,1083
6715,1010,1083
6716,1004,1084
6717,1006,1086
6718,1007,1084
6719,1005,1079
6720,1002,1075
6721,997,1077
6722,1000,1077
6723,1003,1082
6724,1007,1084
6725,1002,1084
6726,996,1081
6727,990,1080
6728,992,1080
6729,994,1086
6730,995,1091
6731,994,1087
6732,990,1082
6733,990,1083
6734,995,1077
6735,996,1077
6736,1000,1079
6737,999,1080
6738,995,1083
6739,996,1076
6740,995,1075
6741,999,1076
6742,1001,1083
6743,1003,1080
6744,1000,1080
6745,998,1084
6746,1000,1093
6747,1006,1094
6748,1009,1090
6749,1009,1087
6750,1007,1084
6751,1008,1085
6752,1012,1088
6753,1017,1091
6754,1020,1091
6755,1018,1084
6756,1018,1080
6757,1016,1080
6758,1013,1083
6759,1012,1084
6760,1013,1082
6761,1012,1078
6762,1008,1078
6763,1004,1075
6764,1001,1077
6765,1001,1084
6766,1003,1083
6767,1003,1080
6768,1000,1070
6769,1001,1069
6770,1001,1072
6771,1004,1077
6772,1003,1076
6773,1001,1073
6774,999,1074
6775,994,1076
6776,992,1077
6777,993,1079
6778,995,1081
6779,998,1078
6780,997,1078
6781,994,1081
6782,993,1088
6783,994,1089
6784,995,1088
6785,994,1085
6786,992,1080
6787,990,1079
6788,991,1078
6789,992,1078
6790,992,1074
6791,990,1074
6792,990,1073
6793,987,1075
6794,989,1078
6795,992,1086
6796,995,1083
6797,994,1080
6798,996,1079
6799,991,1081
6800,994,1082
6801,998,1080
6802,1002,1073
6803,999,1075
6804,995,1078
6805,988,1080
6806,986,1086
6807,986,1091
6808,986,1099
6809,988,1103
6810,996,1099
6811,1015,1083
6812,1038,1074
6813,1064,1069
6814,1093,1065
6815,1121,1053
6816,1141,1035
6817,1155,1020
6818,1160,1004
6819,1155,990
6820,1134,984
6821,1106,983
6822,1075,987
6823,1026,992
6824,970,1009
6825,920,1023
6826,887,1038
6827,873,1044
6828,885,1046
6829,905,1061
6830,922,1069
6831,936,1072
6832,956,1074
6833,970,1072
6834,977,1072
6835,981,1075
6836,981,1081
6837,988,1089
6838,993,1093
6839,994,1095
6840,994,1089
6841,995,1084
6842,996,1086
6843,999,1091
6844,1002,1092
6845,1007,1087
6846,1007,1078
6847,1009,1072
6848,1010,1074
6849,1012,1077
6850,1014,1073
6851,1013,1070
6852,1011,1067
6853,1012,1073
6854,1016,1074
6855,1021,1072
6856,1023,1073
6857,1020,1072
6858,1020,1068
6859,1022,1069
6860,1024,1073
6861,1031,1079
6862,1031,1078
6863,1031,1076
6864,1032,1072
6865,1036,1073
6866,1040,1079
6867,1048,1081
6868,1051,1077
6869,1053,1074
6870,1055,1068
6871,1059,1066
6872,1062,1067
6873,1065,1072
6874,1069,1069
6875,1066,1064
6876,1064,1063
6877,1060,1071
6878,1059,1072
6879,1065,1067
6880,1073,1061
6881,1072,1058
6882,1071,1060
6883,1068,1062
6884,1069,1069
6885,1072,1072
6886,1073,1074
6887,1071,1068
6888,1068,1068
6889,1064,1067
6890,1064,1075
6891,1066,1073
6892,1065,1073
6893,1061,1071
6894,1056,1068
6895,1053,1073
6896,1048,1073
6897,1049,1075
6898,1044,1072
6899,1038,1079
6900,1031,1084
6901,1025,1086
6902,1027,1085
6903,1029,1081
6904,1030,1073
6905,1020,1073
6906,1012,1077
6907,1005,1081
6908,1005,1077
6909,1007,1076
6910,1009,1076
6911,1006,1082
6912,1003,1084
6913,1006,1081
6914,1005,1080
6915,1003,1080
6916,1004,1076
6917,998,1074
6918,999,1073
6919,997,1075
6920,1000,1079
6921,1001,1081
6922,1003,1082
6923,1005,1074
6924,1000,1073
6925,996,1072
6926,992,1078
6927,995,1082
6928,999,1080
6929,996,1074
6930,993,1067
6931,991,1073
6932,993,1076
6933,994,1083
6934,996,1082
6935,997,1083
6936,995,1080
6937,996,1083
6938,999,1085
6939,1003,1085
6940,1007,1082
6941,1004,1078
6942,1001,1078
6943,1000,1079
6944,1007,1082
6945,1016,1083
6946,1021,1083
6947,1020,1080
6948,1016,1080
6949,1010,1082
6950,1009,1087
6951,1016,1089
6952,1019,1091
6953,1015,1084
6954,1014,1077
6955,1007,1073
6956,1006,1069
6957,1008,1074
6958,1008,1080
6959,1007,1076
6960,1006,1072
6961,1002,1070
6962,1000,1068
6963,1005,1079
6964,1009,1078
6965,1007,1076
6966,999,1070
6967,992,1072
6968,989,1078
6969,991,1083
6970,994,1085
6971,994,1081
6972,992,1075
6973,989,1079
6974,990,1084
6975,996,1086
6976,999,1082
6977,1000,1078
6978,996,1076
6979,991,1076
6980,992,1078
6981,994,1079
6982,998,1081
6983,993,1078
6984,990,1080
6985,986,1086
6986,990,1084
6987,998,1085
6988,1002,1077
6989,999,1074
6990,992,1078
6991,987,1080
6992,989,1086
6993,992,1088
6994,998,1082
6995,998,1074
6996,997,1070
6997,995,1065
6998,996,1068
6999,1000,1069
7000,1001,1074
7001,995,1076
7002,989,1080
7003,987,1081
7004,990,1084
7005,1003,1092
7006,1022,1091
7007,1046,1075
7008,1069,1062
7009,1093,1053
7010,1119,1045
7011,1146,1040
7012,1167,1029
7013,1176,1009
7014,1170,989
7015,1149,984
7016,1121,989
7017,1075,1000
7018,1014,1012
7019,948,1015
7020,896,1016
7021,873,1027
7022,879,1044
7023,903,1066
7024,927,1067
7025,942,1070
7026,951,1077
7027,963,1084
7028,975,1086
7029,985,1084
7030,996,1074
7031,998,1069
7032,994,1067
7033,993,1070
7034,991,1082
7035,995,1088
7036,1001,1087
7037,1006,1080
7038,1000,1077
7039,1002,1074
7040,1005,1077
7041,1008,1079
7042,1014,1082
7043,1015,1078
7044,1012,1072
7045,1010,1070
7046,1010,1072
7047,1012,1078
7048,1019,1080
7049,1019,1075
7050,1021,1076
7051,1020,1073
7052,1020,1076
7053,1024,1078
7054,1031,1080
7055,1031,1079
7056,1034,1073
7057,1038,1068
7058,1044,1068
7059,1048,1077
7060,1053,1075
7061,1054,1068
7062,1055,1061
7063,1053,1059
7064,1053,1070
7065,1059,1074
7066,1065,1077
7067,1070,1071
7068,1071,1067
7069,1075,1065
7070,1076,1061
7071,1078,1066
7072,1078,1069
7073,1077,1066
7074,1074,1068
7075,1073,1070
7076,1072,1076
7077,1080,1077
7078,1079,1077
7079,1078,1071
7080,1071,1062
7081,1072,1061
7082,1075,1063
7083,1075,1067
7084,1078,1072
7085,1077,1068
7086,1077,1065
7087,1070,1066
7088,1065,1073
7089,1062,1076
7090,1057,1075
7091,1054,1071
7092,1054,1070
7093,1049,1071
7094,1046,1074
7095,1046,1077
7096,1049,1081
7097,1049,1079
7098,1045,1070
7099,1038,1066
7100,1037,1070
7101,1040,1073
7102,1033,1072
7103,1014,1071
7104,994,1077
7105,985,1079
7106,987,1089
7107,996,1092
7108,998,1092
7109,996,1088
7110,995,1081
7111,991,1077
7112,989,1079
7113,994,1084
7114,995,1083
7115,997,1079
7116,996,1079
7117,993,1079
7118,996,1090
7119,995,1091
7120,1004,1081
7121,1005,1073
7122,1003,1068
7123,1000,1074
7124,1000,1085
7125,1001,1087
7126,1005,1086
7127,1000,1081
7128,1000,1072
7129,996,1070
7130,998,1072
7131,999,1078
7132,1003,1082
7133,1004,1076
7134,1003,1071
7135,1001,1074
7136,1006,1078
7137,1007,1081
7138,1008,1086
7139,1008,1084
7140,1012,1080
7141,1010,1079
7142,1012,1086
7143,1015,1090
7144,1019,1089
7145,1020,1085
7146,1019,1080
7147,1019,1079
7148,1022,1077
7149,1024,1079
7150,1025,1077
7151,1020,1070
7152,1015,1065
7153,1009,1071
7154,1010,1077
7155,1015,1082
7156,1020,1076
7157,1020,1069
7158,1016,1070
7159,1011,1067
7160,1007,1071
7161,1006,1073
7162,1006,1073
7163,1004,1074
7164,1006,1070
7165,1006,1066
7166,1007,1061
7167,1006,1068
7168,1004,1066
7169,1001,1070
7170,1000,1069
7171,999,1072
7172,1001,1073
7173,1004,1070
7174,1004,1071
7175,1003,1068
7176,998,1068
7177,994,1071
7178,999,1075
7179,1002,1075
7180,1013,1071
7181,1012,1064
7182,1006,1059
7183,1001,1063
7184,997,1072
7185,995,1077
7186,1000,1075
7187,1000,1071
7188,999,1068
7189,997,1071
7190,1001,1078
7191,1001,1079
7192,1003,1075
7193,999,1068
7194,996,1065
7195,992,1071
7196,993,1083
7197,996,1094
7198,997,1093
7199,997,1087
7200,997,1075
7201,998,1066
7202,999,1060
7203,998,1068
7204,995,1071
7205,991,1073
7206,987,1074
7207,986,1076
7208,994,1083
7209,1009,1080
7210,1037,1074
7211,1063,1062
7212,1086,1055
7213,1112,1047
7214,1140,1040
7215,1165,1030
7216,1180,1013
7217,1178,995
7218,1161,984
7219,1135,980
7220,1106,980
7221,1064,983
7222,1008,993
7223,947,1004
7224,898,1013
7225,873,1023
7226,879,1035
7227,905,1047
7228,926,1056
7229,942,1064
7230,953,1060
7231,969,1066
7232,984,1070
7233,991,1072
7234,997,1078
7235,1002,1074
7236,1004,1069
7237,1006,1067
7238,1009,1068
7239,1012,1072
7240,1008,1072
7241,1002,1076
7242,1001,1075
7243,1005,1076
7244,1009,1077
7245,1008,1076
7246,1006,1074
7247,1007,1079
7248,1010,1080
7249,1012,1081
7250,1016,1080
7251,1014,1082
7252,1018,1077
7253,1018,1070
7254,1024,1066
7255,1027,1066
7256,1032,1070
7257,1033,1071
7258,1036,1069
7259,1039,1065
7260,1037,1060
7261,1038,1063
7262,1041,1072
7263,1044,1078
7264,1048,1073
7265,1053,1061
7266,1051,1055
7267,1050,1057
7268,1055,1063
7269,1060,1068
7270,1064,1066
7271,1068,1062
7272,1068,1061
7273,1068,1062
7274,1073,1064
7275,1081,1068
7276,1086,1068
7277,1084,1068
7278,1084,1067
7279,1085,1061
7280,1088,1060
7281,1090,1059
7282,1087,1060
7283,1088,1062
7284,1084,1061
7285,1084,1060
7286,1083,1060
7287,1086,1061
7288,1085,1060
7289,1083,1056
7290,1081,1055
7291,1080,1057
7292,1077,1064
7293,1073,1069
7294,1068,1069
7295,1057,1062
7296,1049,1061
7297,1041,1062
7298,1037,1070
7299,1034,1079
7300,1034,1080
7301,1030,1081
7302,1027,1077
7303,1023,1073
7304,1027,1075
7305,1027,1074
7306,1027,1073
7307,1021,1078
7308,1015,1079
7309,1014,1076
7310,1013,1071
7311,1014,1068
7312,1015,1068
7313,1013,1068
7314,1006,1069
7315,1004,1068
7316,1006,1071
7317,1012,1071
7318,1013,1067
7319,1008,1067
7320,1002,1069
7321,996,1074
7322,999,1080
7323,1003,1078
7324,1008,1071
7325,1005,1065
7326,1002,1065
7327,997,1069
7328,1001,1077
7329,1008,1081
7330,1009,1080
7331,1003,1075
7332,997,1070
7333,997,1070
7334,1006,1069
7335,1010,1069
7336,1012,1074
7337,1007,1075
7338,1004,1075
7339,1008,1074
7340,1012,1072
7341,1018,1077
7342,1019,1078
7343,1018,1079
7344,1017,1075
7345,1019,1077
7346,1018,1083
7347,1019,1088
7348,1022,1085
7349,1026,1081
7350,1026,1069
7351,1025,1065
7352,1024,1070
7353,1021,1075
7354,1019,1075
7355,1011,1069
7356,1001,1069
7357,1001,1069
7358,1004,1068
7359,1012,1064
7360,1018,1059
7361,1018,1055
7362,1014,1056
7363,1012,1059
7364,1012,1070
7365,1010,1075
7366,1007,1074
7367,997,1068
7368,990,1065
7369,986,1071
7370,987,1078
7371,992,1082
7372,1000,1075
7373,1001,1066
7374,995,1066
7375,995,1070
7376,997,1077
7377,999,1079
7378,1001,1073
7379,1000,1067
7380,997,1065
7381,999,1069
7382,1001,1071
7383,1002,1075
7384,1001,1079
7385,996,1077
7386,995,1076
7387,998,1070
7388,1000,1071
7389,1003,1074
7390,1002,1072
7391,1004,1067
7392,999,1063
7393,998,1060
7394,1001,1067
7395,1003,1068
7396,1007,1066
7397,1004,1070
7398,1001,1071
7399,995,1070
7400,994,1075
7401,995,1079
7402,994,1078
7403,994,1078
7404,996,1081
7405,1007,1083
7406,1032,1080
7407,1062,1073
7408,1085,1061
7409,1103,1053
7410,1125,1042
7411,1150,1032
7412,1174,1020
7413,1189,1005
7414,1191,989
7415,1167,980
7416,1135,977
7417,1095,981
7418,1040,992
7419,977,1007
7420,926,1016
7421,885,1023
7422,872,1027
7423,890,1040
7424,917,1051
7425,941,1067
7426,954,1065
7427,962,1066
7428,971,1068
7429,982,1068
7430,991,1072
7431,999,1076
7432,1004,1072
7433,1006,1069
7434,1004,1066
7435,1003,1063
7436,1003,1067
7437,1008,1069
7438,1013,1066
7439,1013,1063
7440,1014,1065
7441,1011,1071
7442,1014,1078
7443,1022,1075
7444,1029,1071
7445,1032,1063
7446,1021,1062
7447,1015,1064
7448,1013,1069
7449,1013,1069
7450,1015,1072
7451,1019,1068
7452,1022,1066
7453,1027,1070
7454,1039,1072
7455,1046,1073
7456,1051,1072
7457,1049,1066
7458,1047,1068
7459,1042,1073
7460,1045,1077
7461,1050,1073
7462,1055,1059
7463,1060,1049
7464,1061,1052
7465,1065,1050
7466,1075,1049
7467,1080,1052
7468,1081,1055
7469,1079,1055
7470,1076,1055
7471,1078,1054
7472,1075,1057
7473,1077,1059
7474,1072,1059
7475,1075,1055
7476,1082,1052
7477,1087,1048
7478,1092,1052
7479,1093,1059
7480,1087,1064
7481,1079,1067
7482,1074,1065
7483,1075,1072
7484,1079,1075
7485,1084,1074
7486,1087,1064
7487,1081,1053
7488,1073,1045
7489,1070,1047
7490,1067,1053
7491,1067,1063
7492,1064,1067
7493,1059,1066
7494,1053,1070
7495,1046,1073
7496,1041,1072
7497,1040,1067
7498,1046,1058
7499,1041,1058
7500,1033,1060
7501,1022,1063
7502,1020,1066
7503,1022,1068
7504,1024,1069
7505,1019,1066
7506,1011,1077
7507,1007,1076
7508,1006,1080
7509,1006,1078
7510,1008,1070
7511,1005,1063
7512,1008,1060
7513,1010,1064
7514,1010,1069
7515,1007,1073
7516,1004,1067
7517,1000,1071
7518,999,1072
7519,998,1073
7520,1002,1078
7521,1006,1079
7522,1008,1071
7523,1007,1063
7524,1006,1057
7525,1001,1058
7526,1001,1064
7527,1005,1071
7528,1011,1072
7529,1012,1068
7530,1006,1067
7531,1000,1067
7532,1000,1074
7533,1005,1079
7534,1012,1077
7535,1013,1075
7536,1011,1071
7537,1014,1070
7538,1016,1074
7539,1018,1076
7540,1015,1071
7541,1008,1067
7542,1005,1070
7543,1007,1075
7544,1014,1078
7545,1023,1078
7546,1028,1077
7547,1025,1074
7548,1019,1070
7549,1019,1075
7550,1022,1076
7551,1028,1074
7552,1027,1066
7553,1024,1058
7554,1022,1059
7555,1019,1061
7556,1017,1061
7557,1014,1063
7558,1009,1062
7559,1006,1060
7560,1005,1061
7561,1004,1067
7562,1004,1072
7563,1007,1072
7564,1010,1066
7565,1013,1061
7566,1010,1058
7567,1005,1060
7568,1001,1066
7569,1005,1070
7570,1012,1074
7571,1011,1073
7572,1007,1066
7573,1001,1064
7574,996,1069
7575,995,1077
7576,1005,1079
7577,1007,1072
7578,1006,1060
7579,1007,1049
7580,1006,1057
7581,1008,1061
7582,1007,1063
7583,1002,1062
7584,993,1056
7585,994,1058
7586,999,1061
7587,999,1073
7588,998,1075
7589,993,1069
7590,994,1063
7591,996,1063
7592,999,1065
7593,1003,1068
7594,1005,1066
7595,1003,1063
7596,996,1064
7597,996,1065
7598,999,1070
7599,1001,1072
7600,1002,1068
7601,1004,1071
7602,1003,1067
7603,1001,1070
7604,998,1067
7605,994,1066
7606,990,1065
7607,990,1068
7608,999,1075
7609,1016,1070
7610,1040,1064
7611,1069,1059
7612,1094,1049
7613,1121,1038
7614,1148,1024
7615,1170,1012
7616,1183,1004
7617,1184,992
7618,1170,985
7619,1142,977
7620,1114,975
7621,1081,979
7622,1033,981
7623,978,992
7624,923,1003
7625,887,1014
7626,881,1020
7627,895,1029
7628,916,1048
7629,934,1057
7630,945,1062
7631,963,1064
7632,977,1065
7633,984,1069
7634,991,1071
7635,994,1071
7636,999,1065
7637,1000,1058
7638,1000,1058
7639,1001,1060
7640,1006,1064
7641,1005,1068
7642,1005,1066
7643,1004,1060
7644,1003,1063
7645,1005,1067
7646,1011,1070
7647,1021,1068
7648,1027,1067
7649,1025,1061
7650,1018,1060
7651,1016,1061
7652,1020,1065
7653,1029,1073
7654,1035,1071
7655,1034,1061
7656,1035,1056
7657,1037,1053
7658,1043,1052
7659,1046,1056
7660,1044,1054
7661,1042,1056
7662,1036,1050
7663,1042,1051
7664,1049,1059
7665,1057,1059
7666,1064,1059
7667,1063,1054
7668,1064,1052
7669,1066,1054
7670,1072,1057
7671,1077,1059
7672,1079,1061
7673,1081,1060
7674,1080,1057
7675,1083,1052
7676,1090,1049
7677,1097,1050
7678,1093,1052
7679,1086,1046
7680,1080,1044
7681,1079,1045
7682,1081,1053
7683,1088,1055
7684,1095,1054
7685,1096,1055
7686,1092,1054
7687,1083,1055
7688,1082,1058
7689,1085,1059
7690,1086,1055
7691,1085,1052
7692,1080,1046
7693,1076,1046
7694,1071,1053
7695,1065,1059
7696,1056,1054
7697,1048,1055
7698,1039,1052
7699,1037,1059
7700,1039,1063
7701,1042,1064
7702,1036,1069
7703,1026,1064
7704,1019,1066
7705,1018,1067
7706,1019,1077
7707,1022,1082
7708,1024,1081
7709,1021,1071
7710,1016,1059
7711,1013,1058
7712,1010,1063
7713,1010,1069
7714,1012,1063
7715,1014,1059
7716,1016,1057
7717,1018,1060
7718,1017,1063
7719,1020,1064
7720,1018,1062
7721,1021,1065
7722,1022,1061
7723,1014,1058
7724,1005,1062
7725,999,1068
7726,1001,1071
7727,1003,1072
7728,1003,1073
7729,1003,1072
7730,1011,1069
7731,1014,1067
7732,1013,1071
7733,1010,1077
7734,1015,1081
7735,1017,1081
7736,1012,1068
7737,1002,1065
7738,997,1059
7739,996,1062
7740,998,1064
7741,1003,1062
7742,1005,1067
7743,1012,1073
7744,1014,1072
7745,1013,1070
7746,1011,1068
7747,1013,1069
7748,1019,1074
7749,1027,1077
7750,1030,1073
7751,1030,1062
7752,1030,1057
7753,1025,1059
7754,1020,1062
7755,1020,1068
7756,1022,1067
7757,1019,1060
7758,1014,1055
7759,1008,1053
7760,1007,1058
7761,1009,1060
7762,1014,1056
7763,1015,1056
7764,1012,1054
7765,1013,1056
7766,1013,1060
7767,1014,1061
7768,1016,1060
7769,1011,1060
7770,1006,1063
7771,1005,1065
7772,1008,1061
7773,1016,1060
7774,1011,1053
7775,1002,1049
7776,994,1050
7777,989,1052
7778,994,1058
7779,999,1057
7780,1003,1057
7781,1002,1058
7782,1002,1059
7783,1005,1058
7784,1010,1059
7785,1006,1062
7786,1007,1063
7787,1006,1060
7788,1010,1061
7789,1012,1064
7790,1009,1066
7791,1009,1065
7792,1005,1063
7793,1006,1063
7794,1007,1057
7795,1001,1056
7796,995,1058
7797,997,1063
7798,994,1056
7799,994,1054
7800,993,1052
7801,991,1058
7802,995,1065
7803,998,1068
7804,1000,1068
7805,996,1066
7806,994,1060
7807,995,1064
7808,1001,1069
7809,1010,1073
7810,1022,1071
7811,1039,1063
7812,1065,1052
7813,1097,1043
7814,1133,1032
7815,1162,1021
7816,1178,1008
7817,1184,987
7818,1174,972
7819,1149,969
7820,1124,975
7821,1098,979
7822,1053,984
7823,993,988
7824,937,996
7825,894,1006
7826,878,1018
7827,884,1032
7828,904,1046
7829,921,1055
7830,935,1058
7831,950,1063
7832,968,1062
7833,982,1064
7834,989,1061
7835,994,1057
7836,994,1058
7837,997,1055
7838,999,1058
7839,1002,1059
7840,1008,1059
7841,1009,1055
7842,1010,1051
7843,1009,1054
7844,1012,1059
7845,1016,1065
7846,1018,1069
7847,1018,1071
7848,1011,1066
7849,1012,1063
7850,1012,1059
7851,1014,1061
7852,1017,1059
7853,1022,1058
7854,1024,1058
7855,1032,1056
7856,1033,1054
7857,1031,1058
7858,1032,1057
7859,1036,1054
7860,1039,1049
7861,1037,1047
7862,1033,1051
7863,1032,1063
7864,1040,1058
7865,1044,1057
7866,1044,1054
7867,1045,1056
7868,1053,1059
7869,1058,1059
7870,1063,1057
7871,1063,1051
7872,1061,1049
7873,1064,1053
7874,1072,1055
7875,1079,1055
7876,1079,1050
7877,1077,1044
7878,1078,1040
7879,1081,1047
7880,1084,1049
7881,1088,1055
7882,1089,1053
7883,1084,1050
7884,1081,1050
7885,1081,1054
7886,1082,1059
7887,1086,1057
7888,1090,1051
7889,1089,1045
7890,1090,1040
7891,1085,1043
7892,1081,1046
7893,1077,1052
7894,1072,1055
7895,1068,1053
7896,1066,1055
7897,1066,1058
7898,1071,1063
7899,1070,1059
7900,1065,1054
7901,1054,1052
7902,1043,1052
7903,1032,1057
7904,1026,1064
7905,1024,1069
7906,1024,1073
7907,1026,1069
7908,1027,1064
7909,1024,1059
7910,1020,1063
7911,1016,1069
7912,1013,1067
7913,1008,1069
7914,1005,1063
7915,1004,1063
7916,1007,1071
7917,1010,1073
7918,1014,1067
7919,1010,1059
7920,1009,1058
7921,1005,1065
7922,1003,1068
7923,1006,1069
7924,1008,1069
7925,1010,1065
7926,1009,1068
7927,1002,1066
7928,1000,1066
7929,1000,1069
7930,1003,1066
7931,1003,1064
7932,1001,1059
7933,1000,1062
7934,1004,1065
7935,1010,1066
7936,1011,1060
7937,1005,1058
7938,1006,1060
7939,1004,1062
7940,1007,1062
7941,1010,1070
7942,1008,1075
7943,1007,1075
7944,1007,1076
7945,1006,1079
7946,1007,1079
7947,1009,1073
7948,1012,1073
7949,1014,1068
7950,1014,1070
7951,1017,1072
7952,1022,1075
7953,1025,1079
7954,1031,1076
7955,1029,1076
7956,1028,1071
7957,1031,1065
7958,1035,1060
7959,1038,1055
7960,1033,1051
7961,1021,1052
7962,1007,1052
7963,999,1055
7964,997,1057
7965,999,1059
7966,1001,1059
7967,1000,1060
7968,996,1058
7969,996,1060
7970,1001,1061
7971,1004,1064
7972,1004,1065
7973,998,1065
7974,993,1069
7975,994,1072
7976,997,1074
7977,999,1071
7978,1000,1068
7979,996,1061
7980,998,1056
7981,998,1053
7982,998,1056
7983,999,1061
7984,999,1065
7985,998,1062
7986,997,1062
7987,998,1061
7988,995,1064
7989,998,1071
7990,1000,1073
7991,1003,1062
7992,999,1056
7993,988,1056
7994,988,1060
7995,991,1061
7996,993,1060
7997,996,1058
7998,995,1055
7999,993,1053
8000,991,1062
8001,991,1068
8002,994,1070
8003,993,1068
8004,991,1057
8005,989,1057
8006,992,1061
8007,994,1065
8008,990,1064
8009,984,1065
8010,982,1063
8011,989,1065
8012,1007,1065
8013,1031,1064
8014,1062,1053
8015,1086,1043
8016,1113,1028
8017,1141,1022
8018,1168,1010
8019,1182,996
8020,1177,983
8021,1151,972
8022,1116,973
8023,1077,972
8024,1020,981
8025,962,989
8026,910,1005
8027,873,1013
8028,863,1021
8029,880,1039
8030,909,1053
8031,933,1066
8032,958,1061
8033,974,1055
8034,977,1052
8035,977,1055
8036,980,1063
8037,987,1072
8038,997,1071
8039,1001,1060
8040,1000,1055
8041,999,1052
8042,1000,1055
8043,1005,1061
8044,1005,1062
8045,1004,1062
8046,1003,1059
8047,1004,1058
8048,1009,1061
8049,1014,1068
8050,1014,1068
8051,1012,1061
8052,1014,1058
8053,1014,1054
8054,1015,1060
8055,1017,1065
8056,1019,1065
8057,1027,1059
8058,1027,1059
8059,1028,1058
8060,1031,1063
8061,1036,1069
8062,1042,1071
8063,1046,1065
8064,1044,1055
8065,1041,1046
8066,1043,1051
8067,1050,1060
8068,1058,1055
8069,1063,1049
8070,1061,1044
8071,1057,1049
8072,1062,1058
8073,1069,1064
8074,1077,1058
8075,1078,1047
8076,1075,1037
8077,1073,1040
8078,1078,1046
8079,1083,1049
8080,1084,1046
8081,1083,1043
8082,1080,1047
8083,1077,1050
8084,1077,1059
8085,1078,1060
8086,1082,1062
8087,1080,1061
8088,1081,1049
8089,1080,1041
8090,1073,1043
8091,1064,1049
8092,1057,1054
8093,1055,1053
8094,1052,1050
8095,1053,1052
8096,1050,1050
8097,1045,1054
8098,1044,1058
8099,1038,1054
8100,1026,1054
8101,1013,1056
8102,1007,1062
8103,1006,1067
8104,1006,1070
8105,1002,1074
8106,1000,1070
8107,998,1068
8108,1003,1066
8109,1006,1063
8110,1006,1062
8111,1004,1062
8112,1002,1066
8113,999,1076
8114,995,1082
8115,998,1082
8116,999,1068
8117,999,1055
8118,1001,1055
8119,1002,1057
8120,1002,1060
8121,1003,1057
8122,1000,1055
8123,1000,1052
8124,997,1052
8125,995,1054
8126,994,1058
8127,995,1066
8128,994,1064
8129,995,1060
8130,994,1061
8131,995,1066
8132,1001,1073
8133,1005,1075
8134,1009,1075
8135,1008,1073
8136,1011,1062
8137,1009,1059
8138,1012,1061
8139,1015,1067
8140,1014,1070
8141,1013,1075
8142,1013,1080
8143,1015,1073
8144,1020,1067
8145,1025,1060
8146,1029,1059
8147,1027,1053
8148,1022,1054
8149,1015,1058
8150,1014,1060
8151,1011,1059
8152,1007,1058
8153,1001,1054
8154,994,1055
8155,996,1058
8156,998,1059
8157,996,1069
8158,1000,1068
8159,1000,1062
8160,999,1052
8161,995,1047
8162,992,1053
8163,994,1056
8164,998,1059
8165,1001,1060
8166,997,1057
8167,998,1060
8168,993,1061
8169,992,1062
8170,991,1063
8171,990,1058
8172,986,1060
8173,985,1065
8174,988,1072
8175,992,1067
8176,994,1063
8177,992,1059
8178,993,1055
8179,995,1054
8180,996,1062
8181,999,1061
8182,1001,1058
8183,996,1055
8184,989,1054
8185,986,1057
8186,987,1059
8187,995,1060
8188,999,1057
8189,1002,1053
8190,1003,1052
8191,1000,1050
8192,998,1047
8193,995,1050
8194,991,1055
8195,984,1062
8196,978,1069
8197,978,1073
8198,986,1076
8199,1004,1079
8200,1025,1078
8201,1056,1066
8202,1085,1048
8203,1115,1028
8204,1141,1008
8205,1155,996
8206,1162,990
8207,1149,980
8208,1123,972
8209,1099,969
8210,1058,971
8211,1004,981
8212,938,996
8213,882,1011
8214,856,1018
8215,870,1031
8216,896,1045
8217,921,1056
8218,937,1059
8219,955,1053
8220,969,1046
8221,978,1050
8222,990,1054
8223,998,1061
8224,999,1058
8225,1002,1057
8226,1001,1054
8227,1003,1060
8228,1002,1066
8229,998,1073
8230,998,1070
8231,1004,1069
8232,1007,1063
8233,1001,1054
8234,995,1057
8235,997,1060
8236,1005,1065
8237,1013,1062
8238,1017,1057
8239,1014,1054
8240,1012,1054
8241,1014,1057
8242,1015,1050
8243,1019,1042
8244,1016,1043
8245,1014,1049
8246,1017,1056
8247,1025,1060
8248,1034,1058
8249,1038,1053
8250,1036,1048
8251,1036,1046
8252,1040,1046
8253,1049,1046
8254,1051,1047
8255,1055,1049
8256,1056,1044
8257,1058,1045
8258,1062,1042
8259,1064,1039
8260,1067,1039
8261,1066,1042
8262,1067,1039
8263,1068,1041
8264,1071,1046
8265,1073,1048
8266,1074,1047
8267,1074,1045
8268,1074,1042
8269,1076,1048
8270,1075,1050
8271,1076,1051
8272,1074,1050
8273,1072,1044
8274,1068,1044
8275,1063,1046
8276,1061,1050
8277,1059,1050
8278,1060,1054
8279,1058,1049
8280,1049,1045
8281,1038,1049
8282,1031,1061
8283,1029,1061
8284,1029,1063
8285,1025,1051
8286,1023,1046
8287,1020,1049
8288,1017,1053
8289,1012,1057
8290,1003,1062
8291,996,1064
8292,993,1063
8293,998,1061
8294,997,1062
8295,999,1064
8296,998,1066
8297,998,1064
8298,995,1064
8299,992,1061
8300,992,1059
8301,996,1059
8302,997,1055
8303,993,1052
8304,990,1051
8305,985,1055
8306,986,1059
8307,989,1068
8308,992,1066
8309,990,1064
8310,991,1060
8311,993,1057
8312,995,1061
8313,999,1062
8314,1002,1056
8315,1001,1057
8316,996,1057
8317,995,1057
8318,993,1060
8319,997,1064
8320,999,1066
8321,1004,1062
8322,1004,1060
8323,1007,1059
8324,1008,1056
8325,1004,1060
8326,998,1071
8327,995,1072
8328,994,1069
8329,997,1065
8330,1001,1066
8331,1008,1069
8332,1013,1063
8333,1012,1052
8334,1008,1046
8335,1006,1044
8336,1004,1051
8337,1005,1055
8338,1005,1055
8339,999,1049
8340,996,1049
8341,993,1048
8342,994,1054
8343,1001,1056
8344,1006,1052
8345,1000,1050
8346,990,1049
8347,982,1047
8348,986,1050
8349,986,1060
8350,982,1060
8351,983,1055
8352,980,1055
8353,979,1058
8354,978,1062
8355,979,1061
8356,980,1053
8357,983,1047
8358,982,1046
8359,980,1049
8360,982,1053
8361,985,1061
8362,989,1062
8363,988,1055
8364,985,1048
8365,984,1050
8366,986,1054
8367,992,1056
8368,994,1051
8369,988,1044
8370,980,1045
8371,978,1050
8372,984,1056
8373,990,1062
8374,990,1059
8375,985,1059
8376,984,1057
8377,984,1062
8378,989,1065
8379,994,1061
8380,989,1056
8381,980,1051
8382,972,1051
8383,979,1058
8384,997,1064
8385,1025,1059
8386,1054,1042
8387,1081,1026
8388,1111,1016
8389,1133,1009
8390,1139,1000
8391,1145,992
8392,1140,978
8393,1118,967
8394,1092,963
8395,1058,963
8396,1003,974
8397,940,986
8398,887,998
8399,859,1005
8400,865,1016
8401,892,1028
8402,916,1043
8403,936,1054
8404,946,1060
8405,961,1062
8406,972,1060
8407,983,1057
8408,989,1058
8409,993,1058
8410,995,1057
8411,987,1054
8412,988,1055
8413,989,1055
8414,992,1057
8415,995,1058
8416,1003,1051
8417,1005,1046
8418,1006,1045
8419,1002,1048
8420,999,1055
8421,993,1059
8422,996,1055
8423,999,1057
8424,1002,1055
8425,1006,1057
8426,1012,1060
8427,1020,1057
8428,1026,1051
8429,1021,1041
8430,1019,1041
8431,1019,1047
8432,1025,1053
8433,1035,1055
8434,1038,1055
8435,1040,1046
8436,1036,1038
8437,1039,1039
8438,1044,1043
8439,1051,1048
