'sample #','MLII','V1'
0,948,967
1,948,967
2,948,967
3,948,967
4,948,967
5,948,967
6,948,967
7,948,967
8,951,966
9,951,965
10,954,966
11,951,965
12,951,968
13,952,970
14,957,974
15,959,980
16,961,985
17,962,982
18,963,982
19,962,984
20,958,979
21,955,977
22,956,973
23,954,972
24,951,971
25,952,968
26,948,969
27,945,966
28,946,967
29,947,965
30,945,964
31,943,963
32,940,964
33,939,961
34,936,957
35,936,954
36,933,954
37,933,953
38,933,954
39,935,957
40,939,957
41,939,955
42,940,955
43,942,955
44,943,952
45,942,951
46,940,950
47,942,949
48,943,949
49,944,952
50,943,954
51,942,955
52,944,956
53,943,955
54,947,951
55,947,952
56,947,949
57,947,948
58,947,948
59,945,946
60,944,947
61,946,948
62,947,951
63,948,953
64,950,959
65,954,960
66,960,964
67,968,970
68,985,978
69,1006,989
70,1035,1001
71,1071,1021
72,1112,1042
73,1153,1064
74,1192,1084
75,1225,1099
76,1239,1100
77,1235,1082
78,1201,1050
79,1145,1003
80,1065,959
81,973,917
82,877,884
83,795,859
84,739,840
85,720,827
86,737,819
87,771,814
88,814,819
89,858,827
90,890,841
91,913,863
92,930,886
93,938,910
94,941,932
95,942,952
96,940,966
97,940,975
98,938,982
99,941,987
100,944,987
101,949,990
102,950,987
103,952,988
104,952,989
105,953,989
106,952,991
107,951,992
108,951,993
109,953,994
110,954,995
111,958,999
112,963,1003
113,967,1004
114,968,1003
115,972,1004
116,969,1006
117,970,1006
118,968,1006
119,968,1006
120,967,1010
121,968,1011
122,968,1014
123,968,1017
124,970,1021
125,970,1025
126,969,1024
127,968,1026
128,967,1025
129,967,1026
130,966,1030
131,966,1031
132,964,1036
133,966,1037
134,965,1042
135,968,1046
136,969,1052
137,970,1051
138,970,1055
139,970,1059
140,974,1060
141,974,1063
142,975,1064
143,979,1068
144,980,1074
145,982,1078
146,988,1082
147,992,1090
148,996,1095
149,1000,1101
150,1005,1102
151,1010,1104
152,1012,1104
153,1012,1104
154,1016,1107
155,1019,1107
156,1020,1111
157,1023,1111
158,1025,1116
159,1027,1117
160,1030,1119
161,1034,1119
162,1035,1118
163,1036,1117
164,1034,1116
165,1032,1114
166,1028,1112
167,1029,1107
168,1027,1106
169,1029,1104
170,1026,1102
171,1023,1099
172,1022,1096
173,1019,1088
174,1015,1082
175,1009,1075
176,1004,1067
177,999,1060
178,995,1052
179,987,1043
180,984,1041
181,979,1037
182,976,1029
183,973,1024
184,971,1021
185,968,1017
186,966,1011
187,963,1007
188,959,1001
189,958,996
190,954,992
191,950,991
192,947,988
193,946,984
194,947,984
195,945,984
196,945,983
197,946,984
198,946,985
199,946,979
200,945,978
201,944,979
202,944,978
203,942,976
204,941,977
205,939,978
206,941,978
207,942,980
208,944,979
209,946,983
210,948,981
211,948,980
212,949,979
213,946,977
214,947,976
215,945,975
216,946,976
217,946,976
218,948,977
219,951,979
220,948,980
221,950,980
222,952,977
223,951,976
224,954,976
225,951,972
226,949,972
227,949,969
228,950,971
229,949,972
230,951,973
231,951,973
232,952,976
233,951,975
234,950,973
235,950,972
236,949,970
237,949,967
238,949,967
239,946,964
240,946,965
241,945,966
242,945,966
243,945,967
244,945,969
245,945,966
246,945,964
247,946,963
248,943,962
249,941,963
250,938,956
251,938,959
252,934,957
253,933,957
254,937,959
255,938,959
256,938,962
257,940,961
258,941,960
259,941,958
260,939,959
261,937,956
262,934,955
263,933,954
264,932,956
265,933,956
266,932,958
267,934,958
268,935,959
269,933,957
270,935,957
271,934,958
272,933,958
273,931,957
274,934,954
275,934,955
276,935,957
277,934,960
278,938,965
279,941,967
280,943,970
281,946,973
282,947,974
283,950,975
284,950,974
285,953,975
286,954,976
287,955,977
288,952,978
289,952,982
290,950,984
291,949,985
292,945,984
293,945,984
294,946,979
295,944,978
296,944,975
297,940,970
298,938,967
299,935,967
300,931,967
301,928,963
302,927,965
303,926,964
304,926,965
305,926,964
306,925,963
307,922,961
308,917,960
309,917,958
310,914,953
311,914,951
312,915,951
313,913,953
314,919,952
315,921,953
316,923,954
317,926,957
318,925,955
319,925,954
320,922,952
321,920,951
322,918,952
323,917,949
324,916,951
325,917,952
326,918,956
327,920,953
328,921,955
329,924,959
330,924,957
331,925,957
332,923,958
333,923,956
334,922,956
335,922,956
336,921,959
337,921,962
338,924,963
339,928,968
340,934,973
341,947,981
342,965,987
343,992,998
344,1020,1009
345,1063,1023
346,1105,1043
347,1149,1062
348,1191,1084
349,1225,1099
350,1247,1106
351,1248,1099
352,1224,1078
353,1172,1043
354,1095,1004
355,999,967
356,896,933
357,796,901
358,723,878
359,684,854
360,687,835
361,720,824
362,768,816
363,820,817
364,864,827
365,904,847
366,924,865
367,941,892
368,944,916
369,945,938
370,944,953
371,941,965
372,939,972
373,936,974
374,941,978
375,946,979
376,948,983
377,953,985
378,954,986
379,957,986
380,958,986
381,959,987
382,961,986
383,966,985
384,966,988
385,970,991
386,976,993
387,978,995
388,983,997
389,987,1000
390,989,997
391,993,998
392,996,999
393,996,998
394,997,999
395,996,998
396,997,1000
397,996,1000
398,997,1003
399,998,1006
400,999,1010
401,1001,1012
402,1002,1014
403,1002,1014
404,1002,1016
405,1002,1014
406,1000,1016
407,1000,1018
408,1002,1020
409,1004,1024
410,1009,1028
411,1011,1032
412,1016,1037
413,1019,1040
414,1022,1044
415,1026,1044
416,1027,1049
417,1029,1049
418,1030,1054
419,1033,1055
420,1035,1060
421,1040,1063
422,1045,1068
423,1048,1074
424,1051,1077
425,1054,1080
426,1057,1083
427,1056,1087
428,1055,1088
429,1056,1088
430,1058,1088
431,1058,1090
432,1056,1092
433,1059,1094
434,1060,1096
435,1058,1100
436,1058,1100
437,1061,1103
438,1061,1099
439,1060,1099
440,1060,1099
441,1056,1095
442,1055,1090
443,1052,1087
444,1050,1086
445,1048,1083
446,1046,1080
447,1041,1075
448,1040,1071
449,1033,1065
450,1032,1058
451,1030,1053
452,1022,1045
453,1014,1038
454,1009,1032
455,1001,1023
456,995,1019
457,989,1014
458,984,1009
459,983,1006
460,980,1003
461,979,999
462,976,994
463,972,992
464,967,988
465,962,982
466,957,979
467,953,977
468,951,973
469,949,975
470,948,974
471,949,974
472,948,975
473,947,975
474,947,972
475,946,973
476,947,973
477,943,969
478,941,971
479,942,968
480,940,969
481,941,969
482,942,970
483,940,971
484,941,974
485,944,974
486,946,973
487,944,973
488,944,971
489,941,970
490,942,971
491,941,969
492,941,970
493,942,970
494,943,968
495,943,972
496,946,973
497,947,975
498,949,970
499,952,969
500,952,971
501,950,969
502,949,965
503,949,966
504,948,964
505,947,965
506,948,966
507,950,967
508,951,969
509,953,969
510,952,967
511,952,966
512,949,963
513,948,961
514,946,960
515,943,958
516,941,960
517,939,958
518,940,960
519,939,959
520,941,959
521,941,961
522,939,960
523,937,961
524,936,957
525,931,955
526,931,953
527,928,952
528,931,953
529,931,955
530,932,954
531,929,958
532,931,958
533,931,959
534,932,961
535,931,957
536,931,958
537,930,954
538,933,953
539,931,952
540,933,953
541,934,956
542,935,957
543,939,958
544,946,963
545,949,966
546,955,964
547,957,967
548,958,966
549,961,969
550,962,966
551,962,967
552,962,971
553,968,971
554,971,974
555,974,977
556,978,980
557,980,980
558,981,978
559,979,977
560,977,973
561,971,971
562,969,965
563,964,962
564,964,959
565,961,960
566,957,958
567,955,962
568,953,960
569,948,960
570,943,959
571,942,955
572,941,954
573,937,953
574,936,951
575,934,949
576,927,951
577,923,945
578,920,947
579,920,947
580,922,949
581,925,948
582,924,948
583,923,948
584,924,947
585,921,945
586,920,944
587,918,943
588,914,945
589,914,945
590,914,947
591,915,948
592,916,949
593,917,952
594,914,950
595,916,951
596,915,950
597,912,948
598,910,945
599,909,945
600,906,946
601,908,949
602,915,950
603,919,951
604,922,955
605,927,957
606,931,958
607,937,962
608,947,969
609,965,976
610,990,988
611,1025,1000
612,1063,1020
613,1106,1040
614,1153,1063
615,1196,1080
616,1234,1093
617,1252,1091
618,1249,1069
619,1221,1037
620,1162,995
621,1080,950
622,981,912
623,875,882
624,775,861
625,705,839
626,672,821
627,682,806
628,717,808
629,768,809
630,814,813
631,854,829
632,880,848
633,897,870
634,906,892
635,906,913
636,903,935
637,899,951
638,899,961
639,901,968
640,903,971
641,908,974
642,911,974
643,913,978
644,911,976
645,913,975
646,914,977
647,914,978
648,916,980
649,917,983
650,922,987
651,925,988
652,929,989
653,933,991
654,935,991
655,935,993
656,939,994
657,939,993
658,940,993
659,943,995
660,945,999
661,949,1002
662,952,1004
663,953,1006
664,957,1010
665,959,1013
666,963,1014
667,965,1019
668,967,1017
669,967,1020
670,969,1023
671,971,1025
672,975,1027
673,976,1030
674,978,1033
675,980,1036
676,986,1042
677,989,1047
678,992,1051
679,995,1053
680,998,1055
681,999,1060
682,999,1061
683,1003,1066
684,1005,1067
685,1007,1073
686,1012,1079
687,1018,1087
688,1023,1090
689,1027,1095
690,1030,1096
691,1029,1099
692,1029,1098
693,1031,1101
694,1029,1106
695,1026,1103
696,1029,1106
697,1030,1107
698,1031,1111
699,1032,1111
700,1034,1112
701,1031,1113
702,1031,1112
703,1029,1110
704,1027,1107
705,1027,1102
706,1026,1098
707,1024,1092
708,1022,1092
709,1019,1088
710,1015,1086
711,1012,1078
712,1009,1075
713,1007,1070
714,1003,1061
715,997,1055
716,993,1049
717,987,1037
718,980,1027
719,973,1021
720,967,1016
721,962,1012
722,955,1008
723,952,1004
724,949,1001
725,947,997
726,947,993
727,944,989
728,939,983
729,937,979
730,933,977
731,930,974
732,927,974
733,928,972
734,928,973
735,929,975
736,930,976
737,930,974
738,927,973
739,928,972
740,929,972
741,925,970
742,925,968
743,927,970
744,925,967
745,927,967
746,927,971
747,927,972
748,928,975
749,931,976
750,930,976
751,932,977
752,930,975
753,930,975
754,931,972
755,930,971
756,930,971
757,931,972
758,929,972
759,931,976
760,932,977
761,935,979
762,938,978
763,937,977
764,939,974
765,938,976
766,937,971
767,934,972
768,932,974
769,932,974
770,932,975
771,933,973
772,934,976
773,935,974
774,937,978
775,936,975
776,933,974
777,932,972
778,928,969
779,928,969
780,925,970
781,922,968
782,926,970
783,926,970
784,926,973
785,927,970
786,925,970
787,924,968
788,924,968
789,921,966
790,918,964
791,917,963
792,918,963
793,918,961
794,920,962
795,924,964
796,923,967
797,925,967
798,927,965
799,926,966
800,927,965
801,927,964
802,929,965
803,929,963
804,928,962
805,928,965
806,927,965
807,931,969
808,932,972
809,936,972
810,940,974
811,943,975
812,946,978
813,945,974
814,944,976
815,943,976
816,944,976
817,946,980
818,949,983
819,951,983
820,952,987
821,954,989
822,951,988
823,953,989
824,950,985
825,950,981
826,947,978
827,946,972
828,944,970
829,943,970
830,942,969
831,941,968
832,936,967
833,934,965
834,935,963
835,931,961
836,931,959
837,929,956
838,927,957
839,923,954
840,922,955
841,916,952
842,916,952
843,916,952
844,917,954
845,916,955
846,916,952
847,919,951
848,918,952
849,918,950
850,917,950
851,914,951
852,913,949
853,913,950
854,916,953
855,919,954
856,921,955
857,922,957
858,926,955
859,927,955
860,928,957
861,929,953
862,931,952
863,930,950
864,931,954
865,934,953
866,937,955
867,942,960
868,945,959
869,951,963
870,953,968
871,960,973
872,977,980
873,999,989
874,1026,999
875,1059,1010
876,1100,1029
877,1144,1050
878,1188,1070
879,1232,1085
880,1264,1091
881,1277,1080
882,1266,1052
883,1225,1015
884,1161,973
885,1073,930
886,967,898
887,859,866
888,762,844
889,697,822
890,673,808
891,693,798
892,740,800
893,797,807
894,848,819
895,891,835
896,920,858
897,937,883
898,949,909
899,949,933
900,948,953
901,942,967
902,941,974
903,942,978
904,943,981
905,944,983
906,946,983
907,949,986
908,948,988
909,945,988
910,945,988
911,942,992
912,946,991
913,945,996
914,947,999
915,951,1001
916,952,1005
917,954,1007
918,957,1007
919,957,1009
920,958,1010
921,957,1008
922,958,1011
923,960,1011
924,959,1013
925,963,1016
926,965,1018
927,967,1018
928,972,1023
929,973,1025
930,976,1030
931,978,1030
932,979,1029
933,981,1030
934,981,1031
935,983,1035
936,986,1038
937,987,1042
938,990,1045
939,992,1049
940,994,1055
941,997,1057
942,999,1062
943,1004,1066
944,1005,1068
945,1005,1069
946,1008,1075
947,1009,1077
948,1011,1079
949,1013,1087
950,1015,1091
951,1018,1098
952,1020,1100
953,1026,1107
954,1028,1108
955,1027,1112
956,1028,1112
957,1026,1114
958,1027,1116
959,1027,1117
960,1028,1120
961,1029,1123
962,1032,1126
963,1031,1124
964,1033,1126
965,1034,1127
966,1035,1124
967,1035,1125
968,1036,1119
969,1035,1117
970,1032,1112
971,1032,1107
972,1029,1100
973,1027,1098
974,1022,1092
975,1020,1090
976,1015,1084
977,1010,1077
978,1007,1071
979,1003,1062
980,998,1055
981,991,1047
982,982,1037
983,976,1029
984,970,1023
985,962,1018
986,956,1013
987,958,1009
988,955,1004
989,952,1000
990,951,994
991,948,991
992,945,987
993,941,986
994,939,982
995,938,977
996,936,977
997,935,977
998,937,975
999,940,978
1000,939,978
1001,938,974
1002,938,976
1003,939,974
1004,943,973
1005,943,973
1006,946,974
1007,945,972
1008,948,973
1009,949,977
1010,951,976
1011,954,977
1012,951,979
1013,954,978
1014,958,978
1015,959,977
1016,955,978
1017,955,975
1018,955,972
1019,954,973
1020,955,975
1021,957,975
1022,956,978
1023,962,980
1024,963,981
1025,967,978
1026,970,980
1027,971,976
1028,967,972
1029,965,973
1030,962,971
1031,959,971
1032,958,971
1033,957,972
1034,957,973
1035,953,973
1036,953,972
1037,951,975
1038,951,972
1039,950,974
1040,947,971
1041,945,970
1042,941,967
1043,942,969
1044,937,969
1045,934,968
1046,931,970
1047,929,965
1048,927,968
1049,925,964
1050,927,963
1051,924,961
1052,923,960
1053,922,958
1054,921,956
1055,922,956
1056,923,957
1057,924,957
1058,923,957
1059,921,960
1060,921,962
1061,922,960
1062,923,960
1063,923,959
1064,921,958
1065,920,955
1066,917,956
1067,919,957
1068,920,960
1069,920,963
1070,923,966
1071,928,968
1072,929,967
1073,931,974
1074,933,972
1075,929,972
1076,929,973
1077,930,974
1078,930,972
1079,928,974
1080,926,977
1081,928,977
1082,926,979
1083,925,980
1084,922,977
1085,919,977
1086,919,971
1087,916,968
1088,914,963
1089,913,964
1090,908,961
1091,906,960
1092,904,959
1093,902,958
1094,901,957
1095,903,958
1096,903,959
1097,904,957
1098,905,955
1099,906,954
1100,903,948
1101,904,949
1102,905,948
1103,905,945
1104,907,947
1105,910,948
1106,913,950
1107,912,953
1108,916,952
1109,918,952
1110,918,954
1111,918,952
1112,917,951
1113,918,948
1114,917,949
1115,916,950
1116,915,951
1117,915,952
1118,920,953
1119,917,956
1120,920,956
1121,922,956
1122,924,957
1123,924,957
1124,921,958
1125,926,958
1126,927,958
1127,929,960
1128,930,964
1129,935,968
1130,945,978
1131,960,986
1132,986,999
1133,1018,1014
1134,1056,1028
1135,1101,1050
1136,1144,1068
1137,1188,1086
1138,1223,1096
1139,1243,1094
1140,1242,1076
1141,1210,1050
1142,1151,1013
1143,1064,974
1144,962,938
1145,854,910
1146,757,882
1147,693,863
1148,668,837
1149,683,824
1150,731,820
1151,786,820
1152,839,831
1153,883,846
1154,910,871
1155,933,897
1156,942,925
1157,944,948
1158,944,962
1159,942,972
1160,937,975
1161,939,976
1162,941,977
1163,942,979
1164,945,982
1165,949,983
1166,950,987
1167,952,988
1168,953,992
1169,955,995
1170,957,997
1171,960,996
1172,960,996
1173,962,994
1174,958,997
1175,959,994
1176,961,999
1177,960,999
1178,961,1003
1179,964,1005
1180,970,1007
1181,972,1011
1182,974,1008
1183,976,1010
1184,976,1012
1185,975,1011
1186,976,1014
1187,973,1015
1188,977,1015
1189,977,1019
1190,980,1023
1191,982,1025
1192,986,1032
1193,990,1033
1194,992,1034
1195,994,1035
1196,996,1038
1197,998,1038
1198,1002,1043
1199,1008,1045
1200,1008,1046
1201,1009,1050
1202,1014,1057
1203,1018,1062
1204,1023,1068
1205,1025,1072
1206,1030,1073
1207,1034,1076
1208,1037,1076
1209,1036,1079
1210,1039,1081
1211,1042,1083
1212,1045,1086
1213,1047,1091
1214,1047,1093
1215,1049,1099
1216,1050,1099
1217,1053,1100
1218,1057,1100
1219,1058,1099
1220,1058,1100
1221,1058,1097
1222,1055,1097
1223,1056,1099
1224,1053,1096
1225,1052,1097
1226,1053,1096
1227,1054,1095
1228,1053,1095
1229,1055,1091
1230,1055,1087
1231,1051,1083
1232,1048,1079
1233,1041,1071
1234,1034,1067
1235,1027,1060
1236,1023,1056
1237,1018,1051
1238,1014,1050
1239,1012,1043
1240,1010,1037
1241,1008,1034
1242,1000,1025
1243,998,1022
1244,992,1014
1245,987,1009
1246,981,1004
1247,976,1001
1248,973,999
1249,969,996
1250,967,996
1251,964,992
1252,964,989
1253,963,991
1254,959,989
1255,959,988
1256,958,984
1257,955,982
1258,954,981
1259,954,983
1260,952,983
1261,950,981
1262,948,986
1263,948,985
1264,950,986
1265,952,986
1266,955,985
1267,953,983
1268,957,983
1269,956,983
1270,957,984
1271,956,981
1272,956,983
1273,955,982
1274,955,983
1275,959,988
1276,957,984
1277,959,987
1278,958,986
1279,957,984
1280,958,982
1281,955,979
1282,954,978
1283,951,978
1284,952,979
1285,954,980
1286,953,980
1287,954,981
1288,957,982
1289,958,982
1290,958,980
1291,958,981
1292,956,981
1293,955,981
1294,950,977
1295,949,977
1296,950,975
1297,955,976
1298,956,979
1299,957,978
1300,958,979
1301,961,978
1302,959,978
1303,960,979
1304,959,975
1305,959,973
1306,957,970
1307,956,971
1308,956,972
1309,959,969
1310,959,972
1311,959,971
1312,960,970
1313,962,971
1314,963,968
1315,964,968
1316,961,966
1317,961,963
1318,958,965
1319,957,963
1320,953,962
1321,953,964
1322,955,964
1323,955,966
1324,957,969
1325,958,968
1326,963,969
1327,963,966
1328,966,970
1329,966,967
1330,968,967
1331,967,970
1332,972,972
1333,973,977
1334,977,978
1335,980,980
1336,982,980
1337,984,982
1338,988,982
1339,989,982
1340,988,982
1341,986,981
1342,982,980
1343,978,979
1344,977,978
1345,973,974
1346,975,974
1347,973,973
1348,974,973
1349,975,974
1350,973,971
1351,972,970
1352,968,969
1353,964,967
1354,958,964
1355,955,962
1356,952,963
1357,952,965
1358,951,967
1359,949,964
1360,948,965
1361,946,964
1362,943,963
1363,943,961
1364,943,960
1365,940,960
1366,940,956
1367,939,953
1368,937,955
1369,940,957
1370,940,959
1371,942,961
1372,941,962
1373,945,961
1374,943,963
1375,942,961
1376,941,958
1377,940,959
1378,938,956
1379,938,960
1380,939,961
1381,940,960
1382,941,962
1383,940,965
1384,942,967
1385,942,968
1386,945,970
1387,944,969
1388,945,969
1389,946,969
1390,946,969
1391,950,973
1392,958,981
1393,971,993
1394,990,1003
1395,1023,1020
1396,1057,1037
1397,1101,1059
1398,1141,1077
1399,1183,1098
1400,1216,1108
1401,1237,1104
1402,1237,1089
1403,1214,1057
1404,1165,1020
1405,1091,979
1406,1005,946
1407,909,916
1408,820,893
1409,751,870
1410,718,849
1411,719,836
1412,748,825
1413,795,825
1414,841,831
1415,882,844
1416,911,867
1417,936,892
1418,948,920
1419,954,943
1420,956,963
1421,953,978
1422,953,983
1423,952,988
1424,951,987
1425,952,988
1426,954,988
1427,955,989
1428,954,992
1429,956,996
1430,959,999
1431,960,1001
1432,961,1004
1433,963,1005
1434,967,1006
1435,969,1008
1436,971,1008
1437,966,1006
1438,969,1007
1439,968,1009
1440,970,1011
1441,970,1014
1442,973,1014
1443,977,1020
1444,980,1023
1445,986,1025
1446,988,1025
1447,993,1029
1448,994,1027
1449,994,1030
1450,992,1030
1451,995,1032
1452,996,1035
1453,1000,1035
1454,1008,1039
1455,1012,1046
1456,1017,1049
1457,1022,1053
1458,1026,1055
1459,1029,1056
1460,1031,1058
1461,1032,1061
1462,1035,1062
1463,1040,1065
1464,1042,1070
1465,1046,1075
1466,1050,1078
1467,1055,1082
1468,1059,1088
1469,1063,1092
1470,1065,1091
1471,1067,1095
1472,1071,1097
1473,1070,1098
1474,1072,1099
1475,1072,1101
1476,1073,1103
1477,1074,1105
1478,1074,1109
1479,1077,1110
1480,1078,1113
1481,1079,1113
1482,1073,1114
1483,1071,1111
1484,1065,1109
1485,1062,1109
1486,1057,1105
1487,1051,1105
1488,1049,1105
1489,1050,1101
1490,1050,1100
1491,1046,1099
1492,1043,1096
1493,1045,1091
1494,1042,1087
1495,1037,1081
1496,1031,1073
1497,1026,1065
1498,1021,1058
1499,1015,1053
1500,1010,1047
1501,1004,1044
1502,997,1038
1503,995,1030
1504,990,1027
1505,986,1023
1506,981,1018
1507,976,1011
1508,973,1005
1509,967,1000
1510,964,995
1511,961,993
1512,959,990
1513,955,987
1514,954,988
1515,953,985
1516,954,985
1517,951,987
1518,950,983
1519,950,982
1520,947,978
1521,946,979
1522,946,977
1523,944,976
1524,943,972
1525,940,975
1526,941,974
1527,939,977
1528,940,979
1529,942,978
1530,941,977
1531,941,980
1532,939,978
1533,939,977
1534,937,975
1535,937,976
1536,936,977
1537,937,979
1538,934,980
1539,937,983
1540,938,982
1541,935,982
1542,938,983
1543,939,983
1544,938,981
1545,937,978
1546,938,979
1547,939,978
1548,941,978
1549,939,980
1550,943,980
1551,944,979
1552,947,983
1553,949,985
1554,945,982
1555,946,982
1556,946,979
1557,947,978
1558,947,975
1559,947,975
1560,946,977
1561,947,977
1562,952,978
1563,955,980
1564,956,980
1565,957,980
1566,958,981
1567,958,981
1568,961,980
1569,957,977
1570,960,975
1571,957,977
1572,955,975
1573,954,976
1574,955,978
1575,955,979
1576,954,983
1577,957,983
1578,956,979
1579,956,981
1580,955,979
1581,951,978
1582,950,978
1583,948,977
1584,948,978
1585,948,980
1586,949,983
1587,952,980
1588,955,983
1589,957,985
1590,961,987
1591,963,988
1592,966,989
1593,965,990
1594,964,991
1595,965,991
1596,965,992
1597,965,994
1598,968,994
1599,970,995
1600,973,1000
1601,973,1000
1602,974,1002
1603,973,999
1604,971,999
1605,968,997
1606,966,993
1607,963,990
1608,962,986
1609,961,985
1610,961,983
1611,962,985
1612,963,985
1613,962,986
1614,957,986
1615,957,983
1616,954,980
1617,954,975
1618,948,973
1619,946,973
1620,947,972
1621,947,973
1622,943,972
1623,939,973
1624,940,973
1625,941,970
1626,942,969
1627,941,967
1628,944,966
1629,943,966
1630,943,965
1631,945,965
1632,945,967
1633,943,968
1634,945,973
1635,948,974
1636,950,980
1637,955,983
1638,960,982
1639,962,985
1640,961,985
1641,964,988
1642,966,989
1643,963,992
1644,967,995
1645,971,1000
1646,982,1004
1647,988,1010
1648,993,1017
1649,1000,1018
1650,1003,1021
1651,1011,1023
1652,1019,1026
1653,1024,1027
1654,1029,1031
1655,1036,1031
1656,1046,1037
1657,1057,1048
1658,1075,1060
1659,1100,1076
1660,1129,1093
1661,1163,1112
1662,1197,1132
1663,1237,1155
1664,1275,1178
1665,1309,1194
1666,1333,1199
1667,1343,1194
1668,1330,1174
1669,1294,1143
1670,1237,1108
1671,1160,1078
1672,1074,1054
1673,986,1032
1674,901,1010
1675,839,987
1676,806,961
1677,796,938
1678,811,924
1679,835,913
1680,862,913
1681,886,921
1682,903,935
1683,918,946
1684,922,961
1685,926,971
1686,923,976
1687,920,978
1688,918,979
1689,916,978
1690,917,974
1691,914,973
1692,915,975
1693,918,976
1694,920,979
1695,922,980
1696,923,984
1697,926,985
1698,928,986
1699,931,984
1700,929,979
1701,929,982
1702,927,981
1703,930,981
1704,927,983
1705,928,983
1706,929,987
1707,928,987
1708,927,988
1709,928,991
1710,928,990
1711,929,986
1712,929,985
1713,929,983
1714,931,985
1715,928,984
1716,929,991
1717,928,988
1718,930,989
1719,932,991
1720,932,992
1721,935,996
1722,937,995
1723,939,994
1724,940,992
1725,940,990
1726,940,993
1727,939,993
1728,940,993
1729,940,996
1730,943,998
1731,944,1000
1732,948,1004
1733,950,1007
1734,953,1005
1735,957,1008
1736,958,1009
1737,957,1007
1738,956,1011
1739,959,1010
1740,960,1013
1741,963,1017
1742,966,1019
1743,969,1024
1744,972,1024
1745,974,1029
1746,973,1027
1747,977,1031
1748,976,1031
1749,976,1031
1750,976,1031
1751,976,1033
1752,978,1034
1753,983,1038
1754,985,1041
1755,989,1043
1756,989,1042
1757,994,1043
1758,994,1042
1759,996,1036
1760,995,1035
1761,995,1032
1762,991,1030
1763,990,1025
1764,988,1022
1765,983,1019
1766,982,1017
1767,980,1016
1768,979,1014
1769,979,1010
1770,976,1006
1771,974,1005
1772,970,1002
1773,970,997
1774,965,992
1775,963,991
1776,965,990
1777,964,990
1778,964,988
1779,963,986
1780,966,990
1781,967,989
1782,966,988
1783,967,986
1784,966,984
1785,966,981
1786,964,980
1787,964,979
1788,964,979
1789,963,979
1790,968,982
1791,970,980
1792,973,984
1793,971,984
1794,973,981
1795,975,982
1796,975,982
1797,976,982
1798,977,977
1799,975,978
1800,976,979
1801,975,978
1802,974,981
1803,977,981
1804,975,983
1805,978,983
1806,977,984
1807,978,983
1808,976,984
1809,973,982
1810,967,980
1811,965,979
1812,963,979
1813,963,982
1814,961,983
1815,961,981
1816,959,981
1817,957,985
1818,957,985
1819,955,982
1820,953,981
1821,952,978
1822,948,979
1823,949,977
1824,947,978
1825,946,976
1826,947,977
1827,945,979
1828,944,979
1829,944,981
1830,944,980
1831,943,981
1832,941,978
1833,944,976
1834,938,974
1835,937,972
1836,936,973
1837,935,973
1838,936,973
1839,935,975
1840,936,977
1841,936,976
1842,938,977
1843,937,976
1844,936,972
1845,936,973
1846,935,970
1847,933,969
1848,933,970
1849,935,971
1850,934,972
1851,938,973
1852,942,976
1853,942,978
1854,945,980
1855,949,981
1856,949,978
1857,948,980
1858,949,980
1859,948,985
1860,951,986
1861,954,988
1862,956,987
1863,956,991
1864,960,994
1865,962,993
1866,964,997
1867,960,998
1868,960,997
1869,957,994
1870,955,994
1871,952,989
1872,951,989
1873,948,985
1874,948,984
1875,946,985
1876,944,984
1877,945,988
1878,942,985
1879,942,985
1880,941,981
1881,940,980
1882,937,975
1883,936,977
1884,936,978
1885,934,976
1886,930,976
1887,931,976
1888,932,976
1889,932,974
1890,933,972
1891,936,972
1892,938,970
1893,941,972
1894,942,970
1895,942,970
1896,947,971
1897,951,974
1898,958,981
1899,966,982
1900,971,984
1901,979,988
1902,976,991
1903,980,996
1904,989,996
1905,988,999
1906,995,1001
1907,998,1002
1908,1003,1008
1909,1011,1014
1910,1019,1020
1911,1025,1024
1912,1030,1030
1913,1040,1031
1914,1049,1037
1915,1058,1039
1916,1066,1040
1917,1073,1046
1918,1080,1054
1919,1095,1065
1920,1112,1081
1921,1132,1098
1922,1161,1122
1923,1191,1147
1924,1229,1172
1925,1265,1196
1926,1295,1210
1927,1314,1208
1928,1317,1185
1929,1298,1152
1930,1258,1107
1931,1200,1068
1932,1119,1033
1933,1027,1002
1934,937,983
1935,859,961
1936,814,942
1937,804,926
1938,815,915
1939,847,914
1940,878,915
1941,905,924
1942,924,935
1943,933,948
1944,935,963
1945,930,972
1946,928,977
1947,926,981
1948,924,981
1949,924,980
1950,925,979
1951,927,978
1952,927,978
1953,929,978
1954,927,979
1955,926,978
1956,925,980
1957,921,979
1958,921,980
1959,922,979
1960,922,983
1961,923,983
1962,922,983
1963,921,985
1964,919,984
1965,916,981
1966,914,983
1967,914,982
1968,910,983
1969,908,983
1970,907,986
1971,904,989
1972,905,993
1973,909,994
1974,907,996
1975,907,992
1976,904,992
1977,903,991
1978,900,989
1979,898,990
1980,895,992
1981,895,994
1982,897,995
1983,897,998
1984,898,999
1985,901,1000
1986,901,1001
1987,899,1003
1988,902,1000
1989,902,1001
1990,901,1002
1991,900,1003
1992,901,1006
1993,902,1006
1994,907,1010
1995,913,1013
1996,914,1017
1997,919,1019
1998,921,1020
1999,924,1022
2000,926,1025
2001,929,1027
2002,932,1027
2003,933,1028
2004,939,1031
2005,941,1035
2006,948,1036
2007,953,1041
2008,955,1044
2009,959,1050
2010,960,1048
2011,965,1051
2012,966,1050
2013,967,1050
2014,970,1049
2015,970,1050
2016,972,1053
2017,972,1053
2018,973,1057
2019,975,1057
2020,976,1057
2021,977,1056
2022,978,1055
2023,979,1053
2024,978,1049
2025,975,1044
2026,970,1040
2027,965,1036
2028,963,1034
2029,961,1031
2030,959,1030
2031,956,1027
2032,956,1025
2033,956,1025
2034,955,1021
2035,951,1018
2036,949,1012
2037,945,1010
2038,942,1009
2039,942,1003
2040,938,1005
2041,939,1005
2042,939,1002
2043,942,1003
2044,943,1001
2045,944,1005
2046,944,1004
2047,945,1001
2048,944,999
2049,944,998
2050,946,996
2051,943,996
2052,945,993
2053,949,995
2054,949,996
2055,952,997
2056,954,997
2057,954,998
2058,955,1000
2059,956,996
2060,957,995
2061,956,995
2062,958,992
2063,957,992
2064,955,991
2065,957,991
2066,958,993
2067,960,994
2068,958,995
2069,960,997
2070,961,994
2071,964,995
2072,962,990
2073,965,991
2074,961,988
2075,959,988
2076,958,989
2077,956,988
2078,956,989
2079,956,989
2080,958,990
2081,959,991
2082,959,990
2083,961,990
2084,958,989
2085,957,988
2086,957,986
2087,953,985
2088,952,981
2089,951,984
2090,951,985
2091,953,986
2092,952,986
2093,953,988
2094,954,989
2095,955,986
2096,952,984
2097,952,981
2098,949,982
2099,948,979
2100,950,980
2101,950,980
2102,948,982
2103,950,984
2104,949,983
2105,948,986
2106,949,985
2107,947,984
2108,949,981
2109,947,984
2110,943,982
2111,943,981
2112,939,980
2113,937,982
2114,937,982
2115,937,984
2116,938,986
2117,940,986
2118,937,986
2119,938,988
2120,938,987
2121,937,986
2122,936,982
2123,934,981
2124,935,983
2125,934,983
2126,937,986
2127,937,986
2128,942,988
2129,946,991
2130,950,990
2131,955,994
2132,958,995
2133,959,995
2134,962,995
2135,963,997
2136,967,1002
2137,971,1003
2138,975,1005
2139,978,1011
2140,978,1012
2141,982,1014
2142,982,1013
2143,980,1016
2144,980,1011
2145,979,1006
2146,975,1002
2147,975,995
2148,974,992
2149,972,991
2150,972,992
2151,969,993
2152,967,992
2153,967,994
2154,965,992
2155,965,991
2156,966,989
2157,963,986
2158,958,984
2159,954,981
2160,951,979
2161,948,977
2162,947,979
2163,950,978
2164,952,978
2165,955,980
2166,959,979
2167,963,979
2168,967,982
2169,970,980
2170,969,981
2171,968,981
2172,968,983
2173,968,986
2174,973,990
2175,979,995
2176,984,1000
2177,986,1003
2178,994,1005
2179,997,1010
2180,1001,1014
2181,1007,1016
2182,1010,1022
2183,1016,1022
2184,1023,1029
2185,1031,1032
2186,1038,1037
2187,1048,1042
2188,1056,1046
2189,1064,1053
2190,1073,1058
2191,1086,1069
2192,1102,1080
2193,1122,1093
2194,1150,1111
2195,1179,1133
2196,1216,1155
2197,1252,1178
2198,1289,1196
2199,1319,1202
2200,1336,1191
2201,1336,1163
2202,1311,1125
2203,1269,1082
2204,1201,1045
2205,1116,1015
2206,1026,994
2207,939,977
2208,874,956
2209,838,938
2210,831,925
2211,850,914
2212,879,911
2213,911,917
2214,939,921
2215,956,937
2216,967,950
2217,968,964
2218,967,973
2219,964,978
2220,957,980
2221,955,982
2222,954,982
2223,956,983
2224,960,982
2225,963,983
2226,962,983
2227,961,983
2228,960,983
2229,960,981
2230,958,982
2231,958,981
2232,958,980
2233,959,978
2234,958,982
2235,958,986
2236,959,986
2237,962,987
2238,960,985
2239,959,986
2240,959,988
2241,957,985
2242,956,983
2243,956,984
2244,953,983
2245,952,985
2246,953,988
2247,953,989
2248,952,992
2249,951,991
2250,955,992
2251,953,991
2252,953,992
2253,953,993
2254,953,993
2255,950,994
2256,949,996
2257,947,1000
2258,948,1001
2259,950,1005
2260,950,1007
2261,954,1008
2262,956,1009
2263,956,1010
2264,956,1012
2265,953,1012
2266,953,1012
2267,950,1013
2268,952,1016
2269,952,1017
2270,954,1020
2271,956,1024
2272,959,1029
2273,961,1030
2274,960,1031
2275,962,1031
2276,963,1033
2277,962,1032
2278,961,1033
2279,962,1034
2280,962,1035
2281,963,1036
2282,963,1038
2283,966,1040
2284,967,1043
2285,967,1047
2286,968,1045
2287,972,1045
2288,970,1044
2289,973,1046
2290,975,1044
2291,971,1043
2292,970,1043
2293,970,1042
2294,969,1041
2295,968,1040
2296,967,1039
2297,967,1037
2298,969,1033
2299,969,1027
2300,968,1026
2301,964,1020
2302,961,1016
2303,959,1012
2304,959,1007
2305,958,1006
2306,956,1004
2307,956,1002
2308,956,1003
2309,955,1000
2310,956,998
2311,952,996
2312,952,995
2313,950,992
2314,949,991
2315,950,991
2316,949,986
2317,947,985
2318,947,986
2319,948,988
2320,948,988
2321,951,990
2322,949,987
2323,951,987
2324,950,989
2325,947,987
2326,946,985
2327,950,985
2328,948,984
2329,949,984
2330,949,986
2331,951,989
2332,952,990
2333,953,990
2334,955,989
2335,957,987
2336,956,988
2337,960,989
2338,958,989
2339,957,988
2340,959,988
2341,960,989
2342,961,988
2343,962,988
2344,963,989
2345,967,990
2346,970,989
2347,972,988
2348,972,987
2349,974,986
2350,971,984
2351,971,981
2352,968,980
2353,966,979
2354,968,980
2355,970,982
2356,976,982
2357,978,984
2358,980,982
2359,978,978
2360,979,980
2361,978,978
2362,978,975
2363,974,976
2364,972,975
2365,972,976
2366,971,978
2367,970,978
2368,967,979
2369,965,976
2370,966,979
2371,963,976
2372,960,972
2373,957,972
2374,956,971
2375,955,970
2376,954,969
2377,951,970
2378,951,971
2379,950,973
2380,950,977
2381,948,974
2382,946,976
2383,947,973
2384,946,971
2385,945,971
2386,943,969
2387,942,968
2388,940,965
2389,939,970
2390,940,971
2391,940,971
2392,943,974
2393,948,974
2394,949,976
2395,954,976
2396,958,979
2397,959,981
2398,958,979
2399,959,979
2400,959,980
2401,959,983
2402,960,984
2403,962,984
2404,964,991
2405,964,991
2406,965,990
2407,965,989
2408,962,985
2409,959,983
2410,953,981
2411,947,979
2412,946,976
2413,943,976
2414,940,973
2415,939,975
2416,939,973
2417,935,973
2418,935,972
2419,931,970
2420,926,970
2421,923,966
2422,920,964
2423,917,964
2424,913,961
2425,912,959
2426,911,959
2427,912,959
2428,912,958
2429,913,960
2430,916,960
2431,922,962
2432,921,960
2433,925,961
2434,928,961
2435,928,961
2436,933,961
2437,934,965
2438,939,968
2439,943,973
2440,949,978
2441,954,982
2442,959,986
2443,965,989
2444,971,991
2445,975,993
2446,980,996
2447,982,998
2448,989,1002
2449,992,1007
2450,998,1011
2451,1008,1015
2452,1016,1021
2453,1027,1026
2454,1036,1029
2455,1044,1032
2456,1049,1036
2457,1057,1043
2458,1069,1052
2459,1084,1063
2460,1109,1077
2461,1138,1096
2462,1176,1121
2463,1218,1146
2464,1264,1173
2465,1305,1202
2466,1336,1213
2467,1359,1205
2468,1364,1187
2469,1346,1154
2470,1301,1115
2471,1230,1078
2472,1140,1049
2473,1040,1021
2474,940,1003
2475,859,979
2476,804,958
2477,789,937
2478,799,920
2479,827,908
2480,862,907
2481,892,910
2482,915,920
2483,930,935
2484,939,950
2485,939,964
2486,937,972
2487,933,977
2488,930,980
2489,927,981
2490,930,979
2491,933,977
2492,936,977
2493,938,977
2494,937,976
2495,935,976
2496,934,976
2497,935,976
2498,934,978
2499,938,978
2500,941,979
2501,942,980
2502,943,979
2503,946,979
2504,944,980
2505,942,978
2506,940,976
2507,943,973
2508,942,974
2509,942,975
2510,943,975
2511,944,977
2512,945,978
2513,946,980
2514,947,978
2515,946,979
2516,945,981
2517,944,977
2518,942,976
2519,937,977
2520,940,977
2521,941,979
2522,940,978
2523,941,981
2524,940,985
2525,943,986
2526,944,986
2527,943,985
2528,943,987
2529,942,986
2530,940,985
2531,943,985
2532,942,988
2533,942,988
2534,945,992
2535,945,995
2536,946,1000
2537,950,1002
2538,953,1003
2539,955,1004
2540,959,1008
2541,958,1007
2542,958,1008
2543,960,1008
2544,958,1012
2545,959,1016
2546,960,1016
2547,964,1020
2548,966,1021
2549,969,1023
2550,972,1025
2551,972,1027
2552,973,1028
2553,972,1025
2554,970,1028
2555,971,1028
2556,970,1028
2557,970,1030
2558,971,1031
2559,972,1031
2560,974,1032
2561,972,1033
2562,973,1033
2563,973,1029
2564,971,1027
2565,968,1022
2566,965,1017
2567,963,1015
2568,962,1013
2569,961,1011
2570,958,1010
2571,958,1008
2572,955,1006
2573,956,1006
2574,956,1003
2575,956,1002
2576,956,1000
2577,957,995
2578,954,993
2579,952,990
2580,947,989
2581,945,989
2582,945,989
2583,948,988
2584,952,989
2585,954,989
2586,954,989
2587,959,989
2588,958,986
2589,958,986
2590,950,983
2591,950,983
2592,945,981
2593,948,983
2594,949,981
2595,949,984
2596,947,985
2597,953,986
2598,956,983
2599,960,983
2600,961,982
2601,960,981
2602,964,981
2603,962,981
2604,964,978
2605,967,981
2606,969,980
2607,969,980
2608,969,981
2609,967,980
2610,965,981
2611,967,980
2612,967,977
2613,964,977
2614,969,975
2615,966,973
2616,967,972
2617,967,976
2618,966,975
2619,970,977
2620,973,979
2621,970,978
2622,970,980
2623,971,976
2624,972,976
2625,971,974
2626,968,971
2627,965,970
2628,965,971
2629,965,974
2630,964,970
2631,966,974
2632,968,974
2633,971,975
2634,973,975
2635,970,973
2636,972,971
2637,972,969
2638,969,966
2639,968,967
2640,969,966
2641,970,967
2642,971,965
2643,970,969
2644,971,967
2645,971,970
2646,973,971
2647,973,971
2648,973,969
2649,973,968
2650,972,969
2651,974,972
2652,974,971
2653,977,974
2654,980,977
2655,985,980
2656,987,983
2657,988,985
2658,990,987
2659,988,985
2660,993,987
2661,997,986
2662,998,986
2663,1001,987
2664,1000,986
2665,999,988
2666,998,990
2667,997,989
2668,994,988
2669,993,985
2670,991,984
2671,991,979
2672,990,978
2673,987,977
2674,986,975
2675,980,975
2676,979,975
2677,974,974
2678,969,973
2679,965,973
2680,965,974
2681,966,975
2682,965,972
2683,969,975
2684,968,973
2685,961,970
2686,960,968
2687,957,964
2688,954,962
2689,953,962
2690,957,967
2691,958,968
2692,962,972
2693,965,975
2694,966,975
2695,966,977
2696,968,979
2697,970,979
2698,968,980
2699,971,979
2700,973,984
2701,972,988
2702,973,990
2703,975,995
2704,977,1000
2705,980,1004
2706,985,1011
2707,988,1012
2708,993,1016
2709,997,1017
2710,1000,1020
2711,1006,1023
2712,1012,1025
2713,1017,1028
2714,1025,1031
2715,1031,1040
2716,1040,1044
2717,1054,1055
2718,1068,1071
2719,1094,1084
2720,1126,1102
2721,1162,1125
2722,1205,1147
2723,1247,1171
2724,1295,1194
2725,1333,1205
2726,1364,1204
2727,1375,1184
2728,1363,1148
2729,1328,1110
2730,1263,1069
2731,1175,1035
2732,1067,1006
2733,950,982
2734,845,959
2735,770,939
2736,740,919
2737,748,912
2738,785,908
2739,835,912
2740,880,920
2741,915,933
2742,933,944
2743,941,957
2744,942,966
2745,934,973
2746,929,974
2747,925,974
2748,923,974
2749,923,973
2750,925,975
2751,928,976
2752,929,979
2753,930,978
2754,931,980
2755,932,979
2756,935,980
2757,933,979
2758,935,978
2759,933,978
2760,934,977
2761,935,978
2762,934,981
2763,937,984
2764,936,984
2765,938,985
2766,940,986
2767,941,984
2768,941,985
2769,939,983
2770,941,984
2771,939,981
2772,938,984
2773,940,984
2774,941,985
2775,943,988
2776,945,988
2777,948,990
2778,948,990
2779,950,989
2780,950,990
2781,950,991
2782,952,990
2783,951,990
2784,953,993
2785,956,995
2786,958,999
2787,961,1002
2788,964,1005
2789,965,1006
2790,968,1012
2791,970,1013
2792,973,1010
2793,973,1014
2794,975,1016
2795,975,1016
2796,979,1015
2797,982,1018
2798,984,1021
2799,984,1027
2800,985,1026
2801,988,1031
2802,992,1031
2803,994,1032
2804,993,1031
2805,992,1032
2806,992,1035
2807,995,1034
2808,994,1035
2809,991,1040
2810,989,1042
2811,987,1044
2812,988,1046
2813,986,1045
2814,986,1048
2815,983,1048
2816,982,1047
2817,980,1043
2818,976,1042
2819,975,1039
2820,974,1037
2821,974,1036
2822,974,1032
2823,971,1031
2824,972,1029
2825,968,1026
2826,967,1025
2827,965,1020
2828,960,1014
2829,960,1013
2830,957,1006
2831,955,1005
2832,954,999
2833,952,996
2834,950,996
2835,949,995
2836,948,993
2837,948,993
2838,947,992
2839,945,990
2840,944,987
2841,942,983
2842,942,983
2843,939,979
2844,938,980
2845,937,983
2846,938,981
2847,938,981
2848,938,983
2849,939,983
2850,942,983
2851,947,984
2852,947,982
2853,948,981
2854,946,982
2855,945,980
2856,943,978
2857,939,982
2858,938,981
2859,939,982
2860,940,985
2861,942,984
2862,943,986
2863,941,982
2864,942,984
2865,939,981
2866,935,981
2867,934,978
2868,929,977
2869,926,978
2870,924,977
2871,929,979
2872,927,979
2873,929,982
2874,932,981
2875,930,978
2876,930,978
2877,930,974
2878,931,974
2879,929,970
2880,934,971
2881,934,971
2882,935,970
2883,934,973
2884,934,972
2885,938,974
2886,938,973
2887,941,971
2888,940,972
2889,944,972
2890,945,970
2891,943,969
2892,944,968
2893,946,968
2894,944,970
2895,948,968
2896,949,969
2897,949,971
2898,951,970
2899,953,970
2900,952,970
2901,951,968
2902,951,968
2903,948,966
2904,946,966
2905,946,970
2906,944,970
2907,949,973
2908,953,975
2909,950,978
2910,958,978
2911,958,979
2912,961,980
2913,958,981
2914,959,982
2915,958,984
2916,960,984
2917,959,985
2918,962,989
2919,966,990
2920,968,991
2921,972,996
2922,973,995
2923,973,998
2924,973,997
2925,971,997
2926,970,994
2927,968,991
2928,966,988
2929,964,984
2930,964,985
2931,963,985
2932,963,987
2933,963,988
2934,962,987
2935,956,982
2936,953,983
2937,955,981
2938,951,976
2939,950,974
2940,947,976
2941,943,975
2942,942,976
2943,938,974
2944,935,973
2945,934,972
2946,936,968
2947,934,969
2948,935,969
2949,938,966
2950,938,966
2951,938,965
2952,939,965
2953,939,967
2954,944,968
2955,947,973
2956,953,976
2957,957,979
2958,962,983
2959,966,983
2960,971,987
2961,972,990
2962,975,990
2963,978,993
2964,982,998
2965,986,1000
2966,990,1008
2967,999,1012
2968,1006,1017
2969,1011,1020
2970,1020,1026
2971,1029,1027
2972,1036,1031
2973,1040,1034
2974,1045,1036
2975,1053,1044
2976,1066,1052
2977,1080,1066
2978,1104,1082
2979,1133,1102
2980,1170,1126
2981,1211,1150
2982,1255,1176
2983,1299,1195
2984,1338,1206
2985,1366,1199
2986,1378,1179
2987,1368,1140
2988,1333,1097
2989,1267,1058
2990,1175,1027
2991,1069,1004
2992,957,985
2993,856,965
2994,787,947
2995,763,927
2996,773,914
2997,804,906
2998,845,906
2999,882,914
3000,910,930
3001,929,943
3002,932,958
3003,936,970
3004,932,977
3005,929,982
3006,923,984
3007,923,982
3008,920,983
3009,921,981
3010,922,980
3011,923,979
3012,924,980
3013,927,981
3014,926,983
3015,926,985
3016,928,984
3017,930,987
3018,929,991
3019,931,988
3020,929,988
3021,930,988
3022,929,986
3023,931,985
3024,931,985
3025,932,989
3026,930,987
3027,932,990
3028,935,993
3029,936,992
3030,939,992
3031,942,994
3032,941,995
3033,945,996
3034,942,995
3035,940,996
3036,939,995
3037,937,996
3038,936,997
3039,939,996
3040,941,1002
3041,944,1004
3042,948,1006
3043,950,1005
3044,950,1007
3045,947,1006
3046,947,1009
3047,946,1010
3048,945,1009
3049,945,1009
3050,945,1011
3051,946,1013
3052,948,1019
3053,951,1021
3054,953,1024
3055,954,1024
3056,958,1029
3057,960,1029
3058,963,1031
3059,966,1032
3060,966,1031
3061,969,1034
3062,967,1037
3063,970,1041
3064,971,1044
3065,972,1044
3066,972,1048
3067,971,1046
3068,972,1048
3069,973,1046
3070,972,1046
3071,977,1048
3072,976,1047
3073,976,1048
3074,975,1045
3075,978,1049
3076,980,1049
3077,982,1050
3078,985,1048
3079,985,1046
3080,984,1044
3081,981,1041
3082,979,1036
3083,976,1031
3084,973,1028
3085,966,1026
3086,965,1021
3087,965,1018
3088,967,1015
3089,965,1015
3090,971,1012
3091,968,1007
3092,965,1005
3093,961,999
3094,957,999
3095,956,995
3096,956,992
3097,958,993
3098,959,990
3099,962,991
3100,962,994
3101,966,993
3102,966,992
3103,963,990
3104,965,990
3105,964,990
3106,964,988
3107,966,988
3108,967,985
3109,964,988
3110,964,987
3111,968,988
3112,968,990
3113,969,989
3114,971,991
3115,973,991
3116,974,990
3117,979,987
3118,978,989
3119,977,985
3120,975,983
3121,977,985
3122,978,987
3123,980,989
3124,979,987
3125,980,990
3126,984,992
3127,985,989
3128,985,989
3129,983,983
3130,980,982
3131,978,981
3132,974,981
3133,971,980
3134,970,980
3135,972,983
3136,972,983
3137,970,984
3138,973,985
3139,970,985
3140,972,982
3141,968,981
3142,966,980
3143,962,979
3144,962,978
3145,960,978
3146,960,978
3147,961,979
3148,960,981
3149,963,984
3150,962,983
3151,963,981
3152,961,982
3153,958,978
3154,958,980
3155,957,977
3156,954,977
3157,954,977
3158,953,980
3159,955,983
3160,954,981
3161,954,983
3162,956,984
3163,955,981
3164,957,982
3165,953,981
3166,953,981
3167,954,982
3168,954,983
3169,951,984
3170,952,987
3171,954,988
3172,956,994
3173,959,999
3174,960,1000
3175,962,1000
3176,963,1001
3177,962,1001
3178,962,998
3179,963,998
3180,962,1000
3181,963,1000
3182,964,1004
3183,966,1004
3184,965,1005
3185,965,1002
3186,964,1002
3187,961,998
3188,957,993
3189,956,991
3190,952,986
3191,951,986
3192,949,984
3193,948,982
3194,946,982
3195,942,981
3196,941,979
3197,941,981
3198,941,981
3199,940,982
3200,942,978
3201,936,979
3202,936,975
3203,930,971
3204,928,968
3205,928,967
3206,927,969
3207,927,969
3208,928,968
3209,929,972
3210,932,975
3211,936,974
3212,937,975
3213,939,974
3214,940,974
3215,941,978
3216,942,980
3217,945,983
3218,945,987
3219,949,991
3220,954,997
3221,958,1001
3222,963,1005
3223,970,1008
3224,974,1013
3225,977,1016
3226,982,1019
3227,988,1024
3228,995,1027
3229,1001,1031
3230,1010,1037
3231,1021,1042
3232,1031,1049
3233,1039,1056
3234,1048,1069
3235,1063,1078
3236,1084,1094
3237,1112,1112
3238,1145,1131
3239,1186,1156
3240,1232,1184
3241,1280,1208
3242,1320,1223
3243,1352,1219
3244,1364,1194
3245,1357,1155
3246,1321,1110
3247,1256,1062
3248,1165,1026
3249,1055,995
3250,941,973
3251,841,950
3252,774,933
3253,754,918
3254,770,911
3255,814,908
3256,861,913
3257,907,924
3258,946,938
3259,965,954
3260,977,966
3261,975,979
3262,968,980
3263,962,980
3264,953,982
3265,950,981
3266,948,979
3267,953,981
3268,955,982
3269,956,987
3270,958,987
3271,956,987
3272,956,986
3273,953,984
3274,950,982
3275,948,978
3276,944,979
3277,942,983
3278,945,980
3279,943,985
3280,943,984
3281,942,987
3282,940,989
3283,938,987
3284,935,987
3285,933,988
3286,930,987
3287,927,986
3288,926,985
3289,927,987
3290,929,987
3291,928,986
3292,928,990
3293,928,991
3294,930,991
3295,929,992
3296,929,991
3297,929,991
3298,925,989
3299,924,990
3300,923,989
3301,923,989
3302,922,992
3303,924,994
3304,928,997
3305,932,1001
3306,935,1004
3307,937,1003
3308,939,1005
3309,939,1006
3310,937,1006
3311,935,1005
3312,934,1006
3313,935,1008
3314,933,1010
3315,935,1014
3316,937,1016
3317,939,1019
3318,940,1022
3319,943,1024
3320,943,1024
3321,945,1027
3322,941,1026
3323,941,1027
3324,941,1028
3325,939,1031
3326,939,1031
3327,941,1033
3328,941,1034
3329,944,1037
3330,944,1037
3331,945,1038
3332,946,1040
3333,945,1035
3334,946,1034
3335,946,1032
3336,944,1033
3337,947,1032
3338,946,1031
3339,947,1031
3340,947,1029
3341,947,1025
3342,949,1024
3343,947,1021
3344,946,1018
3345,949,1013
3346,947,1007
3347,945,1002
3348,947,1000
3349,944,997
3350,944,995
3351,948,994
3352,948,996
3353,947,993
3354,951,993
3355,951,993
3356,950,991
3357,952,988
3358,951,986
3359,951,984
3360,950,984
3361,948,986
3362,947,984
3363,945,989
3364,947,986
3365,947,990
3366,951,989
3367,953,989
3368,951,989
3369,949,987
3370,952,986
3371,952,984
3372,949,984
3373,950,983
3374,951,985
3375,951,985
3376,954,988
3377,954,989
3378,953,988
3379,955,988
3380,956,987
3381,956,987
3382,957,985
3383,955,984
3384,955,982
3385,952,983
3386,951,982
3387,952,984
3388,950,982
3389,950,987
3390,950,987
3391,952,985
3392,953,985
3393,950,982
3394,950,981
3395,947,982
3396,945,976
3397,947,977
3398,943,976
3399,944,980
3400,946,979
3401,946,979
3402,948,979
3403,948,978
3404,947,977
3405,947,973
3406,945,974
3407,943,971
3408,942,970
3409,939,970
3410,937,969
3411,937,972
3412,940,972
3413,942,973
3414,945,972
3415,946,974
3416,948,972
3417,944,969
3418,942,969
3419,944,968
3420,941,966
3421,944,967
3422,940,969
3423,944,970
3424,946,971
3425,950,974
3426,952,977
3427,952,979
3428,954,978
3429,957,979
3430,957,981
3431,959,980
3432,957,982
3433,961,982
3434,961,984
3435,965,986
3436,969,989
3437,969,990
3438,974,992
3439,975,992
3440,975,994
3441,975,989
3442,969,984
3443,965,981
3444,962,978
3445,960,975
3446,958,975
3447,958,977
3448,959,976
3449,955,981
3450,955,980
3451,953,975
3452,950,976
3453,947,972
3454,945,968
3455,942,969
3456,941,968
3457,937,969
3458,936,967
3459,934,967
3460,928,967
3461,927,966
3462,925,965
3463,925,964
3464,924,962
3465,923,964
3466,925,963
3467,925,963
3468,927,964
3469,926,967
3470,925,968
3471,929,975
3472,932,974
3473,936,979
3474,937,983
3475,939,986
3476,944,989
3477,944,988
3478,948,992
3479,951,993
3480,954,996
3481,959,1001
3482,965,1006
3483,972,1012
3484,978,1016
3485,989,1021
3486,997,1024
3487,1007,1025
3488,1015,1025
3489,1023,1029
3490,1032,1031
3491,1040,1035
3492,1048,1043
3493,1061,1050
3494,1076,1062
3495,1103,1076
3496,1134,1099
3497,1176,1120
3498,1220,1148
3499,1269,1174
3500,1317,1199
3501,1360,1219
3502,1392,1223
3503,1408,1212
3504,1406,1188
3505,1377,1155
3506,1316,1118
3507,1232,1084
3508,1131,1058
3509,1018,1033
3510,911,1010
3511,827,985
3512,777,958
3513,763,932
3514,780,914
3515,815,906
3516,850,906
3517,887,915
3518,913,926
3519,928,945
3520,938,958
3521,939,971
3522,937,979
3523,934,980
3524,931,979
3525,929,978
3526,928,974
3527,927,971
3528,926,972
3529,926,970
3530,925,971
3531,923,973
3532,922,972
3533,926,975
3534,926,975
3535,928,976
3536,928,974
3537,929,978
3538,928,976
3539,928,972
3540,925,974
3541,925,973
3542,926,976
3543,925,974
3544,927,978
3545,929,979
3546,929,980
3547,931,981
3548,932,978
3549,932,976
3550,931,976
3551,931,973
3552,929,972
3553,928,971
3554,927,974
3555,929,974
3556,929,975
3557,930,978
3558,935,977
3559,934,978
3560,939,977
3561,938,977
3562,936,973
3563,938,971
3564,940,973
3565,940,974
3566,940,976
3567,942,978
3568,945,979
3569,948,982
3570,951,986
3571,954,985
3572,955,986
3573,957,986
3574,956,984
3575,954,987
3576,957,987
3577,959,989
3578,960,992
3579,960,995
3580,962,997
3581,963,1001
3582,964,1002
3583,967,1003
3584,968,1004
3585,970,1004
3586,969,1004
3587,968,1002
3588,970,1004
3589,972,1006
3590,972,1009
3591,974,1010
3592,976,1013
3593,979,1014
3594,981,1018
3595,981,1018
3596,983,1017
3597,984,1017
3598,984,1016
3599,982,1012
3600,981,1012
3601,978,1009
3602,974,1008
3603,974,1009
3604,973,1005
3605,972,1007
3606,970,1008
3607,970,1003
3608,970,999
3609,966,997
3610,962,993
3611,960,990
3612,957,986
3613,954,988
3614,952,988
3615,952,984
3616,953,985
3617,953,985
3618,954,985
3619,954,985
3620,953,982
3621,953,984
3622,952,980
3623,950,980
3624,947,977
3625,944,976
3626,943,978
3627,945,981
3628,946,979
3629,946,983
3630,948,982
3631,948,983
3632,948,981
3633,948,981
3634,947,981
3635,944,980
3636,942,977
3637,942,978
3638,943,979
3639,942,979
3640,943,981
3641,944,982
3642,946,983
3643,949,982
3644,948,981
3645,947,981
3646,947,979
3647,946,977
3648,945,976
3649,945,976
3650,942,976
3651,944,979
3652,941,978
3653,946,979
3654,947,979
3655,949,977
3656,950,977
3657,951,975
3658,949,973
3659,946,970
3660,947,967
3661,945,970
3662,944,970
3663,944,970
3664,945,969
3665,947,971
3666,948,971
3667,947,970
3668,948,968
3669,946,968
3670,946,968
3671,944,966
3672,941,963
3673,941,967
3674,942,965
3675,941,966
3676,943,968
3677,943,969
3678,945,969
3679,943,969
3680,943,968
3681,943,968
3682,941,966
3683,941,968
3684,940,968
3685,942,966
3686,943,970
3687,945,972
3688,948,974
3689,951,978
3690,956,982
3691,959,980
3692,960,983
3693,964,983
3694,965,983
3695,966,982
3696,965,982
3697,970,982
3698,972,982
3699,977,985
3700,981,988
3701,984,990
3702,986,990
3703,988,989
3704,986,987
3705,987,982
3706,984,976
3707,982,974
3708,980,973
3709,978,971
3710,976,972
3711,979,974
3712,977,972
3713,976,972
3714,974,973
3715,972,970
3716,971,970
3717,968,968
3718,968,966
3719,963,961
3720,962,962
3721,959,960
3722,955,959
3723,956,959
3724,956,957
3725,956,960
3726,956,959
3727,956,960
3728,956,964
3729,954,959
3730,953,963
3731,954,964
3732,954,963
3733,955,967
3734,956,970
3735,959,974
3736,959,977
3737,963,979
3738,965,983
3739,967,985
3740,968,990
3741,970,993
3742,973,998
3743,976,1000
3744,977,1004
3745,982,1008
3746,989,1010
3747,995,1014
3748,1004,1019
3749,1014,1025
3750,1023,1029
3751,1032,1032
3752,1038,1036
3753,1045,1042
3754,1056,1054
3755,1068,1063
3756,1089,1080
3757,1119,1101
3758,1153,1127
3759,1194,1153
3760,1239,1181
3761,1278,1203
3762,1316,1213
3763,1343,1205
3764,1355,1185
3765,1345,1151
3766,1310,1110
3767,1248,1070
3768,1169,1035
3769,1077,1008
3770,976,987
3771,883,968
3772,815,947
3773,781,928
3774,778,915
3775,798,905
3776,832,905
3777,862,910
3778,890,917
3779,908,928
3780,918,941
3781,920,950
3782,917,958
3783,914,963
3784,909,967
3785,907,968
3786,908,970
3787,908,969
3788,910,970
3789,908,970
3790,909,969
3791,906,969
3792,906,966
3793,906,967
3794,905,970
3795,906,971
3796,909,969
3797,910,971
3798,915,974
3799,914,975
3800,919,972
3801,919,970
3802,921,968
3803,919,967
3804,917,965
3805,920,966
3806,920,967
3807,922,969
3808,923,974
3809,926,976
3810,930,975
3811,933,977
3812,936,976
3813,938,976
3814,935,977
3815,937,974
3816,937,975
3817,937,974
3818,936,977
3819,937,980
3820,940,983
3821,942,985
3822,943,988
3823,943,992
3824,944,989
3825,946,993
3826,946,991
3827,945,991
3828,945,994
3829,943,993
3830,943,997
3831,943,1000
3832,947,1001
3833,949,1006
3834,952,1009
3835,953,1010
3836,955,1010
3837,957,1012
3838,956,1011
3839,957,1013
3840,953,1014
3841,954,1017
3842,955,1019
3843,957,1024
3844,959,1024
3845,964,1028
3846,970,1032
3847,974,1032
3848,974,1032
3849,977,1031
3850,979,1033
3851,978,1031
3852,973,1030
3853,973,1027
3854,978,1029
3855,977,1031
3856,978,1029
3857,979,1028
3858,979,1028
3859,977,1025
3860,976,1021
3861,974,1018
3862,972,1015
3863,967,1011
3864,966,1008
3865,963,1005
3866,961,1004
3867,963,1001
3868,961,1000
3869,960,999
3870,961,997
3871,962,999
3872,961,994
3873,960,991
3874,960,992
3875,958,987
3876,957,984
3877,956,982
3878,957,984
3879,955,986
3880,957,988
3881,959,986
3882,962,986
3883,963,988
3884,962,987
3885,964,984
3886,965,983
3887,963,982
3888,963,980
3889,964,982
3890,962,981
3891,963,982
3892,962,981
3893,966,983
3894,969,986
3895,970,985
3896,970,985
3897,970,984
3898,967,981
3899,968,981
3900,963,978
3901,962,978
3902,963,978
3903,962,979
3904,961,981
3905,963,982
3906,964,983
3907,966,982
3908,965,981
3909,963,980
3910,962,979
3911,960,977
3912,960,975
3913,959,976
3914,958,975
3915,957,976
3916,955,977
3917,955,977
3918,954,980
3919,956,980
3920,954,977
3921,954,979
3922,954,975
3923,950,977
3924,946,974
3925,946,973
3926,943,973
3927,943,975
3928,943,975
3929,946,976
3930,945,977
3931,948,977
3932,945,975
3933,944,978
3934,941,976
3935,941,973
3936,939,973
3937,938,972
3938,938,973
3939,937,973
3940,934,974
3941,940,975
3942,940,976
3943,941,977
3944,939,976
3945,940,975
3946,942,977
3947,940,975
3948,939,973
3949,940,974
3950,942,977
3951,944,980
3952,948,982
3953,951,985
3954,954,987
3955,962,992
3956,964,993
3957,966,993
3958,967,994
3959,967,993
3960,969,993
3961,969,992
3962,969,997
3963,969,999
3964,970,999
3965,968,999
3966,966,999
3967,965,995
3968,961,991
3969,959,989
3970,956,984
3971,955,981
3972,953,977
3973,954,978
3974,952,979
3975,948,980
3976,945,975
3977,944,979
3978,948,977
3979,952,977
3980,953,975
3981,952,975
3982,953,973
3983,949,970
3984,946,965
3985,942,967
3986,942,967
3987,944,964
3988,947,966
3989,953,966
3990,957,969
3991,959,969
3992,960,968
3993,962,970
3994,965,971
3995,964,972
3996,967,971
3997,970,975
3998,971,980
3999,975,984
4000,979,986
4001,981,992
4002,985,996
4003,991,1002
4004,997,1005
4005,1001,1007
4006,1005,1012
4007,1008,1014
4008,1013,1017
4009,1020,1020
4010,1027,1023
4011,1036,1025
4012,1042,1029
4013,1050,1033
4014,1058,1038
4015,1065,1044
4016,1070,1048
4017,1083,1058
4018,1099,1072
4019,1122,1086
4020,1151,1106
4021,1184,1127
4022,1222,1152
4023,1264,1175
4024,1307,1195
4025,1346,1205
4026,1379,1196
4027,1392,1172
4028,1380,1134
4029,1346,1093
4030,1286,1053
4031,1200,1022
4032,1103,998
4033,1002,978
4034,905,959
4035,833,940
4036,798,924
4037,800,913
4038,828,908
4039,864,908
4040,904,914
4041,934,925
4042,958,936
4043,967,948
4044,968,954
4045,965,965
4046,957,969
4047,953,969
4048,951,971
4049,951,970
4050,953,972
4051,955,973
4052,955,973
4053,955,974
4054,955,973
4055,954,972
4056,950,970
4057,948,967
4058,947,971
4059,947,972
4060,946,975
4061,947,976
4062,949,978
4063,952,980
4064,951,977
4065,951,978
4066,949,978
4067,947,981
4068,947,978
4069,946,977
4070,946,977
4071,948,980
4072,947,982
4073,950,986
4074,951,985
4075,953,986
4076,955,988
4077,957,988
4078,955,988
4079,953,986
4080,954,986
4081,951,985
4082,951,988
4083,951,989
4084,953,991
4085,954,994
4086,953,996
4087,956,996
4088,954,997
4089,954,999
4090,952,1000
4091,951,997
4092,950,998
4093,950,1001
4094,952,1003
4095,953,1005
4096,952,1009
4097,956,1013
4098,956,1015
4099,959,1019
4100,958,1019
4101,960,1021
4102,964,1021
4103,964,1021
4104,960,1020
4105,962,1020
4106,964,1024
4107,964,1026
4108,965,1029
4109,966,1031
4110,969,1033
4111,973,1035
4112,974,1035
4113,975,1036
4114,978,1034
4115,978,1033
4116,979,1035
4117,982,1029
4118,981,1034
4119,981,1036
4120,982,1032
4121,985,1033
4122,986,1033
4123,986,1033
4124,984,1028
4125,980,1025
4126,978,1020
4127,977,1017
4128,971,1012
4129,967,1008
4130,960,1008
4131,963,1005
4132,964,1003
4133,965,1001
4134,967,1002
4135,964,1000
4136,965,996
4137,961,993
4138,958,991
4139,955,990
4140,954,986
4141,951,984
4142,950,985
4143,954,985
4144,955,987
4145,956,988
4146,957,987
4147,958,989
4148,958,987
4149,961,984
4150,961,982
4151,960,984
4152,957,983
4153,960,981
4154,958,982
4155,960,981
4156,962,982
4157,964,985
4158,966,988
4159,972,988
4160,971,984
4161,974,984
4162,977,983
4163,975,984
4164,975,984
4165,975,981
4166,978,980
4167,978,982
4168,979,984
4169,980,984
4170,981,983
4171,983,984
4172,985,982
4173,987,983
4174,983,980
4175,985,977
4176,983,978
4177,982,974
4178,982,976
4179,980,978
4180,982,976
4181,983,977
4182,983,976
4183,984,976
4184,984,975
4185,981,974
4186,980,972
4187,978,969
4188,980,968
4189,976,967
4190,973,966
4191,970,968
4192,968,969
4193,966,969
4194,966,969
4195,965,969
4196,961,969
4197,958,969
4198,958,968
4199,954,966
4200,952,963
4201,949,964
4202,950,965
4203,948,964
4204,946,966
4205,947,969
4206,948,969
4207,947,968
4208,945,965
4209,946,967
4210,946,965
4211,942,962
4212,943,963
4213,940,960
4214,939,960
4215,939,960
4216,941,960
4217,941,961
4218,944,962
4219,944,963
4220,946,959
4221,947,962
4222,947,959
4223,946,958
4224,946,957
4225,947,956
4226,948,958
4227,951,959
4228,956,963
4229,960,966
4230,963,969
4231,967,970
4232,969,972
4233,972,976
4234,973,975
4235,972,974
4236,974,974
4237,974,978
4238,973,980
4239,972,984
4240,971,984
4241,969,986
4242,967,989
4243,965,985
4244,963,987
4245,960,982
4246,957,979
4247,949,975
4248,946,973
4249,942,970
4250,938,969
4251,933,967
4252,931,967
4253,930,966
4254,926,967
4255,929,968
4256,930,968
4257,931,963
4258,930,965
4259,926,961
4260,924,957
4261,921,954
4262,918,954
4263,919,954
4264,922,956
4265,929,957
4266,932,960
4267,937,959
4268,941,961
4269,944,963
4270,949,964
4271,948,966
4272,951,966
4273,955,967
4274,959,973
4275,964,975
4276,969,980
4277,972,987
4278,979,991
4279,982,996
4280,989,1001
4281,993,1006
4282,999,1008
4283,1004,1012
4284,1011,1013
4285,1017,1016
4286,1025,1021
4287,1033,1026
4288,1041,1030
4289,1049,1040
4290,1059,1048
4291,1071,1058
4292,1089,1074
4293,1113,1090
4294,1143,1107
4295,1175,1129
4296,1214,1152
4297,1256,1175
4298,1300,1190
4299,1340,1192
4300,1372,1173
4301,1385,1138
4302,1371,1097
4303,1326,1056
4304,1253,1022
4305,1152,995
4306,1035,973
4307,920,951
4308,831,930
4309,784,913
4310,777,907
4311,802,900
4312,842,903
4313,886,912
4314,921,929
4315,944,944
4316,954,957
4317,958,967
4318,952,972
4319,945,973
4320,941,972
4321,935,969
4322,937,970
4323,937,969
4324,939,974
4325,943,971
4326,946,974
4327,946,975
4328,947,974
4329,949,976
4330,951,974
4331,946,972
4332,946,969
4333,946,970
4334,945,973
4335,943,971
4336,944,976
4337,945,975
4338,947,977
4339,949,979
4340,949,977
4341,948,976
4342,947,975
4343,946,976
4344,943,975
4345,943,974
4346,943,975
4347,943,976
4348,944,978
4349,947,979
4350,947,980
4351,947,980
4352,948,984
4353,946,983
4354,944,983
4355,942,985
4356,943,984
4357,942,985
4358,946,985
4359,947,988
4360,949,990
4361,950,992
4362,953,994
4363,954,998
4364,956,998
4365,959,999
4366,956,1001
4367,960,1001
4368,962,1003
4369,961,1004
4370,962,1006
4371,962,1009
4372,965,1010
4373,966,1014
4374,968,1017
4375,971,1019
4376,970,1019
4377,971,1022
4378,971,1019
4379,973,1021
4380,973,1020
4381,973,1022
4382,972,1022
4383,972,1024
4384,974,1026
4385,977,1030
4386,978,1030
4387,977,1028
4388,978,1028
4389,978,1025
4390,976,1021
4391,973,1019
4392,971,1015
4393,967,1013
4394,964,1008
4395,964,1007
4396,962,1007
4397,960,1005
4398,957,1003
4399,958,1001
4400,959,1000
4401,959,996
4402,958,993
4403,958,991
4404,957,988
4405,955,985
4406,953,984
4407,953,981
4408,954,983
4409,955,986
4410,955,986
4411,955,988
4412,953,983
4413,954,982
4414,952,983
4415,951,980
4416,949,977
4417,950,977
4418,950,978
4419,949,980
4420,952,981
4421,952,981
4422,953,982
4423,955,983
4424,955,982
4425,955,983
4426,952,983
4427,954,980
4428,953,979
4429,953,979
4430,956,978
4431,954,980
4432,956,981
4433,960,984
4434,960,983
4435,964,987
4436,964,985
4437,963,985
4438,962,982
4439,959,980
4440,959,979
4441,959,977
4442,958,979
4443,960,977
4444,961,976
4445,964,976
4446,965,979
4447,965,978
4448,965,975
4449,967,975
4450,967,971
4451,965,969
4452,966,966
4453,963,966
4454,963,966
4455,962,966
4456,963,967
4457,963,968
4458,963,967
4459,966,970
4460,965,966
4461,964,966
4462,962,966
4463,962,963
4464,960,962
4465,958,961
4466,959,961
4467,960,962
4468,961,963
4469,965,965
4470,965,967
4471,971,966
4472,970,965
4473,971,966
4474,971,964
4475,970,962
4476,969,956
4477,970,960
4478,970,959
4479,968,958
4480,970,960
4481,970,961
4482,974,962
4483,975,962
4484,978,962
4485,976,961
4486,975,961
4487,973,959
4488,972,958
4489,970,956
4490,970,957
4491,967,959
4492,971,960
4493,974,959
4494,976,961
4495,979,965
4496,978,964
4497,980,964
4498,980,965
4499,981,966
4500,982,965
4501,982,964
4502,980,969
4503,981,968
4504,983,974
4505,989,975
4506,992,978
4507,995,981
4508,996,980
4509,995,984
4510,990,981
4511,988,979
4512,987,977
4513,985,976
4514,984,976
4515,981,975
4516,979,975
4517,984,973
4518,981,974
4519,981,971
4520,980,970
4521,977,968
4522,974,966
4523,971,965
4524,968,963
4525,969,963
4526,967,962
4527,965,963
4528,963,962
4529,961,962
4530,959,963
4531,959,962
4532,960,961
4533,960,962
4534,962,960
4535,961,961
4536,961,959
4537,963,959
4538,963,962
4539,962,963
4540,966,968
4541,968,973
4542,970,976
4543,972,980
4544,973,980
4545,976,983
4546,979,986
4547,979,988
4548,981,990
4549,982,993
4550,987,997
4551,988,1002
4552,996,1008
4553,1001,1012
4554,1007,1016
4555,1016,1019
4556,1023,1020
4557,1032,1025
4558,1038,1026
4559,1044,1033
4560,1051,1039
4561,1063,1047
4562,1082,1060
4563,1107,1078
4564,1140,1098
4565,1178,1119
4566,1221,1142
4567,1270,1164
4568,1316,1178
4569,1356,1182
4570,1384,1168
4571,1391,1142
4572,1373,1109
4573,1322,1074
4574,1245,1044
4575,1140,1017
4576,1023,994
4577,909,968
4578,823,949
4579,774,930
4580,768,917
4581,791,911
4582,830,904
4583,871,910
4584,902,916
4585,927,927
4586,939,940
4587,944,952
4588,945,961
4589,942,968
4590,936,971
4591,937,971
4592,935,970
4593,937,968
4594,935,967
4595,940,968
4596,939,967
4597,939,966
4598,940,967
4599,938,967
4600,940,971
4601,941,972
4602,943,972
4603,946,974
4604,946,973
4605,947,973
4606,946,973
4607,947,971
4608,942,970
4609,940,968
4610,943,970
4611,941,972
4612,942,973
4613,945,974
4614,946,975
4615,948,975
4616,948,974
4617,950,975
4618,948,975
4619,950,973
4620,950,971
4621,949,970
4622,951,974
4623,954,975
4624,955,977
4625,956,979
4626,958,980
4627,961,982
4628,962,982
4629,964,982
4630,965,983
4631,967,983
4632,965,983
4633,968,986
4634,968,988
4635,971,991
4636,973,995
4637,975,996
4638,977,1000
4639,980,1002
4640,983,1003
4641,984,1002
4642,986,1003
4643,986,1003
4644,987,1004
4645,987,1003
4646,986,1006
4647,987,1004
4648,989,1011
4649,991,1014
4650,992,1014
4651,992,1018
4652,992,1018
4653,991,1020
4654,989,1021
4655,986,1020
4656,986,1017
4657,981,1018
4658,979,1017
4659,977,1017
4660,977,1018
4661,980,1019
4662,978,1019
4663,981,1017
4664,981,1013
4665,982,1011
4666,981,1007
4667,978,1003
4668,977,997
4669,973,997
4670,969,993
4671,968,991
4672,967,990
4673,966,989
4674,966,988
4675,965,985
4676,961,983
4677,959,982
4678,961,978
4679,960,978
4680,957,973
4681,954,972
4682,955,973
4683,953,970
4684,950,973
4685,953,974
4686,954,971
4687,951,972
4688,955,973
4689,954,972
4690,955,969
4691,954,969
4692,954,966
4693,955,967
4694,952,968
4695,954,971
4696,955,972
4697,956,971
4698,960,973
4699,959,975
4700,958,974
4701,960,975
4702,958,971
4703,959,969
4704,957,968
4705,953,966
4706,952,966
4707,950,966
4708,951,969
4709,949,971
4710,949,969
4711,950,972
4712,950,969
4713,950,967
4714,949,969
4715,945,965
4716,946,962
4717,946,963
4718,946,963
4719,946,963
4720,948,962
4721,950,965
4722,951,963
4723,953,966
4724,954,964
4725,957,962
4726,957,961
4727,956,960
4728,955,960
4729,955,957
4730,953,957
4731,954,958
4732,956,960
4733,956,962
4734,957,961
4735,960,963
4736,960,962
4737,956,961
4738,960,961
4739,957,960
4740,958,958
4741,957,957
4742,956,957
4743,955,957
4744,956,957
4745,960,959
4746,957,960
4747,956,962
4748,957,960
4749,958,961
4750,956,958
4751,959,960
4752,955,956
4753,955,958
4754,956,955
4755,955,957
4756,955,959
4757,957,958
4758,957,961
4759,958,962
4760,958,962
4761,959,962
4762,961,962
4763,960,957
4764,960,959
4765,955,959
4766,956,959
4767,957,962
4768,958,962
4769,964,965
4770,964,968
4771,969,971
4772,974,972
4773,975,974
4774,978,975
4775,980,974
4776,981,975
4777,980,977
4778,982,978
4779,985,984
4780,987,987
4781,986,987
4782,989,989
4783,989,988
4784,989,987
4785,987,985
4786,985,980
4787,983,975
4788,981,971
4789,977,969
4790,975,967
4791,973,967
4792,973,969
4793,972,966
4794,969,969
4795,968,968
4796,970,966
4797,969,967
4798,969,964
4799,968,961
4800,963,957
4801,960,954
4802,952,955
4803,952,951
4804,951,954
4805,952,955
4806,958,957
4807,960,958
4808,963,962
4809,964,960
4810,966,960
4811,965,961
4812,965,964
4813,968,964
4814,971,967
4815,971,972
4816,975,975
4817,978,980
4818,981,981
4819,988,989
4820,997,992
4821,999,996
4822,1001,999
4823,1006,1002
4824,1015,1005
4825,1022,1009
4826,1027,1012
4827,1036,1016
4828,1044,1022
4829,1054,1029
4830,1063,1039
4831,1075,1046
4832,1089,1061
4833,1108,1074
4834,1133,1089
4835,1161,1109
4836,1198,1129
4837,1234,1146
4838,1275,1163
4839,1312,1172
4840,1341,1170
4841,1360,1158
4842,1362,1131
4843,1346,1100
4844,1306,1067
4845,1245,1037
4846,1165,1012
4847,1074,989
4848,978,968
4849,894,951
4850,834,933
4851,807,918
4852,811,911
4853,835,910
4854,867,915
4855,901,926
4856,928,934
4857,943,946
4858,952,954
4859,955,960
4860,952,965
4861,946,967
4862,942,968
4863,940,970
4864,940,972
4865,945,971
4866,947,973
4867,950,976
4868,953,976
4869,955,974
4870,953,975
4871,954,974
4872,952,973
4873,950,971
4874,949,973
4875,947,974
4876,948,976
4877,948,975
4878,949,978
4879,950,979
4880,953,976
4881,953,979
4882,954,976
4883,952,977
4884,953,978
4885,954,977
4886,953,978
4887,956,979
4888,958,980
4889,960,983
4890,961,987
4891,962,985
4892,963,988
4893,965,986
4894,966,985
4895,967,985
4896,967,988
4897,967,987
4898,967,986
4899,969,989
4900,971,989
4901,973,994
4902,975,998
4903,979,1000
4904,979,1000
4905,978,1000
4906,979,1002
4907,978,1003
4908,978,1003
4909,976,1003
4910,976,1009
4911,976,1009
4912,979,1011
4913,981,1015
4914,984,1018
4915,986,1020
4916,989,1022
4917,991,1024
4918,992,1023
4919,992,1024
4920,995,1025
4921,995,1025
4922,995,1026
4923,995,1028
4924,1001,1032
4925,1002,1032
4926,1004,1035
4927,1007,1037
4928,1011,1035
4929,1010,1035
4930,1010,1034
4931,1011,1032
4932,1009,1029
4933,1009,1030
4934,1010,1030
4935,1013,1030
4936,1014,1027
4937,1015,1026
4938,1016,1026
4939,1015,1022
4940,1011,1019
4941,1011,1016
4942,1006,1012
4943,1004,1009
4944,1004,1004
4945,1000,999
4946,997,994
4947,994,994
4948,992,990
4949,989,990
4950,988,989
4951,987,986
4952,984,986
4953,983,982
4954,981,982
4955,977,982
4956,976,978
4957,973,975
4958,972,974
4959,970,978
4960,969,978
4961,971,975
4962,972,977
4963,971,979
4964,973,978
4965,974,978
4966,973,977
4967,972,974
4968,970,974
4969,968,974
4970,966,975
4971,966,975
4972,967,977
4973,968,980
4974,968,980
4975,972,981
4976,971,980
4977,972,980
4978,972,981
4979,972,979
4980,972,979
4981,968,980
4982,967,978
4983,969,977
4984,970,979
4985,967,979
4986,966,979
4987,968,981
4988,972,978
4989,971,980
4990,970,979
4991,966,978
4992,966,974
4993,964,974
4994,963,975
4995,961,975
4996,960,974
4997,962,974
4998,965,977
4999,965,978
5000,964,975
5001,963,972
5002,964,973
5003,962,970
5004,961,971
5005,959,968
5006,959,968
5007,959,967
5008,959,966
5009,962,968
5010,963,968
5011,963,968
5012,965,969
5013,963,967
5014,963,963
5015,960,963
5016,960,962
5017,960,963
5018,957,962
5019,956,962
5020,959,962
5021,958,964
5022,959,965
5023,961,965
5024,961,965
5025,962,964
5026,962,963
5027,960,963
5028,959,961
5029,958,959
5030,958,959
5031,957,960
5032,957,959
5033,959,959
5034,961,961
5035,960,963
5036,962,961
5037,962,963
5038,962,961
5039,964,961
5040,961,959
5041,959,959
5042,959,963
5043,963,963
5044,963,967
5045,967,970
5046,968,971
5047,972,974
5048,972,976
5049,978,976
5050,978,975
5051,982,978
5052,982,981
5053,982,981
5054,982,983
5055,983,986
5056,983,988
5057,982,989
5058,979,992
5059,980,990
5060,982,991
5061,980,987
5062,979,984
5063,977,979
5064,977,977
5065,972,971
5066,969,971
5067,967,971
5068,964,969
5069,963,970
5070,964,969
5071,964,973
5072,963,972
5073,964,971
5074,961,971
5075,956,966
5076,955,961
5077,952,959
5078,951,957
5079,949,959
5080,954,963
5081,957,963
5082,959,966
5083,963,967
5084,967,969
5085,967,972
5086,969,971
5087,972,972
5088,973,973
5089,975,974
5090,979,979
5091,980,983
5092,984,987
5093,989,993
5094,994,999
5095,999,1004
5096,1004,1008
5097,1010,1011
5098,1015,1013
5099,1021,1016
5100,1026,1018
5101,1031,1020
5102,1039,1024
5103,1046,1029
5104,1055,1034
5105,1062,1044
5106,1068,1055
5107,1085,1067
5108,1102,1083
5109,1125,1099
5110,1157,1121
5111,1189,1140
5112,1227,1162
5113,1267,1173
5114,1301,1173
5115,1326,1157
5116,1339,1125
5117,1331,1082
5118,1299,1042
5119,1244,1006
5120,1163,976
5121,1061,951
5122,958,935
5123,867,918
5124,813,905
5125,796,897
5126,809,900
5127,844,906
5128,883,916
5129,916,929
5130,940,942
5131,954,954
5132,960,964
5133,957,967
5134,951,969
5135,949,967
5136,946,968
5137,946,968
5138,947,966
5139,950,968
5140,953,970
5141,956,972
5142,959,974
5143,961,976
5144,963,975
5145,961,976
5146,960,973
5147,960,975
5148,962,971
5149,961,970
5150,958,972
5151,958,973
5152,961,973
5153,961,975
5154,961,977
5155,963,977
5156,961,977
5157,962,977
5158,961,978
5159,960,979
5160,957,977
5161,954,977
5162,953,980
5163,951,981
5164,949,985
5165,948,987
5166,948,989
5167,949,991
5168,946,993
5169,947,994
5170,945,995
5171,944,994
5172,940,995
5173,938,997
5174,936,998
5175,937,999
5176,938,1001
5177,940,1008
5178,944,1011
5179,947,1012
5180,949,1014
5181,948,1013
5182,950,1016
5183,953,1015
5184,954,1016
5185,955,1017
5186,957,1018
5187,958,1020
5188,962,1023
5189,968,1026
5190,971,1026
5191,974,1030
5192,980,1031
5193,984,1029
5194,987,1031
5195,991,1029
5196,990,1030
5197,991,1031
5198,992,1030
5199,995,1033
5200,997,1032
5201,999,1031
5202,1000,1035
5203,1006,1038
5204,1007,1037
5205,1008,1032
5206,1008,1030
5207,1008,1027
5208,1008,1024
5209,1005,1023
5210,1004,1018
5211,1002,1017
5212,998,1014
5213,996,1012
5214,994,1010
5215,994,1006
5216,989,1006
5217,987,1000
5218,987,1001
5219,983,994
5220,981,993
5221,976,990
5222,973,986
5223,973,986
5224,970,986
5225,971,986
5226,967,986
5227,966,986
5228,966,986
5229,968,983
5230,965,984
5231,962,979
5232,961,978
5233,960,976
5234,958,976
5235,958,977
5236,959,977
5237,960,977
5238,960,977
5239,963,980
5240,963,977
5241,964,978
5242,963,978
5243,965,975
5244,962,973
5245,966,973
5246,966,973
5247,969,975
5248,968,974
5249,969,975
5250,972,977
5251,974,978
5252,975,975
5253,976,975
5254,977,977
5255,975,973
5256,974,971
5257,973,968
5258,974,969
5259,972,971
5260,976,972
5261,977,974
5262,979,975
5263,979,972
5264,979,974
5265,980,972
5266,980,970
5267,980,969
5268,978,970
5269,978,967
5270,978,965
5271,976,965
5272,977,967
5273,977,967
5274,977,967
5275,979,968
5276,980,967
5277,980,967
5278,982,965
5279,979,966
5280,977,962
5281,975,961
5282,975,957
5283,972,958
5284,973,960
5285,971,960
5286,972,958
5287,971,961
5288,971,959
5289,974,958
5290,974,960
5291,973,960
5292,972,954
5293,968,952
5294,968,955
5295,965,954
5296,967,956
5297,969,955
5298,967,957
5299,969,959
5300,971,959
5301,973,957
5302,972,956
5303,969,957
5304,968,953
5305,967,953
5306,966,954
5307,965,953
5308,963,955
5309,964,956
5310,965,958
5311,966,958
5312,969,959
5313,970,961
5314,973,959
5315,973,960
5316,974,957
5317,975,960
5318,976,962
5319,979,966
5320,981,968
5321,983,970
5322,987,974
5323,991,976
5324,995,977
5325,996,979
5326,998,982
5327,999,979
5328,999,980
5329,998,980
5330,997,979
5331,997,980
5332,996,981
5333,996,980
5334,994,979
5335,994,976
5336,992,975
5337,990,968
5338,986,969
5339,985,964
5340,979,962
5341,975,960
5342,972,957
5343,970,960
5344,970,959
5345,967,960
5346,966,961
5347,963,958
5348,962,956
5349,961,953
5350,959,952
5351,957,952
5352,958,951
5353,960,952
5354,961,951
5355,962,954
5356,965,958
5357,969,958
5358,975,963
5359,978,965
5360,983,970
5361,988,973
5362,995,976
5363,997,977
5364,999,981
5365,1005,982
5366,1008,987
5367,1011,992
5368,1015,996
5369,1021,1002
5370,1028,1008
5371,1035,1011
5372,1042,1016
5373,1048,1017
5374,1055,1022
5375,1063,1024
5376,1070,1029
5377,1073,1030
5378,1084,1041
5379,1094,1055
5380,1114,1069
5381,1142,1088
5382,1176,1111
5383,1218,1134
5384,1267,1159
5385,1317,1180
5386,1363,1191
5387,1405,1187
5388,1430,1166
5389,1431,1134
5390,1401,1096
5391,1340,1058
5392,1253,1025
5393,1138,998
5394,1012,973
5395,901,952
5396,822,929
5397,791,911
5398,799,901
5399,838,899
5400,883,904
5401,925,917
5402,961,929
5403,980,943
5404,992,954
5405,989,965
5406,981,971
5407,975,973
5408,971,972
5409,969,970
5410,971,971
5411,973,967
5412,975,966
5413,975,965
5414,976,967
5415,979,967
5416,979,968
5417,982,970
5418,984,970
5419,984,971
5420,984,973
5421,981,971
5422,979,971
5423,975,970
5424,974,970
5425,974,970
5426,978,972
5427,982,970
5428,983,971
5429,984,971
5430,983,973
5431,983,975
5432,984,975
5433,986,973
5434,984,975
5435,983,973
5436,973,973
5437,972,972
5438,967,973
5439,967,975
5440,968,977
5441,974,977
5442,978,979
5443,982,981
5444,983,980
5445,986,983
5446,987,983
5447,985,983
5448,984,981
5449,985,983
5450,985,985
5451,988,988
5452,988,989
5453,990,993
5454,994,997
5455,998,999
5456,1002,1002
5457,1004,1003
5458,1002,1005
5459,1004,1006
5460,1005,1009
5461,1005,1008
5462,1004,1008
5463,1004,1013
5464,1007,1013
5465,1008,1017
5466,1011,1022
5467,1012,1023
5468,1015,1024
5469,1016,1025
5470,1016,1025
5471,1018,1028
5472,1016,1027
5473,1015,1027
5474,1013,1027
5475,1012,1026
5476,1013,1029
5477,1016,1029
5478,1018,1030
5479,1021,1028
5480,1022,1028
5481,1021,1024
5482,1023,1022
5483,1019,1016
5484,1016,1014
5485,1012,1012
5486,1009,1008
5487,1007,1003
5488,1006,1003
5489,1004,1001
5490,1004,1000
5491,1005,998
5492,1004,993
5493,1002,992
5494,999,990
5495,997,986
5496,996,985
5497,992,982
5498,991,982
5499,989,981
5500,990,981
5501,992,982
5502,992,982
5503,989,982
5504,991,982
5505,990,983
5506,989,982
5507,989,983
5508,987,980
5509,987,978
5510,986,979
5511,985,978
5512,984,977
5513,985,981
5514,988,982
5515,990,983
5516,990,984
5517,993,984
5518,992,983
5519,992,982
5520,991,981
5521,989,980
5522,989,980
5523,988,984
5524,990,984
5525,991,985
5526,993,987
5527,995,989
5528,994,988
5529,996,986
5530,993,984
5531,994,983
5532,992,982
5533,992,980
5534,992,981
5535,990,978
5536,989,980
5537,991,980
5538,992,982
5539,991,981
5540,995,982
5541,994,981
5542,992,978
5543,990,978
5544,987,976
5545,986,975
5546,983,973
5547,981,972
5548,983,972
5549,985,974
5550,984,976
5551,984,978
5552,985,975
5553,984,975
5554,985,974
5555,984,973
5556,985,972
5557,983,969
5558,980,968
5559,979,970
5560,977,968
5561,979,970
5562,977,972
5563,979,973
5564,980,973
5565,979,971
5566,977,971
5567,976,970
5568,971,969
5569,972,967
5570,971,966
5571,970,967
5572,968,969
5573,968,969
5574,973,971
5575,976,974
5576,975,972
5577,975,973
5578,974,970
5579,974,968
5580,972,970
5581,971,967
5582,969,969
5583,970,967
5584,969,968
5585,970,970
5586,970,971
5587,973,971
5588,975,973
5589,975,974
5590,978,975
5591,979,975
5592,978,975
5593,981,978
5594,983,976
5595,984,979
5596,986,982
5597,989,983
5598,993,988
5599,995,991
5600,1000,995
5601,1002,993
5602,1003,995
5603,1001,993
5604,1000,993
5605,998,990
5606,993,986
5607,995,987
5608,992,984
5609,992,985
5610,993,985
5611,994,983
5612,992,981
5613,988,978
5614,984,978
5615,981,974
5616,978,973
5617,976,970
5618,973,969
5619,973,969
5620,972,972
5621,968,970
5622,967,967
5623,964,966
5624,964,968
5625,964,967
5626,965,964
5627,963,966
5628,961,963
5629,959,963
5630,957,960
5631,955,960
5632,954,960
5633,954,963
5634,954,962
5635,953,963
5636,953,963
5637,952,965
5638,952,966
5639,950,965
5640,955,965
5641,954,964
5642,956,963
5643,957,966
5644,957,966
5645,961,969
5646,963,971
5647,967,970
5648,971,976
5649,972,977
5650,976,980
5651,979,984
5652,983,989
5653,992,997
5654,1008,1007
5655,1032,1022
5656,1063,1039
5657,1104,1061
5658,1152,1082
5659,1202,1100
5660,1249,1105
5661,1286,1095
5662,1313,1069
5663,1318,1027
5664,1299,981
5665,1256,936
5666,1187,896
5667,1102,867
5668,1003,847
5669,900,833
5670,811,824
5671,753,814
5672,732,814
5673,753,820
5674,798,832
5675,852,848
5676,902,868
5677,941,892
5678,967,915
5679,982,942
5680,988,962
5681,989,979
5682,991,989
5683,989,996
5684,991,998
5685,992,999
5686,992,1001
5687,997,1001
5688,997,1002
5689,999,1001
5690,1000,1005
5691,1004,1005
5692,1005,1010
5693,1009,1010
5694,1013,1013
5695,1014,1015
5696,1016,1016
5697,1014,1015
5698,1016,1015
5699,1014,1013
5700,1017,1013
5701,1019,1012
5702,1020,1009
5703,1020,1013
5704,1022,1017
5705,1026,1020
5706,1028,1023
5707,1031,1027
5708,1033,1030
5709,1035,1028
5710,1036,1028
5711,1035,1029
5712,1035,1027
5713,1036,1029
5714,1035,1030
5715,1036,1034
5716,1037,1035
5717,1041,1040
5718,1039,1047
5719,1043,1050
5720,1045,1052
5721,1047,1056
5722,1050,1059
5723,1049,1062
5724,1049,1064
5725,1049,1066
5726,1050,1070
5727,1054,1074
5728,1057,1080
5729,1061,1087
5730,1063,1092
5731,1068,1095
5732,1073,1099
5733,1075,1103
5734,1078,1106
5735,1077,1107
5736,1076,1111
5737,1076,1111
5738,1079,1116
5739,1080,1117
5740,1083,1121
5741,1088,1125
5742,1093,1127
5743,1096,1127
5744,1100,1128
5745,1102,1128
5746,1103,1128
5747,1103,1126
5748,1099,1124
5749,1098,1122
5750,1096,1120
5751,1095,1120
5752,1093,1119
5753,1092,1117
5754,1092,1113
5755,1093,1113
5756,1092,1111
5757,1092,1105
5758,1091,1099
5759,1088,1092
5760,1085,1085
5761,1081,1076
5762,1077,1067
5763,1073,1060
5764,1067,1054
5765,1063,1048
5766,1062,1043
5767,1060,1037
5768,1056,1031
5769,1049,1024
5770,1046,1016
5771,1037,1012
5772,1029,1004
5773,1022,1001
5774,1017,995
5775,1010,994
5776,1005,993
5777,1004,989
5778,1001,990
5779,999,988
5780,1000,987
5781,998,985
5782,997,985
5783,998,983
5784,996,983
5785,996,981
5786,992,981
5787,992,980
5788,993,980
5789,992,986
5790,993,989
5791,997,986
5792,997,987
5793,996,989
5794,992,989
5795,992,988
5796,989,988
5797,985,984
5798,984,985
5799,982,984
5800,978,987
5801,980,989
5802,980,991
5803,980,992
5804,979,991
5805,980,991
5806,980,993
5807,978,989
5808,977,989
5809,975,986
5810,972,985
5811,972,985
5812,976,986
5813,980,986
5814,984,987
5815,984,990
5816,987,990
5817,989,989
5818,990,988
5819,990,985
5820,989,985
5821,987,985
5822,987,982
5823,986,982
5824,986,982
5825,988,982
5826,985,983
5827,982,983
5828,985,984
5829,982,985
5830,982,984
5831,979,981
5832,979,980
5833,978,979
5834,978,978
5835,979,978
5836,978,978
5837,979,980
5838,980,982
5839,985,980
5840,984,981
5841,986,979
5842,987,979
5843,985,978
5844,983,975
5845,984,974
5846,985,974
5847,983,975
5848,987,975
5849,986,978
5850,987,978
5851,988,982
5852,992,984
5853,991,984
5854,993,985
5855,994,984
5856,996,981
5857,996,985
5858,998,986
5859,997,989
5860,999,989
5861,1001,994
5862,1004,997
5863,1007,1000
5864,1010,1005
5865,1013,1005
5866,1013,1006
5867,1012,1005
5868,1008,1003
5869,1007,1000
5870,1004,1001
5871,998,999
5872,995,999
5873,994,997
5874,995,996
5875,996,995
5876,996,995
5877,993,992
5878,988,988
5879,985,987
5880,982,987
5881,981,985
5882,979,984
5883,978,984
5884,977,983
5885,975,983
5886,972,982
5887,971,981
5888,970,981
5889,969,978
5890,972,980
5891,973,977
5892,971,976
5893,969,974
5894,971,973
5895,970,973
5896,968,974
5897,967,976
5898,968,976
5899,970,979
5900,973,978
5901,972,978
5902,972,977
5903,970,978
5904,968,977
5905,968,975
5906,968,977
5907,967,977
5908,968,980
5909,968,979
5910,972,980
5911,974,986
5912,974,986
5913,975,988
5914,974,990
5915,977,991
5916,978,994
5917,984,1000
5918,993,1009
5919,1011,1023
5920,1035,1038
5921,1067,1057
5922,1110,1075
5923,1159,1098
5924,1205,1106
5925,1248,1107
5926,1279,1091
5927,1298,1059
5928,1292,1017
5929,1260,973
5930,1201,935
5931,1118,903
5932,1020,877
5933,913,860
5934,815,845
5935,746,836
5936,718,834
5937,737,841
5938,788,850
5939,846,868
5940,905,887
5941,950,909
5942,981,937
5943,997,960
5944,1003,981
5945,1001,997
5946,1000,1007
5947,994,1014
5948,992,1016
5949,991,1019
5950,990,1020
5951,990,1019
5952,987,1019
5953,983,1019
5954,983,1020
5955,984,1027
5956,985,1027
5957,984,1030
5958,984,1034
5959,984,1037
5960,987,1040
5961,986,1037
5962,987,1038
5963,986,1036
5964,984,1037
5965,982,1037
5966,983,1037
5967,982,1039
5968,983,1039
5969,983,1043
5970,985,1045
5971,986,1048
5972,987,1051
5973,990,1051
5974,991,1052
5975,992,1051
5976,989,1053
5977,988,1055
5978,989,1055
5979,991,1059
5980,991,1064
5981,988,1067
5982,989,1074
5983,994,1076
5984,998,1081
5985,999,1084
5986,1004,1088
5987,1005,1088
5988,1007,1092
5989,1007,1096
5990,1010,1097
5991,1014,1103
5992,1016,1110
5993,1023,1111
5994,1029,1116
5995,1035,1121
5996,1038,1127
5997,1043,1127
5998,1046,1132
5999,1047,1132
6000,1048,1136
6001,1050,1137
6002,1052,1139
6003,1058,1142
6004,1061,1143
6005,1066,1146
6006,1070,1146
6007,1070,1151
6008,1078,1154
6009,1077,1151
6010,1080,1150
6011,1080,1149
6012,1082,1144
6013,1082,1143
6014,1081,1141
6015,1080,1138
6016,1077,1136
6017,1078,1132
6018,1078,1129
6019,1075,1123
6020,1075,1121
6021,1070,1110
6022,1066,1104
6023,1062,1094
6024,1055,1085
6025,1046,1078
6026,1037,1073
6027,1032,1066
6028,1026,1061
6029,1023,1055
6030,1019,1052
6031,1013,1049
6032,1008,1042
6033,1003,1035
6034,1000,1031
6035,998,1025
6036,994,1022
6037,988,1017
6038,986,1014
6039,984,1013
6040,982,1011
6041,981,1011
6042,979,1012
6043,982,1013
6044,980,1011
6045,979,1011
6046,981,1009
6047,981,1005
6048,981,1005
6049,978,1005
6050,980,1004
6051,979,1006
6052,981,1008
6053,982,1006
6054,983,1009
6055,983,1007
6056,983,1010
6057,982,1009
6058,984,1007
6059,985,1007
6060,982,1006
6061,981,1005
6062,982,1005
6063,984,1005
6064,982,1004
6065,983,1007
6066,984,1007
6067,984,1008
6068,985,1007
6069,984,1006
6070,985,1007
6071,984,1006
6072,984,1002
6073,986,1004
6074,981,1003
6075,981,1004
6076,979,1001
6077,979,1002
6078,980,1002
6079,979,1002
6080,978,1005
6081,979,1002
6082,981,1000
6083,980,998
6084,976,997
6085,976,994
6086,973,992
6087,974,993
6088,972,991
6089,969,993
6090,973,994
6091,974,994
6092,975,996
6093,974,995
6094,975,992
6095,973,993
6096,974,986
6097,973,987
6098,970,988
6099,972,988
6100,973,987
6101,973,988
6102,973,989
6103,973,990
6104,975,991
6105,975,988
6106,973,986
6107,971,986
6108,971,985
6109,971,983
6110,968,982
6111,967,981
6112,968,982
6113,965,983
6114,966,984
6115,963,984
6116,967,985
6117,967,985
6118,967,983
6119,967,981
6120,965,981
6121,965,981
6122,966,982
6123,966,982
6124,968,985
6125,972,987
6126,976,992
6127,978,994
6128,981,995
6129,985,995
6130,988,996
6131,988,997
6132,990,995
6133,992,999
6134,992,1000
6135,994,1002
6136,993,1002
6137,990,1000
6138,989,1001
6139,986,998
6140,985,998
6141,986,995
6142,988,992
6143,983,989
6144,977,986
6145,976,983
6146,973,982
6147,969,980
6148,965,980
6149,964,981
6150,964,982
6151,962,983
6152,962,982
6153,963,980
6154,960,979
6155,959,976
6156,956,971
6157,955,970
6158,952,967
6159,952,968
6160,952,970
6161,953,970
6162,953,971
6163,953,971
6164,953,972
6165,956,971
6166,956,970
6167,959,972
6168,957,970
6169,958,967
6170,957,969
6171,959,968
6172,961,971
6173,962,971
6174,960,974
6175,966,977
6176,970,981
6177,969,981
6178,969,981
6179,971,980
6180,969,981
6181,968,980
6182,968,986
6183,970,992
6184,976,999
6185,989,1014
6186,1008,1026
6187,1035,1042
6188,1069,1059
6189,1111,1078
6190,1158,1093
6191,1205,1098
6192,1248,1093
6193,1278,1071
6194,1293,1036
6195,1286,993
6196,1254,949
6197,1192,908
6198,1109,876
6199,1005,853
6200,891,838
6201,784,821
6202,704,806
6203,672,804
6204,695,816
6205,755,836
6206,822,858
6207,884,885
6208,933,914
6209,964,942
6210,977,966
6211,979,983
6212,977,995
6213,970,1000
6214,967,1001
6215,966,1004
6216,967,1003
6217,969,1002
6218,970,1006
6219,973,1008
6220,975,1010
6221,977,1010
6222,981,1016
6223,981,1020
6224,982,1020
6225,983,1021
6226,982,1020
6227,981,1022
6228,979,1018
6229,978,1017
6230,977,1020
6231,978,1021
6232,979,1025
6233,979,1029
6234,982,1030
6235,984,1034
6236,985,1034
6237,987,1037
6238,988,1039
6239,989,1038
6240,988,1040
6241,990,1041
6242,991,1042
6243,994,1044
6244,992,1047
6245,994,1053
6246,998,1055
6247,999,1060
6248,1003,1067
6249,1008,1068
6250,1010,1072
6251,1012,1076
6252,1016,1079
6253,1017,1081
6254,1018,1084
6255,1018,1086
6256,1021,1092
6257,1024,1097
6258,1026,1103
6259,1033,1108
6260,1037,1113
6261,1039,1117
6262,1041,1118
6263,1045,1121
6264,1045,1122
6265,1047,1125
6266,1044,1127
6267,1046,1129
6268,1049,1130
6269,1050,1132
6270,1050,1136
6271,1052,1138
6272,1050,1141
6273,1051,1138
6274,1051,1138
6275,1050,1135
6276,1051,1134
6277,1050,1130
6278,1045,1129
6279,1047,1124
6280,1044,1120
6281,1043,1117
6282,1041,1114
6283,1041,1111
6284,1039,1105
6285,1036,1099
6286,1033,1092
6287,1029,1086
6288,1023,1076
6289,1017,1067
6290,1011,1059
6291,1006,1050
6292,997,1047
6293,994,1040
6294,991,1035
6295,987,1031
6296,987,1028
6297,985,1023
6298,982,1018
6299,979,1013
6300,977,1008
6301,972,1006
6302,968,1001
6303,966,999
6304,965,996
6305,964,999
6306,962,997
6307,965,999
6308,965,1001
6309,967,996
6310,970,994
6311,968,996
6312,969,994
6313,965,992
6314,966,993
6315,964,992
6316,964,994
6317,965,995
6318,965,998
6319,967,999
6320,966,1000
6321,968,999
6322,968,999
6323,967,1000
6324,966,998
6325,963,995
6326,963,995
6327,963,995
6328,962,994
6329,964,996
6330,964,992
6331,965,998
6332,965,996
6333,966,999
6334,966,997
6335,967,996
6336,963,994
6337,962,992
6338,958,989
6339,956,988
6340,954,990
6341,958,991
6342,960,988
6343,961,991
6344,961,992
6345,962,991
6346,963,990
6347,963,990
6348,963,986
6349,960,986
6350,959,985
6351,959,982
6352,958,986
6353,958,983
6354,960,987
6355,959,987
6356,960,986
6357,957,986
6358,960,982
6359,959,983
6360,958,980
6361,954,979
6362,953,977
6363,952,978
6364,953,978
6365,952,977
6366,954,976
6367,956,980
6368,957,981
6369,957,980
6370,955,977
6371,953,976
6372,955,977
6373,953,974
6374,952,977
6375,950,973
6376,951,977
6377,952,978
6378,952,979
6379,953,978
6380,954,981
6381,954,980
6382,952,979
6383,953,979
6384,950,976
6385,950,975
6386,950,976
6387,952,978
6388,953,979
6389,954,982
6390,957,984
6391,963,986
6392,966,989
6393,969,991
6394,970,991
6395,971,993
6396,973,992
6397,974,994
6398,977,999
6399,978,996
6400,980,1002
6401,980,1002
6402,982,1004
6403,979,1004
6404,979,1004
6405,978,999
6406,975,996
6407,974,996
6408,974,991
6409,971,989
6410,965,985
6411,964,981
6412,960,981
6413,954,980
6414,954,980
6415,954,982
6416,955,981
6417,954,980
6418,952,979
6419,949,976
6420,942,973
6421,938,971
6422,933,967
6423,933,967
6424,934,969
6425,934,968
6426,936,968
6427,939,969
6428,942,972
6429,942,971
6430,942,968
6431,941,970
6432,941,966
6433,938,968
6434,937,965
6435,938,967
6436,936,970
6437,938,968
6438,939,970
6439,940,972
6440,943,973
6441,945,975
6442,944,974
6443,945,973
6444,947,973
6445,943,975
6446,941,975
6447,941,976
6448,944,985
6449,946,993
6450,956,1004
6451,975,1017
6452,999,1033
6453,1032,1048
6454,1076,1065
6455,1120,1083
6456,1168,1094
6457,1211,1094
6458,1245,1080
6459,1263,1048
6460,1262,1008
6461,1235,965
6462,1185,923
6463,1107,890
6464,1013,865
6465,902,846
6466,797,826
6467,715,808
6468,673,806
6469,685,812
6470,739,830
6471,805,853
6472,870,882
6473,922,907
6474,959,935
6475,972,959
6476,977,975
6477,973,986
6478,967,993
6479,963,996
6480,958,996
6481,960,995
6482,958,997
6483,965,1001
6484,967,1004
6485,971,1007
6486,972,1006
6487,974,1011
6488,975,1011
6489,978,1014
6490,975,1013
6491,977,1013
6492,978,1013
6493,977,1013
6494,977,1017
6495,975,1017
6496,975,1018
6497,973,1020
6498,974,1023
6499,975,1026
6500,976,1030
6501,978,1032
6502,979,1032
6503,981,1032
6504,980,1031
6505,977,1031
6506,980,1034
6507,982,1036
6508,982,1038
6509,987,1040
6510,990,1047
6511,993,1050
6512,996,1052
6513,1002,1057
6514,1006,1059
6515,1010,1064
6516,1011,1065
6517,1016,1066
6518,1018,1070
6519,1022,1075
6520,1026,1079
6521,1028,1085
6522,1030,1090
6523,1035,1098
6524,1039,1103
6525,1044,1106
6526,1047,1111
6527,1050,1115
6528,1053,1116
6529,1053,1120
6530,1052,1124
6531,1051,1125
6532,1050,1128
6533,1053,1132
6534,1056,1136
6535,1058,1139
6536,1060,1144
6537,1062,1144
6538,1064,1142
6539,1064,1145
6540,1063,1142
6541,1064,1142
6542,1064,1144
6543,1062,1140
6544,1061,1142
6545,1058,1142
6546,1059,1142
6547,1058,1141
6548,1058,1139
6549,1056,1135
6550,1055,1129
6551,1050,1124
6552,1049,1116
6553,1047,1109
6554,1042,1103
6555,1036,1098
6556,1032,1091
6557,1029,1084
6558,1026,1076
6559,1022,1071
6560,1022,1065
6561,1018,1058
6562,1014,1050
6563,1008,1043
6564,1003,1035
6565,997,1029
6566,992,1022
6567,989,1019
6568,984,1015
6569,984,1013
6570,982,1010
6571,980,1010
6572,981,1009
6573,981,1006
6574,979,1004
6575,981,1001
6576,979,997
6577,979,994
6578,980,997
6579,980,994
6580,980,999
6581,982,998
6582,982,998
6583,984,1001
6584,984,1000
6585,984,1000
6586,985,998
6587,987,998
6588,985,998
6589,985,996
6590,981,996
6591,981,997
6592,979,999
6593,978,998
6594,977,1002
6595,976,1003
6596,975,1006
6597,976,1004
6598,978,1002
6599,975,1001
6600,976,1002
6601,978,1000
6602,977,998
6603,976,999
6604,974,998
6605,975,998
6606,973,999
6607,973,1002
6608,975,1002
6609,978,1002
6610,978,1002
6611,979,1001
6612,979,998
6613,978,997
6614,978,994
6615,975,995
6616,972,994
6617,971,995
6618,973,993
6619,974,997
6620,972,996
6621,975,995
6622,977,993
6623,976,991
6624,976,990
6625,975,987
6626,973,988
6627,972,987
6628,970,989
6629,971,985
6630,971,986
6631,970,988
6632,972,990
6633,973,987
6634,975,983
6635,976,985
6636,974,985
6637,973,982
6638,971,978
6639,969,979
6640,966,981
6641,967,979
6642,968,981
6643,970,984
6644,975,984
6645,978,982
6646,977,982
6647,973,982
6648,970,980
6649,967,980
6650,960,976
6651,962,974
6652,961,976
6653,962,977
6654,962,976
6655,966,980
6656,965,980
6657,969,981
6658,967,980
6659,967,980
6660,966,980
6661,967,982
6662,970,981
6663,970,982
6664,971,988
6665,975,988
6666,978,991
6667,983,992
6668,986,999
6669,988,1000
6670,991,1000
6671,994,1004
6672,995,1003
6673,995,1002
6674,990,1002
6675,988,1002
6676,985,1002
6677,985,1002
6678,986,1004
6679,988,1002
6680,987,1000
6681,987,999
6682,983,992
6683,980,990
6684,976,986
6685,971,984
6686,967,982
6687,965,982
6688,960,983
6689,961,984
6690,962,984
6691,960,985
6692,956,984
6693,956,982
6694,952,980
6695,950,978
6696,951,977
6697,947,976
6698,948,971
6699,948,973
6700,947,972
6701,947,972
6702,949,975
6703,949,974
6704,950,977
6705,950,978
6706,948,975
6707,948,975
6708,948,976
6709,946,972
6710,945,972
6711,942,973
6712,944,973
6713,945,977
6714,948,978
6715,948,981
6716,951,983
6717,953,983
6718,954,982
6719,959,984
6720,958,986
6721,960,990
6722,961,994
6723,965,1003
6724,981,1017
6725,1001,1031
6726,1029,1050
6727,1067,1073
6728,1110,1094
6729,1156,1111
6730,1197,1118
6731,1234,1113
6732,1262,1093
6733,1270,1057
6734,1254,1011
6735,1219,964
6736,1159,925
6737,1081,895
6738,990,872
6739,893,854
6740,808,839
6741,745,829
6742,719,825
6743,738,832
6744,779,840
6745,829,857
6746,881,880
6747,918,904
6748,948,934
6749,964,956
6750,970,978
6751,970,994
6752,969,1003
6753,966,1007
6754,963,1009
6755,965,1011
6756,965,1009
6757,969,1009
6758,971,1010
6759,971,1012
6760,972,1013
6761,974,1018
6762,976,1020
6763,979,1023
6764,980,1026
6765,981,1026
6766,983,1027
6767,985,1025
6768,987,1023
6769,986,1025
6770,984,1026
6771,987,1024
6772,985,1027
6773,987,1029
6774,987,1031
6775,988,1031
6776,992,1032
6777,994,1034
6778,994,1035
6779,994,1036
6780,997,1034
6781,996,1037
6782,994,1038
6783,993,1039
6784,994,1041
6785,997,1042
6786,996,1046
6787,1000,1050
6788,1005,1055
6789,1010,1060
6790,1015,1058
6791,1018,1061
6792,1022,1064
6793,1025,1067
6794,1025,1070
6795,1027,1075
6796,1028,1080
6797,1033,1081
6798,1039,1089
6799,1042,1091
6800,1044,1097
6801,1046,1100
6802,1050,1103
6803,1049,1107
6804,1050,1108
6805,1051,1113
6806,1047,1112
6807,1047,1114
6808,1050,1118
6809,1051,1120
6810,1050,1125
6811,1052,1128
6812,1053,1127
6813,1052,1130
6814,1054,1130
6815,1052,1131
6816,1052,1134
6817,1051,1129
6818,1051,1130
6819,1049,1130
6820,1047,1125
6821,1046,1124
6822,1046,1125
6823,1045,1125
6824,1047,1123
6825,1048,1119
6826,1047,1116
6827,1048,1110
6828,1045,1104
6829,1042,1098
6830,1038,1089
6831,1033,1081
6832,1029,1076
6833,1022,1070
6834,1018,1065
6835,1018,1060
6836,1011,1055
6837,1006,1050
6838,1001,1043
6839,998,1038
6840,990,1031
6841,987,1025
6842,980,1018
6843,975,1014
6844,971,1012
6845,968,1009
6846,965,1007
6847,966,1005
6848,968,1005
6849,967,1006
6850,966,1003
6851,966,1002
6852,965,1000
6853,961,1001
6854,960,998
6855,957,997
6856,958,997
6857,957,999
6858,959,1001
6859,959,1003
6860,963,1004
6861,965,1003
6862,965,1005
6863,964,1003
6864,961,1001
6865,963,999
6866,961,999
6867,960,997
6868,962,1000
6869,963,998
6870,965,1000
6871,967,999
6872,968,999
6873,971,1001
6874,969,999
6875,970,996
6876,971,997
6877,968,996
6878,966,993
6879,968,993
6880,963,995
6881,963,996
6882,965,995
6883,964,994
6884,966,997
6885,967,997
6886,966,994
6887,967,993
6888,963,993
6889,964,988
6890,962,987
6891,959,985
6892,957,985
6893,957,986
6894,957,986
6895,959,985
6896,957,986
6897,961,983
6898,959,986
6899,960,985
6900,958,982
6901,957,982
6902,955,979
6903,952,979
6904,949,978
6905,950,979
6906,951,979
6907,951,980
6908,950,979
6909,951,978
6910,953,979
6911,951,976
6912,950,974
6913,949,972
6914,946,973
6915,947,973
6916,946,971
6917,946,974
6918,946,972
6919,948,974
6920,948,975
6921,949,976
6922,948,975
6923,946,973
6924,945,972
6925,943,971
6926,942,970
6927,942,968
6928,942,970
6929,944,974
6930,945,975
6931,948,977
6932,951,978
6933,954,983
6934,956,984
6935,957,983
6936,963,983
6937,962,984
6938,962,984
6939,962,984
6940,965,987
6941,967,990
6942,970,993
6943,971,997
6944,973,998
6945,972,998
6946,972,996
6947,970,997
6948,969,994
6949,967,991
6950,964,987
6951,962,986
6952,959,982
6953,960,983
6954,958,982
6955,958,978
6956,960,978
6957,956,978
6958,951,976
6959,947,976
6960,945,975
6961,942,971
6962,939,968
6963,935,963
6964,934,963
6965,929,963
6966,931,965
6967,931,967
6968,932,965
6969,933,967
6970,932,966
6971,934,968
6972,934,966
6973,928,965
6974,931,965
6975,931,964
6976,929,965
6977,926,967
6978,927,968
6979,929,971
6980,929,973
6981,930,972
6982,929,974
6983,932,974
6984,933,975
6985,934,974
6986,930,972
6987,932,973
6988,931,972
6989,933,975
6990,938,976
6991,941,978
6992,946,983
6993,947,985
6994,950,987
6995,954,990
6996,956,1001
6997,968,1004
6998,985,1016
6999,1009,1026
7000,1036,1042
7001,1072,1062
7002,1114,1080
7003,1162,1093
7004,1208,1104
7005,1243,1100
7006,1263,1080
7007,1255,1055
7008,1218,1022
7009,1146,990
7010,1054,960
7011,946,935
7012,835,911
7013,742,891
7014,683,871
7015,672,857
7016,700,848
7017,748,847
7018,801,851
7019,847,861
7020,883,878
7021,913,898
7022,930,917
7023,940,939
7024,948,958
7025,950,971
7026,954,984
7027,956,989
7028,959,992
7029,959,993
7030,957,992
7031,956,992
7032,953,993
7033,958,992
7034,960,992
7035,961,992
7036,965,995
7037,970,997
7038,974,997
7039,975,1002
7040,978,1002
7041,981,1005
7042,985,1004
7043,987,1008
7044,992,1007
7045,996,1007
7046,1002,1008
7047,1002,1009
7048,1007,1010
7049,1008,1012
7050,1014,1014
7051,1016,1014
7052,1019,1021
7053,1024,1020
7054,1026,1020
7055,1027,1021
7056,1027,1019
7057,1027,1022
7058,1025,1022
7059,1025,1023
7060,1021,1024
7061,1021,1027
7062,1023,1032
7063,1021,1035
7064,1024,1038
7065,1026,1041
7066,1029,1044
7067,1032,1046
7068,1030,1048
7069,1029,1050
7070,1028,1051
7071,1029,1054
7072,1029,1058
7073,1032,1062
7074,1035,1064
7075,1036,1071
7076,1042,1075
7077,1043,1075
7078,1044,1079
7079,1045,1079
7080,1047,1080
7081,1051,1084
7082,1055,1079
7083,1057,1082
7084,1060,1083
7085,1063,1086
7086,1065,1087
7087,1070,1088
7088,1074,1092
7089,1079,1091
7090,1080,1094
7091,1084,1091
7092,1082,1090
7093,1081,1089
7094,1081,1086
7095,1079,1086
7096,1077,1084
7097,1075,1083
7098,1073,1081
7099,1071,1079
7100,1067,1078
7101,1064,1073
7102,1058,1067
7103,1053,1062
7104,1050,1056
7105,1038,1051
7106,1033,1042
7107,1028,1036
7108,1022,1033
7109,1016,1027
7110,1014,1024
7111,1009,1021
7112,1006,1018
7113,1002,1014
7114,999,1010
7115,996,1007
7116,994,1004
7117,988,1000
7118,985,997
7119,982,996
7120,979,992
7121,975,993
7122,975,993
7123,973,992
7124,974,993
7125,975,994
7126,976,991
7127,974,992
7128,974,990
7129,971,987
7130,971,986
7131,970,986
7132,967,986
7133,968,987
7134,969,988
7135,970,989
7136,969,992
7137,972,991
7138,972,991
7139,971,991
7140,970,987
7141,970,989
7142,971,986
7143,969,985
7144,968,986
7145,970,987
7146,972,987
7147,975,987
7148,976,989
7149,977,988
7150,976,988
7151,979,987
7152,976,987
7153,975,984
7154,976,982
7155,975,983
7156,973,981
7157,972,980
7158,973,984
7159,976,983
7160,976,984
7161,977,982
7162,978,982
7163,977,980
7164,972,981
7165,973,978
7166,971,979
7167,970,975
7168,969,978
7169,965,978
7170,965,976
7171,965,977
7172,967,978
7173,964,979
7174,963,980
7175,963,977
7176,965,976
7177,962,975
7178,963,973
7179,962,972
7180,964,972
7181,964,974
7182,963,974
7183,962,977
7184,965,977
7185,967,979
7186,970,978
7187,972,977
7188,969,980
7189,971,980
7190,969,982
7191,973,980
7192,975,983
7193,975,985
7194,982,990
7195,986,993
7196,990,995
7197,995,997
7198,1000,995
7199,1002,996
7200,1003,995
7201,1001,996
7202,1004,996
7203,1003,992
7204,998,990
7205,997,986
7206,996,983
7207,997,981
7208,999,983
7209,1001,983
7210,1001,984
7211,1005,981
7212,1003,981
7213,1000,975
7214,998,972
7215,992,970
7216,992,968
7217,988,969
7218,987,968
7219,987,968
7220,985,966
7221,984,967
7222,982,963
7223,981,960
7224,974,957
7225,969,953
7226,967,952
7227,961,952
7228,962,954
7229,960,955
7230,958,955
7231,959,957
7232,961,957
7233,962,960
7234,962,961
7235,963,959
7236,963,959
7237,961,958
7238,959,958
7239,958,956
7240,958,957
7241,958,959
7242,956,960
7243,957,961
7244,957,962
7245,958,966
7246,959,965
7247,955,964
7248,951,964
7249,950,964
7250,949,965
7251,950,968
7252,951,972
7253,956,978
7254,966,988
7255,980,999
7256,1008,1014
7257,1040,1031
7258,1077,1052
7259,1120,1073
7260,1168,1092
7261,1208,1100
7262,1243,1102
7263,1268,1083
7264,1269,1055
7265,1245,1018
7266,1188,980
7267,1108,945
7268,1009,915
7269,901,890
7270,801,866
7271,727,848
7272,694,833
7273,703,827
7274,743,829
7275,796,835
7276,847,854
7277,889,874
7278,917,902
7279,938,923
7280,949,948
7281,954,966
7282,955,977
7283,955,987
7284,952,988
7285,952,990
7286,950,989
7287,953,990
7288,955,991
7289,956,995
7290,959,997
7291,962,1001
7292,961,1005
7293,967,1004
7294,969,1007
7295,972,1006
7296,972,1004
7297,974,1005
7298,974,1003
7299,974,1005
7300,974,1006
7301,974,1010
7302,976,1012
7303,979,1014
7304,979,1016
7305,984,1017
7306,988,1019
7307,989,1021
7308,990,1021
7309,991,1021
7310,993,1022
7311,993,1023
7312,996,1026
7313,995,1028
7314,1000,1031
7315,1003,1034
7316,1007,1038
7317,1012,1041
7318,1018,1043
7319,1020,1045
7320,1022,1047
7321,1023,1047
7322,1025,1051
7323,1027,1050
7324,1025,1056
7325,1026,1060
7326,1031,1063
7327,1033,1066
7328,1039,1072
7329,1043,1075
7330,1044,1076
7331,1049,1082
7332,1051,1084
7333,1054,1085
7334,1053,1089
7335,1055,1092
7336,1058,1096
7337,1060,1097
7338,1062,1101
7339,1065,1104
7340,1067,1106
7341,1069,1110
7342,1070,1109
7343,1070,1112
7344,1070,1111
7345,1069,1110
7346,1066,1110
7347,1066,1108
7348,1066,1109
7349,1065,1107
7350,1065,1109
7351,1065,1111
7352,1067,1109
7353,1067,1108
7354,1068,1104
7355,1068,1103
7356,1065,1097
7357,1063,1092
7358,1058,1086
7359,1053,1081
7360,1051,1078
7361,1049,1072
7362,1044,1067
7363,1039,1061
7364,1037,1057
7365,1031,1053
7366,1028,1046
7367,1022,1042
7368,1018,1035
7369,1012,1027
7370,1007,1021
7371,1000,1018
7372,997,1011
7373,992,1009
7374,989,1007
7375,988,1006
7376,986,1003
7377,986,1002
7378,983,999
7379,982,997
7380,980,994
7381,977,991
7382,975,988
7383,971,989
7384,971,988
7385,970,987
7386,971,990
7387,975,988
7388,975,992
7389,976,990
7390,977,989
7391,974,992
7392,973,990
7393,972,989
7394,972,985
7395,972,987
7396,971,988
7397,973,988
7398,972,990
7399,975,991
7400,974,995
7401,977,992
7402,977,994
7403,979,993
7404,977,991
7405,977,991
7406,979,988
7407,976,986
7408,977,986
7409,977,989
7410,979,991
7411,979,993
7412,980,992
7413,981,994
7414,981,990
7415,981,990
7416,977,989
7417,974,988
7418,973,988
7419,972,987
7420,971,989
7421,967,987
7422,967,987
7423,969,990
7424,969,992
7425,971,989
7426,969,990
7427,967,991
7428,965,990
7429,963,985
7430,961,984
7431,959,981
7432,957,983
7433,956,984
7434,959,983
7435,957,984
7436,961,984
7437,961,987
7438,961,984
7439,960,984
7440,960,980
7441,959,979
7442,957,979
7443,957,979
7444,956,978
7445,958,978
7446,959,981
7447,963,982
7448,971,984
7449,975,987
7450,978,988
7451,981,988
7452,986,990
7453,988,992
7454,987,991
7455,992,994
7456,991,993
7457,991,996
7458,993,997
7459,999,999
7460,1005,1002
7461,1008,1003
7462,1013,1006
7463,1014,1007
7464,1012,1006
7465,1006,1002
7466,1002,998
7467,993,994
7468,989,990
7469,985,989
7470,984,990
7471,983,991
7472,984,993
7473,983,991
7474,981,988
7475,979,987
7476,978,983
7477,974,981
7478,972,980
7479,970,977
7480,968,976
7481,966,976
7482,964,977
7483,961,974
7484,961,973
7485,959,974
7486,958,975
7487,958,975
7488,960,970
7489,960,970
7490,957,969
7491,956,971
7492,957,968
7493,954,970
7494,955,970
7495,955,976
7496,953,975
7497,949,975
7498,951,974
7499,953,975
7500,951,971
7501,955,972
7502,955,970
7503,956,971
7504,959,972
7505,960,972
7506,961,974
7507,965,977
7508,966,979
7509,972,979
7510,971,980
7511,976,980
7512,975,979
7513,980,980
7514,980,982
7515,984,988
7516,993,997
7517,1008,1007
7518,1035,1022
7519,1067,1038
7520,1105,1056
7521,1148,1075
7522,1194,1091
7523,1238,1098
7524,1275,1093
7525,1300,1075
7526,1306,1043
7527,1286,1007
7528,1238,974
7529,1161,945
7530,1065,920
7531,953,897
7532,848,879
7533,764,861
7534,718,843
7535,715,836
7536,746,831
7537,796,837
7538,852,851
7539,900,870
7540,939,897
7541,963,925
7542,980,949
7543,987,971
7544,990,984
7545,985,992
7546,986,992
7547,985,995
7548,983,994
7549,983,994
7550,982,994
7551,984,997
7552,984,1000
7553,985,1003
7554,985,1004
7555,986,1009
7556,988,1010
7557,989,1014
7558,989,1014
7559,992,1014
7560,993,1014
7561,993,1017
7562,994,1018
7563,994,1017
7564,994,1020
7565,993,1024
7566,994,1025
7567,997,1028
7568,1002,1034
7569,1008,1035
7570,1010,1036
7571,1013,1037
7572,1012,1040
7573,1014,1040
7574,1016,1041
7575,1017,1044
7576,1018,1045
7577,1020,1047
7578,1023,1052
7579,1027,1058
7580,1029,1061
7581,1033,1065
7582,1035,1070
7583,1037,1074
7584,1038,1074
7585,1038,1077
7586,1039,1079
7587,1039,1081
7588,1039,1087
7589,1038,1089
7590,1041,1095
7591,1042,1101
7592,1045,1105
7593,1049,1110
7594,1053,1111
7595,1051,1117
7596,1054,1117
7597,1054,1120
7598,1057,1119
7599,1056,1120
7600,1053,1121
7601,1054,1126
7602,1054,1125
7603,1059,1127
7604,1060,1127
7605,1062,1128
7606,1062,1128
7607,1062,1129
7608,1064,1126
7609,1061,1121
7610,1059,1120
7611,1061,1117
7612,1056,1113
7613,1054,1113
7614,1054,1111
7615,1052,1106
7616,1049,1102
7617,1047,1098
7618,1043,1088
7619,1039,1085
7620,1034,1078
7621,1027,1067
7622,1023,1060
7623,1016,1054
7624,1008,1049
7625,1001,1043
7626,996,1039
7627,990,1033
7628,984,1027
7629,981,1024
7630,979,1018
7631,975,1014
7632,971,1010
7633,972,1006
7634,970,1002
7635,968,998
7636,966,998
7637,963,997
7638,964,995
7639,964,996
7640,965,1000
7641,964,997
7642,966,997
7643,966,995
7644,969,996
7645,969,994
7646,970,993
7647,971,991
7648,975,994
7649,974,995
7650,976,995
7651,981,998
7652,985,1001
7653,988,1000
7654,990,1000
7655,990,999
7656,993,998
7657,995,997
7658,993,997
7659,991,994
7660,994,996
7661,992,996
7662,991,995
7663,994,997
7664,994,999
7665,996,1000
7666,996,996
7667,997,997
7668,999,994
7669,998,992
7670,995,989
7671,990,988
7672,989,985
7673,989,985
7674,985,985
7675,987,988
7676,987,989
7677,987,990
7678,986,990
7679,984,990
7680,981,990
7681,974,987
7682,971,986
7683,962,984
7684,959,983
7685,955,984
7686,951,986
7687,951,985
7688,948,985
7689,950,986
7690,950,983
7691,949,985
7692,945,982
7693,944,981
7694,940,981
7695,937,979
7696,936,978
7697,934,982
7698,939,984
7699,943,985
7700,945,988
7701,951,990
7702,955,989
7703,957,991
7704,957,993
7705,959,991
7706,959,989
7707,959,988
7708,959,990
7709,957,991
7710,959,991
7711,961,992
7712,961,994
7713,962,998
7714,964,998
7715,963,995
7716,960,991
7717,957,989
7718,955,986
7719,952,984
7720,953,981
7721,951,980
7722,952,984
7723,954,983
7724,951,985
7725,951,982
7726,949,981
7727,945,980
7728,941,977
7729,940,978
7730,939,976
7731,937,975
7732,934,973
7733,930,972
7734,929,971
7735,927,972
7736,926,971
7737,928,971
7738,927,971
7739,927,968
7740,926,969
7741,926,967
7742,925,965
7743,925,963
7744,926,961
7745,925,964
7746,925,962
7747,927,965
7748,929,967
7749,930,968
7750,930,969
7751,933,968
7752,935,969
7753,935,967
7754,935,967
7755,935,966
7756,937,966
7757,937,968
7758,938,969
7759,942,971
7760,942,974
7761,948,977
7762,950,980
7763,952,983
7764,954,985
7765,956,989
7766,963,995
7767,971,1007
7768,989,1019
7769,1012,1034
7770,1039,1052
7771,1078,1071
7772,1120,1089
7773,1164,1101
7774,1204,1106
7775,1241,1095
7776,1263,1070
7777,1267,1030
7778,1247,993
7779,1203,949
7780,1136,917
7781,1052,890
7782,959,871
7783,863,857
7784,786,848
7785,739,839
7786,727,835
7787,748,840
7788,787,846
7789,829,858
7790,877,879
7791,907,900
7792,936,926
7793,952,950
7794,960,972
7795,963,987
7796,962,999
7797,960,1003
7798,957,1005
7799,957,1007
7800,959,1007
7801,957,1006
7802,958,1007
7803,961,1010
7804,961,1012
7805,962,1012
7806,962,1015
7807,962,1017
7808,963,1019
7809,966,1021
7810,969,1023
7811,973,1020
7812,976,1023
7813,974,1021
7814,977,1020
7815,976,1022
7816,978,1020
7817,977,1025
7818,980,1028
7819,981,1027
7820,983,1030
7821,987,1031
7822,990,1033
7823,993,1033
7824,994,1036
7825,997,1036
7826,996,1039
7827,997,1038
7828,997,1039
7829,999,1044
7830,1002,1046
7831,1003,1049
7832,1006,1056
7833,1011,1056
7834,1014,1059
7835,1017,1063
7836,1019,1063
7837,1021,1068
7838,1021,1072
7839,1022,1072
7840,1023,1075
7841,1024,1079
7842,1029,1087
7843,1032,1091
7844,1036,1096
7845,1041,1100
7846,1045,1103
7847,1050,1106
7848,1054,1107
7849,1055,1108
7850,1057,1111
7851,1056,1111
7852,1058,1115
7853,1058,1117
7854,1060,1119
7855,1061,1122
7856,1063,1124
7857,1063,1125
7858,1064,1124
7859,1064,1122
7860,1063,1123
7861,1062,1121
7862,1060,1116
7863,1056,1117
7864,1053,1115
7865,1055,1113
7866,1052,1113
7867,1051,1110
7868,1049,1107
7869,1048,1105
7870,1045,1101
7871,1040,1092
7872,1035,1084
7873,1029,1077
7874,1023,1069
7875,1018,1063
7876,1012,1054
7877,1006,1049
7878,1001,1044
7879,997,1040
7880,992,1032
7881,988,1030
7882,985,1022
7883,981,1018
7884,976,1013
7885,973,1008
7886,970,1003
7887,966,1000
7888,962,996
7889,964,997
7890,965,994
7891,966,994
7892,967,996
7893,967,994
7894,970,992
7895,970,992
7896,973,993
7897,972,992
7898,973,990
7899,970,990
7900,973,987
7901,971,989
7902,972,990
7903,970,992
7904,972,994
7905,975,995
7906,975,996
7907,975,997
7908,977,995
7909,973,994
7910,971,994
7911,968,993
7912,966,991
7913,966,991
7914,968,993
7915,968,993
7916,970,994
7917,974,995
7918,977,996
7919,976,993
7920,977,993
7921,978,992
7922,977,989
7923,974,988
7924,975,988
7925,976,988
7926,974,987
7927,973,991
7928,975,990
7929,976,990
7930,974,989
7931,974,987
7932,971,988
7933,970,987
7934,970,985
7935,969,984
7936,965,981
7937,965,981
7938,962,982
7939,962,983
7940,957,981
7941,958,984
7942,961,982
7943,963,978
7944,962,980
7945,962,976
7946,963,973
7947,963,975
7948,965,976
7949,967,978
7950,968,978
7951,971,983
7952,976,985
7953,979,985
7954,981,985
7955,984,984
7956,985,987
7957,986,984
7958,987,984
7959,986,981
7960,987,984
7961,991,984
7962,994,984
7963,998,985
7964,1001,990
7965,1003,986
7966,1002,983
7967,999,979
7968,994,975
7969,991,976
7970,990,970
7971,987,971
7972,982,970
7973,979,971
7974,977,968
7975,973,968
7976,969,969
7977,970,969
7978,968,966
7979,968,967
7980,968,967
7981,969,964
7982,968,962
7983,964,957
7984,959,954
7985,958,956
7986,957,954
7987,956,955
7988,956,959
7989,957,959
7990,963,957
7991,962,958
7992,961,960
7993,957,955
7994,956,956
7995,958,954
7996,955,954
7997,953,957
7998,953,958
7999,957,961
8000,958,962
8001,958,961
8002,960,964
8003,960,962
8004,957,964
8005,955,960
8006,954,961
8007,949,961
8008,953,962
8009,952,962
8010,956,966
8011,957,969
8012,960,970
8013,962,976
8014,962,979
8015,967,986
8016,976,992
8017,989,1003
8018,1012,1015
8019,1039,1026
8020,1076,1044
8021,1120,1063
8022,1168,1085
8023,1215,1094
8024,1256,1094
8025,1286,1083
8026,1293,1056
8027,1273,1023
8028,1225,990
8029,1141,956
8030,1039,927
8031,923,901
8032,812,879
8033,727,860
8034,684,847
8035,689,841
8036,733,844
8037,789,854
8038,847,867
8039,894,887
8040,926,907
8041,947,930
8042,955,948
8043,954,962
8044,956,973
8045,953,980
8046,951,982
8047,952,986
8048,954,987
8049,955,990
8050,960,993
8051,963,993
8052,965,993
8053,964,994
8054,963,996
8055,965,993
8056,965,996
8057,966,997
8058,967,999
8059,969,999
8060,971,1001
8061,974,1004
8062,976,1006
8063,977,1004
8064,979,1006
8065,978,1008
8066,978,1006
8067,977,1007
8068,975,1008
8069,977,1009
8070,977,1010
8071,981,1012
8072,982,1017
8073,987,1018
8074,990,1022
8075,994,1021
8076,995,1023
8077,995,1026
8078,997,1027
8079,995,1026
8080,997,1027
8081,1000,1030
8082,1004,1034
8083,1008,1036
8084,1013,1042
8085,1019,1047
8086,1022,1049
8087,1027,1051
8088,1030,1054
8089,1031,1056
8090,1031,1056
8091,1035,1058
8092,1039,1062
8093,1043,1068
8094,1052,1069
8095,1055,1073
8096,1063,1079
8097,1067,1080
8098,1067,1085
8099,1071,1083
8100,1072,1084
8101,1077,1084
8102,1077,1084
8103,1079,1081
8104,1080,1082
8105,1079,1083
8106,1081,1086
8107,1086,1089
8108,1087,1092
8109,1090,1090
8110,1091,1092
8111,1091,1089
8112,1092,1088
8113,1089,1084
8114,1089,1081
8115,1084,1077
8116,1077,1074
8117,1077,1072
8118,1074,1068
8119,1070,1065
8120,1070,1061
8121,1070,1059
8122,1067,1055
8123,1063,1048
8124,1055,1039
8125,1047,1035
8126,1039,1029
8127,1032,1023
8128,1021,1020
8129,1012,1015
8130,1007,1007
8131,1000,1006
8132,991,1006
8133,986,1001
8134,982,1000
8135,976,996
8136,972,994
8137,970,991
8138,964,988
8139,960,984
8140,958,982
8141,957,983
8142,956,983
8143,955,983
8144,958,985
8145,960,985
8146,959,985
8147,962,981
8148,959,983
8149,958,981
8150,960,981
8151,960,980
8152,961,979
8153,958,980
8154,956,980
8155,961,983
8156,961,983
8157,961,985
8158,963,985
8159,964,985
8160,963,986
8161,965,982
8162,961,983
8163,964,981
8164,967,980
8165,967,983
8166,969,983
8167,969,985
8168,967,982
8169,969,988
8170,970,986
8171,969,986
8172,965,987
8173,962,984
8174,958,984
8175,953,979
8176,949,979
8177,948,978
8178,946,980
8179,944,981
8180,943,982
8181,943,982
8182,939,981
8183,939,980
8184,937,980
8185,934,977
8186,933,976
8187,932,975
8188,931,972
8189,931,973
8190,935,976
8191,934,975
8192,936,977
8193,937,979
8194,940,980
8195,941,978
8196,943,979
8197,944,979
8198,946,977
8199,949,978
8200,954,982
8201,956,981
8202,960,984
8203,964,986
8204,969,990
8205,972,993
8206,975,994
8207,978,991
8208,980,992
8209,986,991
8210,987,992
8211,988,993
8212,988,992
8213,987,994
8214,985,993
8215,983,992
8216,981,992
8217,979,989
8218,976,988
8219,979,987
8220,975,989
8221,972,986
8222,969,984
8223,969,982
8224,965,979
8225,960,978
8226,958,978
8227,957,979
8228,956,978
8229,955,981
8230,956,980
8231,954,979
8232,950,976
8233,947,972
8234,943,970
8235,941,966
8236,938,968
8237,937,967
8238,939,969
8239,941,970
8240,938,970
8241,941,970
8242,942,973
8243,939,970
8244,939,972
8245,939,970
8246,937,968
8247,937,968
8248,937,966
8249,937,967
8250,937,967
8251,938,971
8252,940,971
8253,938,971
8254,941,971
8255,941,972
8256,941,969
8257,943,969
8258,945,969
8259,947,970
8260,945,970
8261,949,974
8262,949,978
8263,956,982
8264,958,990
8265,971,999
8266,987,1010
8267,1011,1026
8268,1040,1041
8269,1079,1058
8270,1118,1079
8271,1165,1093
8272,1209,1099
8273,1247,1093
8274,1274,1073
8275,1279,1043
8276,1258,1006
8277,1207,972
8278,1130,940
8279,1034,911
8280,924,888
8281,816,865
8282,734,845
8283,694,829
8284,701,828
8285,739,837
8286,796,846
8287,851,866
8288,897,888
8289,931,915
8290,952,938
8291,962,960
8292,965,976
8293,964,988
8294,959,991
8295,956,994
8296,954,994
8297,951,997
8298,953,999
8299,956,1001
8300,959,1004
8301,960,1008
8302,961,1009
8303,962,1010
8304,961,1011
8305,962,1011
8306,964,1010
8307,964,1009
8308,962,1011
8309,963,1015
8310,966,1016
8311,970,1020
8312,971,1022
8313,975,1025
8314,977,1025
8315,977,1026
8316,979,1028
8317,980,1030
8318,980,1031
8319,981,1032
8320,982,1032
8321,983,1038
8322,986,1038
8323,988,1041
8324,992,1045
8325,995,1048
8326,996,1052
8327,999,1055
8328,1002,1057
8329,1005,1059
8330,1006,1060
8331,1008,1062
8332,1009,1065
8333,1010,1067
8334,1014,1073
8335,1018,1077
8336,1022,1083
8337,1026,1089
8338,1031,1091
8339,1036,1091
8340,1041,1096
8341,1044,1099
8342,1046,1101
8343,1049,1103
8344,1051,1106
8345,1055,1112
8346,1056,1112
8347,1062,1118
8348,1064,1120
8349,1067,1120
8350,1070,1123
8351,1071,1121
8352,1069,1122
8353,1066,1123
8354,1065,1123
8355,1062,1118
8356,1063,1119
8357,1063,1119
8358,1062,1120
8359,1064,1121
8360,1064,1119
8361,1063,1117
8362,1061,1116
8363,1062,1110
8364,1057,1107
8365,1055,1101
8366,1051,1095
8367,1048,1090
8368,1046,1085
8369,1042,1080
8370,1039,1074
8371,1038,1068
8372,1033,1064
8373,1028,1058
8374,1024,1052
8375,1017,1046
8376,1014,1040
8377,1008,1033
8378,1004,1029
8379,1002,1022
8380,1000,1018
8381,998,1014
8382,992,1014
8383,987,1009
8384,984,1007
8385,981,1007
8386,979,1007
8387,979,1002
8388,978,1002
8389,976,998
8390,972,997
8391,971,992
8392,969,994
8393,966,993
8394,968,993
8395,970,995
8396,971,997
8397,972,997
8398,972,998
8399,973,996
8400,976,997
8401,978,996
8402,976,996
8403,977,994
8404,977,992
8405,979,995
8406,980,998
8407,982,1000
8408,984,999
8409,986,1001
8410,988,1003
8411,986,1002
8412,987,1001
8413,986,1000
8414,985,1000
8415,982,999
8416,982,998
8417,981,999
8418,979,1002
8419,981,999
8420,982,999
8421,983,999
8422,984,1001
8423,984,1001
8424,984,999
8425,985,995
8426,985,994
8427,982,994
8428,979,991
8429,979,991
8430,977,994
8431,978,993
8432,979,992
8433,981,994
8434,980,993
8435,976,992
8436,974,990
8437,971,988
8438,970,985
8439,968,986
8440,965,985
8441,963,984
8442,962,985
8443,963,987
8444,963,988
8445,964,991
8446,967,992
8447,968,994
8448,966,995
8449,967,993
8450,968,994
8451,969,994
8452,971,995
8453,973,998
8454,972,1000
8455,972,1002
8456,976,1002
8457,977,1004
8458,982,1006
8459,986,1006
8460,987,1008
8461,987,1004
8462,988,1005
8463,987,1002
8464,984,1000
8465,982,996
8466,978,992
8467,977,995
8468,976,994
8469,976,997
8470,975,994
8471,976,995
8472,974,992
8473,972,991
8474,969,986
8475,965,984
8476,962,982
8477,957,981
8478,955,982
8479,956,981
8480,955,984
8481,954,982
8482,952,983
8483,951,980
8484,947,978
8485,942,975
8486,939,971
8487,937,970
8488,942,968
8489,938,970
8490,937,971
8491,940,973
8492,944,972
8493,947,974
8494,945,974
8495,947,974
8496,948,973
8497,944,974
8498,945,970
8499,943,972
8500,942,971
8501,941,972
8502,940,973
8503,944,972
8504,945,976
8505,946,974
8506,946,975
8507,949,974
8508,949,976
8509,949,976
8510,947,977
8511,948,978
8512,949,982
8513,950,987
8514,954,996
8515,965,1004
8516,981,1019
8517,1005,1032
8518,1038,1050
8519,1079,1066
8520,1126,1081
8521,1173,1091
8522,1216,1089
8523,1251,1077
8524,1271,1051
8525,1274,1015
8526,1253,978
8527,1207,942
8528,1136,910
8529,1048,882
8530,949,863
8531,841,845
8532,747,827
8533,681,814
8534,666,810
8535,696,822
8536,756,833
8537,815,854
8538,874,876
8539,919,903
8540,948,930
8541,966,953
8542,973,971
8543,974,984
8544,970,991
8545,968,997
8546,967,997
8547,966,997
8548,968,1000
8549,972,1001
8550,973,1003
8551,975,1008
8552,981,1012
8553,984,1014
8554,986,1016
8555,986,1015
8556,989,1019
8557,991,1016
8558,991,1016
8559,993,1018
8560,994,1017
8561,996,1019
8562,998,1021
8563,998,1024
8564,1002,1025
8565,1003,1028
8566,1002,1030
8567,1006,1029
8568,1007,1030
8569,1008,1031
8570,1007,1033
8571,1006,1033
8572,1003,1031
8573,1002,1035
8574,1001,1037
8575,1001,1043
8576,1004,1048
8577,1006,1051
8578,1006,1057
8579,1008,1058
8580,1006,1062
8581,1007,1062
8582,1001,1063
8583,1001,1064
8584,998,1066
8585,997,1070
8586,997,1075
8587,996,1079
8588,998,1083
8589,998,1091
8590,1001,1094
8591,1001,1099
8592,1003,1102
8593,1006,1105
8594,1008,1106
8595,1011,1110
8596,1016,1113
8597,1018,1118
8598,1024,1121
8599,1026,1128
8600,1030,1131
8601,1035,1135
8602,1036,1134
8603,1036,1139
8604,1034,1137
8605,1034,1137
8606,1035,1138
8607,1036,1136
8608,1032,1135
8609,1034,1138
8610,1037,1137
8611,1036,1136
8612,1036,1138
8613,1038,1134
8614,1037,1132
8615,1038,1127
8616,1036,1125
8617,1034,1118
8618,1032,1110
8619,1028,1102
8620,1023,1095
8621,1016,1091
8622,1013,1083
8623,1007,1074
8624,1000,1069
8625,999,1066
8626,994,1059
8627,990,1052
8628,986,1045
8629,979,1039
8630,973,1031
8631,966,1027
8632,963,1020
8633,959,1015
8634,954,1012
8635,952,1010
8636,953,1011
8637,953,1006
8638,953,1003
8639,950,1003
8640,953,1000
8641,951,998
8642,951,996
8643,953,995
8644,952,993
8645,952,992
8646,954,994
8647,955,995
8648,957,996
8649,958,995
8650,961,998
8651,962,998
8652,965,999
8653,966,997
8654,962,996
8655,963,998
8656,962,995
8657,963,997
8658,962,998
8659,967,1001
8660,967,1003
8661,970,1005
8662,971,1005
8663,974,1005
8664,974,1005
8665,971,1003
8666,974,1003
8667,970,1003
8668,968,999
8669,967,1001
8670,967,1001
8671,967,1006
8672,968,1004
8673,967,1005
8674,969,1005
8675,969,1005
8676,968,1004
8677,965,1003
8678,965,998
8679,961,998
8680,961,998
8681,958,997
8682,956,998
8683,955,996
8684,958,998
8685,956,998
8686,959,997
8687,957,995
8688,957,995
8689,956,993
8690,955,991
8691,953,990
8692,951,987
8693,950,986
8694,948,987
8695,951,987
8696,949,987
8697,953,988
8698,951,990
8699,953,987
8700,954,986
8701,952,984
8702,951,984
8703,951,981
8704,948,982
8705,953,983
8706,952,985
8707,955,987
8708,961,988
8709,967,993
8710,970,993
8711,973,995
8712,979,997
8713,981,995
8714,982,997
8715,982,998
8716,983,997
8717,985,998
8718,988,1000
8719,990,1003
8720,991,1005
8721,995,1006
8722,995,1009
8723,994,1005
8724,994,1004
8725,990,999
8726,983,993
8727,979,992
8728,976,985
8729,976,987
8730,976,988
8731,974,989
8732,970,989
8733,970,989
8734,963,987
8735,961,985
8736,961,984
8737,960,984
8738,956,981
8739,951,979
8740,947,976
8741,944,976
8742,940,972
8743,936,974
8744,935,973
8745,935,976
8746,936,976
8747,940,977
8748,939,974
8749,938,973
8750,936,972
8751,934,973
8752,933,971
8753,930,970
8754,930,975
8755,930,976
8756,933,976
8757,935,977
8758,937,978
8759,936,978
8760,938,979
8761,937,979
8762,937,977
8763,938,976
8764,939,977
8765,939,978
8766,942,981
8767,941,983
8768,944,984
8769,948,987
8770,948,991
8771,952,995
8772,956,1000
8773,962,1008
8774,975,1018
8775,996,1030
8776,1025,1042
8777,1061,1062
8778,1104,1081
8779,1154,1098
8780,1201,1107
8781,1240,1105
8782,1267,1088
8783,1276,1056
8784,1259,1016
8785,1220,980
8786,1154,944
8787,1070,914
8788,974,893
8789,872,872
8790,776,853
8791,709,842
8792,681,835
8793,700,840
8794,748,848
8795,809,863
8796,867,884
8797,913,906
8798,944,927
8799,962,952
8800,968,970
8801,965,985
8802,961,993
8803,957,1000
8804,955,1005
8805,956,1006
8806,956,1007
8807,955,1010
8808,958,1012
8809,959,1012
8810,960,1014
8811,959,1013
8812,960,1017
8813,960,1017
8814,961,1020
8815,964,1023
8816,968,1026
8817,970,1027
8818,974,1029
8819,974,1029
8820,980,1031
8821,981,1031
8822,982,1032
8823,981,1032
8824,981,1034
8825,983,1035
8826,983,1039
8827,985,1042
8828,990,1045
8829,992,1049
8830,996,1051
8831,996,1052
8832,998,1055
8833,998,1057
8834,999,1054
8835,1003,1057
8836,1002,1058
8837,1003,1061
8838,1005,1063
8839,1008,1068
8840,1009,1070
8841,1010,1076
8842,1014,1078
8843,1020,1078
8844,1023,1082
8845,1026,1084
8846,1028,1088
8847,1030,1089
8848,1032,1093
8849,1033,1096
8850,1037,1098
8851,1039,1103
8852,1049,1107
8853,1052,1111
8854,1059,1116
8855,1064,1119
8856,1068,1120
8857,1070,1122
8858,1072,1122
8859,1070,1126
8860,1071,1125
8861,1073,1127
8862,1073,1129
8863,1077,1132
8864,1079,1135
8865,1082,1136
8866,1082,1138
8867,1085,1134
8868,1086,1136
8869,1085,1134
8870,1081,1133
8871,1077,1129
8872,1077,1125
8873,1074,1122
8874,1072,1121
8875,1071,1119
8876,1070,1116
8877,1070,1113
8878,1067,1108
8879,1065,1101
8880,1058,1094
8881,1052,1089
8882,1046,1081
8883,1041,1072
8884,1034,1066
8885,1027,1057
8886,1021,1055
8887,1015,1050
8888,1010,1048
8889,1005,1041
8890,1001,1040
8891,995,1032
8892,994,1028
8893,987,1022
8894,982,1016
8895,978,1014
8896,972,1009
8897,973,1008
8898,969,1006
8899,966,1005
8900,969,1003
8901,968,1005
8902,972,1005
8903,972,1002
8904,971,1003
8905,972,1002
8906,972,1000
8907,970,1000
8908,970,997
8909,969,1000
8910,966,1000
8911,966,1002
8912,970,1005
8913,971,1006
8914,973,1008
8915,971,1006
8916,974,1008
8917,972,1008
8918,970,1004
8919,969,1006
8920,970,1004
8921,967,1006
8922,966,1005
8923,966,1009
8924,967,1009
8925,970,1011
8926,971,1014
8927,970,1013
8928,968,1011
8929,968,1009
8930,967,1009
8931,967,1004
8932,966,1006
8933,965,1006
8934,965,1006
8935,964,1009
8936,965,1011
8937,965,1009
8938,965,1008
8939,967,1008
8940,966,1006
8941,964,1004
8942,965,1003
8943,963,1001
8944,960,1000
8945,960,997
8946,959,997
