'sample #','MLII','V1'
0,984,1039
1,984,1039
2,984,1039
3,984,1039
4,984,1039
5,984,1039
6,984,1039
7,984,1039
8,987,1039
9,987,1040
10,986,1039
11,985,1036
12,982,1036
13,982,1036
14,985,1037
15,986,1037
16,988,1039
17,988,1040
18,989,1042
19,991,1041
20,990,1041
21,989,1037
22,987,1036
23,985,1037
24,985,1037
25,979,1035
26,979,1036
27,979,1039
28,982,1039
29,981,1041
30,985,1041
31,983,1041
32,982,1040
33,981,1038
34,979,1037
35,978,1037
36,976,1036
37,975,1036
38,972,1035
39,974,1037
40,976,1037
41,977,1041
42,975,1042
43,975,1040
44,975,1040
45,972,1038
46,973,1036
47,972,1036
48,971,1036
49,972,1037
50,969,1037
51,971,1036
52,971,1038
53,970,1040
54,969,1043
55,971,1040
56,970,1041
57,969,1038
58,969,1036
59,967,1036
60,968,1035
61,967,1035
62,969,1037
63,969,1039
64,970,1039
65,971,1043
66,971,1041
67,971,1040
68,970,1037
69,966,1039
70,969,1040
71,968,1038
72,965,1037
73,967,1037
74,965,1038
75,965,1039
76,967,1041
77,966,1041
78,968,1041
79,970,1041
80,967,1039
81,969,1039
82,968,1036
83,967,1035
84,966,1034
85,965,1033
86,965,1035
87,964,1037
88,966,1041
89,966,1039
90,966,1040
91,969,1041
92,968,1041
93,968,1038
94,967,1037
95,964,1038
96,964,1036
97,963,1039
98,965,1038
99,965,1040
100,966,1041
101,968,1042
102,967,1041
103,968,1044
104,971,1045
105,967,1046
106,967,1045
107,969,1045
108,969,1049
109,970,1052
110,972,1055
111,972,1056
112,978,1056
113,982,1058
114,983,1055
115,984,1052
116,986,1051
117,988,1048
118,987,1045
119,992,1043
120,995,1041
121,997,1039
122,1003,1040
123,1005,1042
124,1004,1040
125,1004,1040
126,1002,1039
127,999,1040
128,999,1036
129,996,1034
130,993,1033
131,990,1033
132,988,1034
133,984,1034
134,983,1035
135,981,1036
136,977,1036
137,974,1037
138,973,1038
139,969,1036
140,966,1035
141,967,1034
142,964,1033
143,963,1030
144,962,1030
145,961,1031
146,961,1030
147,960,1034
148,962,1035
149,964,1037
150,964,1037
151,964,1036
152,965,1036
153,965,1033
154,965,1033
155,964,1032
156,962,1034
157,960,1031
158,961,1034
159,962,1037
160,963,1036
161,967,1037
162,966,1041
163,967,1039
164,966,1043
165,964,1046
166,961,1052
167,956,1059
168,949,1063
169,938,1064
170,924,1063
171,914,1059
172,915,1052
173,928,1042
174,967,1030
175,1023,1020
176,1097,1013
177,1176,1007
178,1248,1003
179,1303,999
180,1328,1001
181,1310,1003
182,1252,1003
183,1159,1010
184,1059,1022
185,985,1046
186,940,1077
187,924,1111
188,927,1142
189,930,1168
190,928,1185
191,911,1196
192,891,1203
193,868,1210
194,841,1216
195,822,1224
196,812,1225
197,806,1222
198,809,1210
199,817,1198
200,825,1183
201,842,1163
202,858,1144
203,874,1126
204,890,1105
205,909,1086
206,923,1073
207,936,1063
208,948,1059
209,954,1054
210,959,1052
211,959,1050
212,962,1049
213,960,1045
214,964,1045
215,963,1042
216,965,1038
217,963,1038
218,964,1037
219,966,1036
220,970,1038
221,974,1038
222,976,1036
223,975,1037
224,974,1037
225,975,1034
226,974,1032
227,975,1031
228,973,1032
229,973,1029
230,973,1033
231,979,1033
232,978,1034
233,980,1037
234,983,1034
235,982,1034
236,982,1034
237,982,1031
238,983,1030
239,981,1028
240,981,1031
241,982,1027
242,983,1029
243,984,1032
244,986,1030
245,988,1031
246,989,1034
247,990,1031
248,989,1031
249,990,1029
250,989,1030
251,989,1028
252,993,1026
253,992,1026
254,993,1024
255,995,1025
256,998,1026
257,1001,1028
258,1003,1028
259,1005,1027
260,1008,1026
261,1007,1022
262,1009,1021
263,1009,1022
264,1008,1019
265,1010,1019
266,1012,1019
267,1015,1021
268,1014,1022
269,1022,1022
270,1022,1024
271,1025,1022
272,1026,1022
273,1026,1020
274,1027,1018
275,1030,1014
276,1032,1013
277,1032,1012
278,1036,1013
279,1039,1015
280,1043,1014
281,1046,1014
282,1049,1014
283,1054,1010
284,1055,1012
285,1060,1009
286,1058,1010
287,1061,1006
288,1062,1007
289,1066,1004
290,1066,1005
291,1068,1006
292,1071,1007
293,1074,1007
294,1078,1006
295,1080,1008
296,1081,1008
297,1080,1006
298,1083,1005
299,1080,1001
300,1083,1001
301,1082,1002
302,1084,1005
303,1085,1007
304,1088,1011
305,1089,1011
306,1089,1011
307,1089,1012
308,1087,1009
309,1088,1010
310,1085,1008
311,1082,1010
312,1080,1010
313,1075,1013
314,1072,1017
315,1071,1021
316,1066,1023
317,1062,1026
318,1061,1028
319,1057,1028
320,1050,1031
321,1047,1033
322,1043,1035
323,1038,1033
324,1033,1033
325,1028,1037
326,1025,1039
327,1020,1043
328,1019,1042
329,1018,1045
330,1016,1048
331,1013,1047
332,1011,1049
333,1009,1047
334,1005,1048
335,999,1047
336,998,1048
337,995,1047
338,996,1050
339,994,1052
340,994,1053
341,995,1053
342,996,1054
343,995,1053
344,994,1055
345,992,1054
346,991,1051
347,988,1051
348,988,1052
349,988,1051
350,989,1052
351,991,1052
352,990,1055
353,990,1055
354,995,1055
355,993,1055
356,993,1055
357,993,1052
358,988,1053
359,991,1050
360,987,1051
361,986,1051
362,989,1054
363,989,1053
364,992,1051
365,992,1054
366,992,1055
367,992,1055
368,992,1054
369,990,1052
370,989,1051
371,987,1047
372,986,1045
373,986,1046
374,986,1049
375,989,1052
376,987,1051
377,990,1051
378,992,1053
379,992,1051
380,989,1054
381,989,1050
382,988,1052
383,985,1050
384,984,1047
385,982,1049
386,980,1047
387,981,1049
388,982,1051
389,982,1051
390,982,1049
391,981,1050
392,981,1053
393,982,1050
394,980,1047
395,979,1046
396,979,1045
397,978,1046
398,979,1047
399,978,1048
400,977,1048
401,980,1051
402,983,1052
403,980,1051
404,980,1049
405,981,1048
406,980,1047
407,978,1042
408,976,1043
409,975,1044
410,977,1045
411,979,1046
412,978,1048
413,980,1046
414,982,1048
415,982,1047
416,979,1048
417,977,1046
418,978,1045
419,979,1042
420,975,1042
421,974,1043
422,977,1045
423,978,1045
424,978,1048
425,979,1046
426,979,1047
427,980,1047
428,980,1047
429,980,1048
430,976,1046
431,978,1044
432,976,1043
433,976,1043
434,976,1043
435,977,1047
436,978,1047
437,981,1047
438,982,1045
439,983,1047
440,982,1047
441,982,1046
442,981,1045
443,981,1045
444,978,1042
445,978,1046
446,977,1044
447,978,1049
448,980,1049
449,980,1055
450,982,1057
451,983,1056
452,982,1059
453,984,1058
454,984,1058
455,986,1059
456,986,1059
457,986,1059
458,988,1061
459,988,1061
460,991,1060
461,994,1059
462,997,1058
463,996,1058
464,1003,1054
465,1004,1051
466,1008,1051
467,1010,1049
468,1015,1044
469,1014,1046
470,1015,1043
471,1013,1043
472,1010,1045
473,1010,1045
474,1007,1047
475,1005,1043
476,1005,1044
477,1003,1045
478,1004,1044
479,1004,1045
480,996,1046
481,994,1043
482,990,1041
483,986,1042
484,986,1043
485,981,1044
486,981,1043
487,980,1042
488,976,1043
489,976,1042
490,975,1040
491,973,1038
492,972,1039
493,970,1039
494,972,1043
495,971,1041
496,970,1042
497,969,1048
498,969,1047
499,970,1045
500,970,1043
501,968,1043
502,969,1040
503,968,1039
504,969,1040
505,970,1043
506,972,1043
507,973,1046
508,973,1046
509,975,1048
510,974,1049
511,975,1049
512,974,1052
513,973,1053
514,970,1058
515,963,1065
516,957,1068
517,947,1071
518,932,1067
519,924,1065
520,925,1053
521,948,1039
522,995,1027
523,1067,1016
524,1150,1009
525,1234,1003
526,1303,1004
527,1341,1009
528,1332,1012
529,1267,1014
530,1161,1021
531,1052,1037
532,965,1062
533,920,1095
534,906,1131
535,911,1162
536,918,1187
537,918,1200
538,907,1208
539,891,1213
540,865,1216
541,839,1222
542,819,1224
543,811,1222
544,812,1218
545,821,1209
546,838,1196
547,855,1179
548,872,1159
549,891,1136
550,906,1109
551,924,1087
552,937,1072
553,947,1059
554,955,1052
555,962,1051
556,967,1050
557,971,1049
558,976,1048
559,978,1047
560,977,1044
561,979,1041
562,981,1039
563,980,1036
564,979,1033
565,979,1034
566,982,1032
567,981,1036
568,986,1034
569,987,1034
570,989,1036
571,990,1035
572,989,1035
573,989,1033
574,990,1030
575,987,1028
576,987,1029
577,985,1030
578,986,1029
579,986,1031
580,990,1030
581,991,1032
582,994,1032
583,992,1031
584,994,1032
585,996,1029
586,992,1029
587,992,1026
588,993,1024
589,994,1021
590,992,1024
591,994,1023
592,999,1025
593,1000,1028
594,1003,1029
595,1007,1029
596,1007,1025
597,1010,1024
598,1008,1022
599,1007,1022
600,1007,1020
601,1003,1022
602,1007,1023
603,1008,1020
604,1012,1023
605,1015,1021
606,1018,1024
607,1021,1024
608,1020,1022
609,1022,1023
610,1019,1020
611,1020,1015
612,1019,1013
613,1023,1015
614,1024,1013
615,1028,1016
616,1030,1015
617,1033,1016
618,1035,1019
619,1038,1018
620,1042,1016
621,1043,1013
622,1043,1009
623,1046,1006
624,1048,1010
625,1050,1006
626,1051,1008
627,1054,1009
628,1056,1008
629,1059,1006
630,1065,1006
631,1068,1006
632,1070,1004
633,1072,1000
634,1072,1000
635,1072,1000
636,1073,1000
637,1073,998
638,1073,1001
639,1078,1000
640,1084,1002
641,1084,1000
642,1085,1001
643,1087,1000
644,1086,1000
645,1088,997
646,1088,996
647,1090,996
648,1090,994
649,1091,995
650,1092,998
651,1091,1000
652,1093,1001
653,1095,1002
654,1095,1003
655,1093,1005
656,1093,1005
657,1092,1004
658,1087,1006
659,1084,1002
660,1077,1003
661,1073,1005
662,1071,1008
663,1067,1012
664,1063,1016
665,1064,1017
666,1062,1020
667,1058,1022
668,1055,1023
669,1048,1025
670,1044,1025
671,1037,1026
672,1032,1026
673,1026,1028
674,1022,1032
675,1021,1035
676,1020,1036
677,1017,1038
678,1018,1042
679,1016,1042
680,1008,1040
681,1008,1042
682,1002,1041
683,998,1040
684,995,1041
685,991,1044
686,993,1044
687,993,1048
688,995,1053
689,991,1048
690,992,1050
691,992,1049
692,993,1050
693,993,1048
694,989,1047
695,989,1048
696,989,1046
697,988,1046
698,989,1048
699,988,1052
700,987,1051
701,988,1054
702,992,1053
703,992,1052
704,992,1051
705,991,1049
706,992,1048
707,986,1047
708,987,1049
709,987,1046
710,989,1048
711,991,1049
712,992,1051
713,994,1051
714,995,1052
715,992,1050
716,992,1050
717,992,1050
718,991,1046
719,988,1044
720,990,1043
721,989,1047
722,986,1043
723,987,1046
724,985,1046
725,985,1046
726,987,1047
727,987,1047
728,991,1044
729,992,1045
730,994,1043
731,991,1044
732,988,1043
733,983,1041
734,982,1041
735,984,1043
736,984,1045
737,986,1047
738,991,1048
739,990,1048
740,990,1048
741,988,1047
742,983,1042
743,980,1042
744,979,1041
745,976,1042
746,982,1040
747,983,1044
748,985,1044
749,984,1045
750,985,1046
751,983,1047
752,982,1045
753,979,1041
754,979,1041
755,980,1038
756,978,1040
757,980,1040
758,983,1041
759,984,1041
760,986,1041
761,983,1044
762,981,1044
763,982,1043
764,981,1044
765,978,1043
766,979,1043
767,979,1041
768,980,1039
769,981,1041
770,981,1043
771,979,1044
772,980,1044
773,982,1047
774,981,1050
775,981,1051
776,982,1055
777,982,1053
778,981,1056
779,981,1054
780,982,1054
781,985,1052
782,986,1053
783,993,1053
784,998,1052
785,999,1053
786,1003,1053
787,1003,1053
788,1000,1052
789,1003,1049
790,1001,1048
791,1007,1046
792,1013,1043
793,1017,1043
794,1018,1043
795,1017,1044
796,1019,1044
797,1016,1043
798,1014,1041
799,1013,1042
800,1009,1040
801,1006,1039
802,1004,1041
803,997,1039
804,998,1038
805,991,1038
806,989,1038
807,986,1039
808,982,1037
809,977,1038
810,977,1039
811,973,1040
812,975,1040
813,975,1035
814,973,1034
815,973,1035
816,970,1033
817,969,1036
818,970,1035
819,970,1036
820,974,1037
821,973,1038
822,975,1041
823,976,1038
824,976,1040
825,974,1038
826,974,1038
827,975,1036
828,975,1037
829,972,1038
830,973,1038
831,972,1041
832,972,1042
833,972,1045
834,975,1049
835,976,1054
836,975,1060
837,968,1063
838,954,1063
839,937,1059
840,930,1049
841,937,1038
842,967,1026
843,1030,1012
844,1111,1007
845,1198,1009
846,1278,1021
847,1327,1028
848,1328,1035
849,1265,1034
850,1157,1037
851,1039,1045
852,948,1063
853,899,1092
854,885,1122
855,888,1153
856,901,1176
857,902,1192
858,897,1206
859,881,1213
860,860,1219
861,844,1222
862,832,1224
863,829,1223
864,830,1215
865,835,1203
866,844,1193
867,859,1181
868,875,1164
869,892,1146
870,913,1123
871,928,1099
872,944,1078
873,956,1062
874,963,1051
875,969,1047
876,971,1044
877,970,1043
878,976,1044
879,979,1042
880,981,1042
881,984,1039
882,986,1040
883,988,1038
884,987,1035
885,991,1034
886,989,1033
887,988,1033
888,987,1031
889,988,1029
890,988,1031
891,990,1031
892,991,1031
893,992,1031
894,995,1032
895,997,1034
896,996,1033
897,996,1028
898,996,1027
899,997,1026
900,995,1026
901,994,1024
902,996,1023
903,998,1025
904,1001,1028
905,1002,1026
906,1004,1030
907,1005,1028
908,1005,1027
909,1004,1025
910,1003,1023
911,1004,1023
912,1004,1020
913,1003,1020
914,1005,1022
915,1007,1022
916,1006,1025
917,1008,1026
918,1008,1025
919,1013,1023
920,1014,1024
921,1016,1022
922,1017,1022
923,1015,1021
924,1014,1018
925,1014,1017
926,1014,1017
927,1020,1016
928,1021,1020
929,1023,1021
930,1024,1021
931,1027,1020
932,1024,1019
933,1025,1015
934,1026,1015
935,1031,1013
936,1031,1012
937,1029,1012
938,1031,1011
939,1032,1010
940,1037,1014
941,1036,1012
942,1039,1012
943,1041,1010
944,1041,1007
945,1044,1004
946,1045,1003
947,1045,1002
948,1045,999
949,1049,1000
950,1047,1001
951,1048,999
952,1054,1003
953,1056,1002
954,1059,1002
955,1060,1000
956,1064,1002
957,1064,1000
958,1063,998
959,1064,995
960,1064,995
961,1065,993
962,1066,994
963,1070,993
964,1072,996
965,1075,995
966,1076,995
967,1077,999
968,1079,997
969,1080,997
970,1081,996
971,1083,995
972,1083,994
973,1082,995
974,1081,998
975,1081,999
976,1080,1002
977,1080,1004
978,1080,1008
979,1079,1008
980,1075,1012
981,1073,1012
982,1069,1015
983,1063,1013
984,1059,1015
985,1055,1018
986,1053,1020
987,1048,1024
988,1046,1027
989,1042,1027
990,1040,1032
991,1035,1035
992,1028,1038
993,1030,1038
994,1025,1037
995,1021,1038
996,1016,1039
997,1013,1038
998,1009,1039
999,1004,1043
1000,1001,1046
1001,1003,1045
1002,1001,1046
1003,1000,1048
1004,997,1047
1005,996,1045
1006,995,1044
1007,994,1043
1008,993,1042
1009,994,1044
1010,993,1044
1011,994,1045
1012,995,1047
1013,996,1045
1014,999,1047
1015,997,1048
1016,996,1046
1017,998,1046
1018,996,1044
1019,996,1042
1020,995,1043
1021,995,1043
1022,995,1044
1023,998,1044
1024,999,1043
1025,1002,1043
1026,1002,1041
1027,1002,1042
1028,1002,1043
1029,1001,1044
1030,999,1040
1031,999,1038
1032,998,1039
1033,996,1038
1034,998,1039
1035,999,1041
1036,999,1039
1037,1001,1043
1038,1003,1039
1039,1003,1039
1040,1001,1038
1041,999,1039
1042,1000,1035
1043,994,1034
1044,994,1034
1045,991,1037
1046,992,1036
1047,995,1037
1048,996,1039
1049,996,1039
1050,997,1038
1051,996,1039
1052,993,1039
1053,991,1036
1054,990,1036
1055,986,1034
1056,986,1033
1057,985,1036
1058,986,1038
1059,987,1037
1060,987,1039
1061,987,1040
1062,987,1039
1063,988,1041
1064,985,1038
1065,986,1036
1066,984,1034
1067,983,1034
1068,980,1037
1069,981,1035
1070,981,1039
1071,981,1039
1072,982,1040
1073,982,1038
1074,981,1038
1075,984,1037
1076,982,1038
1077,981,1035
1078,981,1035
1079,979,1036
1080,976,1035
1081,977,1037
1082,977,1036
1083,976,1037
1084,978,1037
1085,980,1039
1086,981,1037
1087,978,1035
1088,982,1037
1089,982,1036
1090,980,1037
1091,976,1037
1092,978,1040
1093,979,1040
1094,980,1044
1095,982,1049
1096,983,1051
1097,988,1055
1098,990,1058
1099,990,1057
1100,988,1053
1101,988,1055
1102,991,1050
1103,992,1049
1104,994,1044
1105,996,1043
1106,999,1043
1107,1004,1042
1108,1009,1042
1109,1014,1041
1110,1019,1041
1111,1018,1040
1112,1020,1040
1113,1014,1038
1114,1011,1034
1115,1007,1031
1116,1006,1030
1117,1001,1034
1118,998,1037
1119,995,1039
1120,995,1038
1121,993,1037
1122,991,1034
1123,986,1034
1124,984,1031
1125,980,1029
1126,975,1028
1127,972,1028
1128,973,1026
1129,972,1030
1130,973,1030
1131,973,1029
1132,974,1030
1133,974,1032
1134,975,1032
1135,973,1033
1136,973,1032
1137,972,1032
1138,971,1030
1139,969,1028
1140,969,1031
1141,970,1031
1142,969,1032
1143,970,1037
1144,971,1034
1145,973,1039
1146,974,1035
1147,971,1036
1148,972,1034
1149,970,1036
1150,970,1037
1151,967,1039
1152,965,1047
1153,962,1053
1154,958,1063
1155,951,1068
1156,939,1069
1157,925,1065
1158,920,1056
1159,926,1045
1160,959,1033
1161,1012,1020
1162,1081,1008
1163,1160,1002
1164,1239,999
1165,1303,998
1166,1331,1003
1167,1314,1004
1168,1251,1006
1169,1154,1014
1170,1050,1029
1171,976,1057
1172,935,1094
1173,919,1127
1174,919,1157
1175,918,1182
1176,909,1197
1177,893,1207
1178,867,1215
1179,846,1220
1180,825,1226
1181,815,1222
1182,814,1215
1183,816,1202
1184,827,1185
1185,842,1166
1186,859,1144
1187,877,1122
1188,897,1100
1189,914,1081
1190,930,1068
1191,942,1058
1192,953,1054
1193,959,1052
1194,963,1047
1195,964,1047
1196,966,1046
1197,968,1041
1198,967,1039
1199,967,1035
1200,970,1035
1201,970,1032
1202,972,1035
1203,972,1034
1204,974,1035
1205,978,1035
1206,978,1032
1207,980,1033
1208,981,1031
1209,980,1029
1210,980,1030
1211,980,1030
1212,977,1027
1213,977,1028
1214,977,1031
1215,980,1031
1216,984,1034
1217,985,1033
1218,986,1031
1219,987,1031
1220,987,1030
1221,988,1029
1222,988,1028
1223,984,1027
1224,986,1025
1225,986,1026
1226,986,1027
1227,991,1028
1228,993,1029
1229,994,1030
1230,997,1028
1231,995,1028
1232,996,1026
1233,996,1025
1234,998,1023
1235,999,1023
1236,999,1022
1237,1001,1022
1238,1003,1024
1239,1003,1024
1240,1005,1024
1241,1010,1025
1242,1010,1023
1243,1012,1024
1244,1013,1022
1245,1015,1021
1246,1015,1020
1247,1016,1016
1248,1016,1016
1249,1018,1017
1250,1021,1016
1251,1023,1018
1252,1026,1019
1253,1027,1019
1254,1031,1017
1255,1031,1016
1256,1033,1017
1257,1037,1012
1258,1035,1010
1259,1038,1012
1260,1039,1008
1261,1043,1010
1262,1047,1008
1263,1049,1010
1264,1054,1007
1265,1056,1010
1266,1060,1008
1267,1062,1008
1268,1063,1006
1269,1067,1004
1270,1064,1002
1271,1067,1000
1272,1069,1001
1273,1072,999
1274,1073,1001
1275,1076,1001
1276,1076,1003
1277,1081,1002
1278,1082,1002
1279,1084,999
1280,1086,999
1281,1087,998
1282,1087,999
1283,1086,998
1284,1089,998
1285,1087,997
1286,1086,1001
1287,1090,1000
1288,1091,1001
1289,1094,1004
1290,1095,1004
1291,1095,1006
1292,1094,1006
1293,1092,1005
1294,1090,1006
1295,1086,1005
1296,1083,1008
1297,1080,1009
1298,1079,1012
1299,1075,1013
1300,1073,1019
1301,1073,1022
1302,1070,1022
1303,1066,1023
1304,1061,1023
1305,1056,1024
1306,1050,1026
1307,1046,1027
1308,1041,1029
1309,1036,1029
1310,1033,1032
1311,1032,1036
1312,1029,1040
1313,1026,1040
1314,1025,1043
1315,1021,1042
1316,1018,1043
1317,1015,1044
1318,1010,1043
1319,1006,1040
1320,1003,1044
1321,1001,1043
1322,998,1043
1323,998,1048
1324,996,1048
1325,994,1049
1326,994,1049
1327,996,1049
1328,997,1048
1329,995,1047
1330,993,1049
1331,993,1046
1332,990,1047
1333,987,1048
1334,989,1048
1335,988,1049
1336,987,1049
1337,992,1053
1338,994,1053
1339,992,1052
1340,993,1053
1341,994,1051
1342,991,1050
1343,991,1047
1344,991,1049
1345,989,1050
1346,989,1052
1347,991,1054
1348,990,1053
1349,991,1054
1350,993,1053
1351,996,1052
1352,996,1053
1353,996,1051
1354,993,1051
1355,996,1049
1356,994,1050
1357,992,1049
1358,991,1052
1359,994,1052
1360,994,1054
1361,996,1052
1362,996,1052
1363,995,1053
1364,992,1051
1365,991,1051
1366,991,1048
1367,992,1049
1368,990,1047
1369,992,1049
1370,990,1050
1371,991,1050
1372,989,1051
1373,992,1052
1374,992,1051
1375,989,1052
1376,991,1051
1377,991,1051
1378,990,1047
1379,987,1046
1380,985,1044
1381,984,1044
1382,985,1049
1383,985,1050
1384,985,1050
1385,987,1051
1386,987,1049
1387,988,1052
1388,988,1050
1389,987,1048
1390,985,1045
1391,983,1046
1392,983,1044
1393,981,1045
1394,981,1045
1395,981,1048
1396,980,1049
1397,984,1052
1398,985,1049
1399,985,1047
1400,985,1049
1401,985,1048
1402,983,1047
1403,982,1047
1404,980,1047
1405,980,1046
1406,979,1048
1407,979,1048
1408,978,1048
1409,981,1050
1410,982,1051
1411,983,1049
1412,981,1050
1413,982,1047
1414,981,1046
1415,979,1047
1416,977,1046
1417,978,1046
1418,978,1045
1419,980,1045
1420,980,1048
1421,982,1049
1422,984,1046
1423,983,1051
1424,986,1048
1425,980,1046
1426,982,1046
1427,981,1045
1428,981,1048
1429,980,1049
1430,980,1052
1431,981,1053
1432,984,1058
1433,986,1060
1434,988,1063
1435,989,1063
1436,989,1065
1437,990,1065
1438,992,1066
1439,992,1065
1440,992,1064
1441,993,1062
1442,994,1062
1443,996,1064
1444,999,1060
1445,1001,1060
1446,1005,1059
1447,1009,1058
1448,1013,1053
1449,1015,1051
1450,1018,1047
1451,1018,1049
1452,1017,1047
1453,1014,1047
1454,1014,1049
1455,1012,1046
1456,1011,1045
1457,1012,1047
1458,1010,1045
1459,1007,1048
1460,1007,1049
1461,1003,1048
1462,1000,1047
1463,994,1044
1464,989,1042
1465,988,1043
1466,982,1042
1467,979,1044
1468,978,1045
1469,975,1045
1470,979,1045
1471,978,1044
1472,978,1043
1473,977,1045
1474,976,1042
1475,975,1040
1476,974,1042
1477,974,1041
1478,974,1044
1479,975,1046
1480,973,1046
1481,976,1047
1482,977,1048
1483,977,1047
1484,978,1045
1485,975,1045
1486,974,1044
1487,975,1042
1488,973,1043
1489,973,1042
1490,972,1045
1491,975,1045
1492,976,1048
1493,977,1051
1494,977,1052
1495,977,1053
1496,977,1057
1497,974,1063
1498,968,1070
1499,959,1072
1500,949,1074
1501,938,1073
1502,925,1071
1503,919,1066
1504,926,1057
1505,952,1050
1506,997,1036
1507,1056,1026
1508,1127,1019
1509,1202,1012
1510,1268,1012
1511,1317,1009
1512,1333,1011
1513,1310,1010
1514,1242,1014
1515,1148,1023
1516,1056,1036
1517,985,1061
1518,948,1093
1519,934,1126
1520,935,1156
1521,939,1179
1522,936,1195
1523,920,1205
1524,898,1213
1525,871,1220
1526,847,1226
1527,825,1231
1528,817,1234
1529,813,1231
1530,817,1222
1531,823,1211
1532,836,1192
1533,850,1178
1534,866,1157
1535,884,1135
1536,900,1115
1537,917,1097
1538,933,1083
1539,945,1072
1540,956,1064
1541,963,1061
1542,970,1060
1543,970,1057
1544,973,1057
1545,974,1054
1546,976,1051
1547,975,1048
1548,975,1046
1549,974,1046
1550,976,1046
1551,977,1047
1552,979,1046
1553,981,1048
1554,983,1047
1555,983,1044
1556,987,1044
1557,983,1043
1558,983,1041
1559,983,1038
1560,981,1035
1561,980,1039
1562,982,1039
1563,986,1041
1564,990,1041
1565,993,1043
1566,997,1041
1567,994,1042
1568,995,1039
1569,996,1037
1570,997,1037
1571,995,1035
1572,995,1036
1573,995,1036
1574,997,1035
1575,995,1036
1576,997,1036
1577,999,1038
1578,1000,1036
1579,1000,1034
1580,1001,1034
1581,1003,1033
1582,1004,1031
1583,1004,1029
1584,1006,1030
1585,1009,1032
1586,1010,1031
1587,1009,1032
1588,1011,1033
1589,1015,1034
1590,1016,1032
1591,1016,1031
1592,1017,1030
1593,1017,1029
1594,1018,1027
1595,1019,1026
1596,1021,1026
1597,1023,1027
1598,1025,1025
1599,1025,1025
1600,1030,1025
1601,1036,1026
1602,1038,1025
1603,1039,1025
1604,1043,1024
1605,1043,1021
1606,1044,1017
1607,1048,1016
1608,1046,1013
1609,1049,1013
1610,1052,1012
1611,1057,1016
1612,1059,1013
1613,1063,1011
1614,1066,1011
1615,1068,1011
1616,1070,1009
1617,1066,1009
1618,1069,1007
1619,1074,1004
1620,1076,1004
1621,1076,1004
1622,1079,1006
1623,1081,1005
1624,1084,1004
1625,1086,1006
1626,1088,1006
1627,1089,1007
1628,1090,1006
1629,1093,1003
1630,1095,1001
1631,1097,1000
1632,1097,1002
1633,1098,1002
1634,1102,1002
1635,1106,1003
1636,1105,1005
1637,1105,1006
1638,1109,1009
1639,1104,1010
1640,1103,1010
1641,1099,1009
1642,1095,1009
1643,1088,1012
1644,1081,1012
1645,1078,1015
1646,1075,1016
1647,1075,1022
1648,1072,1022
1649,1072,1026
1650,1070,1025
1651,1066,1028
1652,1058,1029
1653,1052,1031
1654,1046,1031
1655,1039,1032
1656,1033,1035
1657,1029,1037
1658,1025,1040
1659,1026,1043
1660,1023,1044
1661,1024,1048
1662,1025,1046
1663,1021,1048
1664,1016,1048
1665,1011,1047
1666,1008,1046
1667,1005,1046
1668,1005,1048
1669,1005,1048
1670,1005,1050
1671,1004,1052
1672,1004,1056
1673,1003,1056
1674,1002,1056
1675,998,1059
1676,994,1059
1677,992,1056
1678,993,1055
1679,991,1057
1680,988,1056
1681,990,1055
1682,990,1055
1683,994,1057
1684,993,1059
1685,999,1062
1686,1001,1062
1687,1000,1060
1688,1002,1059
1689,999,1058
1690,998,1055
1691,992,1055
1692,993,1055
1693,990,1058
1694,993,1057
1695,993,1058
1696,995,1058
1697,998,1061
1698,999,1061
1699,998,1061
1700,1000,1062
1701,995,1058
1702,992,1058
1703,993,1054
1704,992,1054
1705,992,1054
1706,992,1054
1707,994,1054
1708,995,1056
1709,994,1059
1710,994,1058
1711,994,1057
1712,994,1056
1713,993,1056
1714,991,1052
1715,990,1053
1716,989,1051
1717,988,1052
1718,987,1052
1719,985,1054
1720,987,1053
1721,988,1057
1722,988,1057
1723,988,1056
1724,989,1055
1725,989,1053
1726,988,1050
1727,987,1052
1728,985,1050
1729,987,1050
1730,987,1054
1731,985,1053
1732,989,1054
1733,988,1055
1734,990,1055
1735,986,1054
1736,986,1055
1737,988,1054
1738,985,1053
1739,980,1053
1740,980,1053
1741,978,1050
1742,977,1052
1743,979,1054
1744,980,1053
1745,981,1055
1746,981,1055
1747,982,1054
1748,984,1052
1749,983,1052
1750,985,1049
1751,985,1049
1752,987,1049
1753,987,1049
1754,984,1052
1755,985,1056
1756,983,1059
1757,984,1062
1758,986,1063
1759,985,1062
1760,984,1066
1761,985,1065
1762,987,1064
1763,988,1065
1764,992,1065
1765,997,1064
1766,997,1063
1767,1000,1060
1768,1001,1063
1769,1000,1063
1770,1001,1065
1771,1002,1062
1772,1002,1063
1773,1006,1060
1774,1009,1055
1775,1013,1053
1776,1013,1052
1777,1016,1055
1778,1016,1054
1779,1018,1054
1780,1020,1055
1781,1020,1055
1782,1017,1053
1783,1012,1051
1784,1009,1051
1785,1007,1053
1786,1003,1051
1787,1000,1051
1788,994,1049
1789,989,1051
1790,987,1050
1791,983,1050
1792,979,1050
1793,978,1052
1794,978,1052
1795,981,1051
1796,981,1051
1797,983,1048
1798,982,1048
1799,979,1046
1800,976,1047
1801,971,1048
1802,971,1047
1803,971,1049
1804,972,1052
1805,975,1052
1806,980,1052
1807,979,1054
1808,979,1054
1809,977,1051
1810,973,1050
1811,971,1049
1812,970,1050
1813,970,1049
1814,973,1051
1815,975,1053
1816,977,1053
1817,980,1055
1818,981,1058
1819,978,1061
1820,980,1066
1821,974,1072
1822,966,1073
1823,953,1072
1824,937,1071
1825,928,1065
1826,930,1055
1827,959,1040
1828,1008,1030
1829,1081,1023
1830,1164,1018
1831,1243,1023
1832,1307,1031
1833,1338,1037
1834,1320,1042
1835,1249,1043
1836,1136,1043
1837,1026,1057
1838,941,1078
1839,899,1104
1840,892,1137
1841,901,1166
1842,911,1188
1843,909,1204
1844,903,1215
1845,884,1222
1846,860,1227
1847,842,1230
1848,830,1231
1849,825,1229
1850,825,1222
1851,833,1210
1852,848,1200
1853,867,1187
1854,887,1167
1855,907,1143
1856,924,1122
1857,938,1099
1858,949,1078
1859,960,1063
1860,965,1056
1861,971,1054
1862,975,1057
1863,978,1058
1864,982,1059
1865,983,1056
1866,986,1054
1867,988,1055
1868,987,1052
1869,986,1045
1870,985,1042
1871,984,1042
1872,985,1042
1873,988,1044
1874,991,1045
1875,994,1046
1876,1000,1045
1877,999,1045
1878,1002,1046
1879,1000,1047
1880,997,1046
1881,995,1042
1882,993,1040
1883,990,1038
1884,991,1035
1885,995,1037
1886,1000,1037
1887,1005,1039
1888,1008,1041
1889,1009,1041
1890,1011,1045
1891,1008,1043
1892,1006,1042
1893,1002,1038
1894,1001,1038
1895,1000,1036
1896,1000,1035
1897,1004,1037
1898,1007,1039
1899,1009,1040
1900,1014,1039
1901,1019,1041
1902,1022,1041
1903,1022,1040
1904,1021,1038
1905,1019,1035
1906,1020,1034
1907,1018,1032
1908,1019,1031
1909,1022,1032
1910,1023,1031
1911,1023,1031
1912,1025,1031
1913,1028,1035
1914,1034,1033
1915,1037,1032
1916,1042,1029
1917,1043,1029
1918,1041,1025
1919,1039,1023
1920,1037,1023
1921,1038,1021
1922,1039,1023
1923,1040,1023
1924,1044,1023
1925,1046,1024
1926,1052,1023
1927,1054,1022
1928,1057,1019
1929,1059,1018
1930,1061,1015
1931,1062,1013
1932,1063,1012
1933,1064,1010
1934,1065,1009
1935,1067,1010
1936,1070,1012
1937,1073,1013
1938,1077,1015
1939,1080,1012
1940,1081,1013
1941,1081,1009
1942,1081,1007
1943,1083,1005
1944,1085,1002
1945,1085,1006
1946,1090,1006
1947,1091,1007
1948,1096,1007
1949,1095,1011
1950,1099,1012
1951,1100,1012
1952,1100,1011
1953,1098,1011
1954,1095,1012
1955,1092,1011
1956,1088,1013
1957,1088,1015
1958,1082,1016
1959,1084,1022
1960,1082,1023
1961,1079,1025
1962,1077,1029
1963,1074,1031
1964,1071,1030
1965,1064,1033
1966,1059,1033
1967,1057,1035
1968,1051,1037
1969,1047,1039
1970,1043,1043
1971,1037,1045
1972,1034,1046
1973,1030,1049
1974,1030,1051
1975,1026,1051
1976,1023,1052
1977,1023,1053
1978,1019,1053
1979,1014,1054
1980,1012,1051
1981,1011,1055
1982,1008,1054
1983,1007,1059
1984,1006,1061
1985,1006,1061
1986,1004,1060
1987,1005,1060
1988,1004,1062
1989,1003,1060
1990,1001,1059
1991,1001,1057
1992,999,1055
1993,999,1056
1994,1001,1057
1995,998,1060
1996,999,1062
1997,1002,1062
1998,1002,1060
1999,1003,1060
2000,1004,1061
2001,1003,1060
2002,1004,1058
2003,1004,1057
2004,1002,1056
2005,1003,1055
2006,1003,1056
2007,1005,1056
2008,1003,1058
2009,1004,1058
2010,1005,1057
2011,1006,1058
2012,1006,1056
2013,1009,1056
2014,1008,1053
2015,1008,1053
2016,1005,1051
2017,1004,1050
2018,1004,1050
2019,1003,1053
2020,1003,1053
2021,1005,1057
2022,1005,1058
2023,1005,1055
2024,1002,1052
2025,1002,1053
2026,998,1052
2027,996,1052
2028,994,1053
2029,994,1055
2030,996,1053
2031,995,1052
2032,997,1055
2033,996,1056
2034,997,1058
2035,997,1055
2036,994,1054
2037,993,1052
2038,991,1053
2039,993,1049
2040,990,1052
2041,990,1052
2042,988,1052
2043,989,1052
2044,985,1052
2045,989,1052
2046,992,1054
2047,993,1053
2048,994,1054
2049,993,1054
2050,992,1051
2051,990,1048
2052,988,1047
2053,989,1049
2054,988,1051
2055,988,1051
2056,988,1051
2057,989,1054
2058,990,1054
2059,990,1054
2060,990,1052
2061,990,1052
2062,989,1054
2063,988,1057
2064,989,1058
2065,987,1058
2066,989,1062
2067,992,1067
2068,993,1068
2069,997,1071
2070,999,1069
2071,1000,1068
2072,1001,1066
2073,1001,1063
2074,1001,1059
2075,1001,1055
2076,1005,1054
2077,1008,1052
2078,1012,1050
2079,1015,1052
2080,1020,1052
2081,1022,1052
2082,1024,1054
2083,1021,1051
2084,1020,1048
2085,1017,1044
2086,1013,1044
2087,1009,1041
2088,1006,1042
2089,1004,1043
2090,1003,1045
2091,1001,1047
2092,1000,1047
2093,997,1049
2094,995,1047
2095,990,1042
2096,987,1043
2097,982,1043
2098,979,1041
2099,977,1039
2100,976,1039
2101,975,1042
2102,976,1041
2103,977,1043
2104,976,1044
2105,976,1046
2106,977,1043
2107,976,1043
2108,974,1041
2109,972,1040
2110,972,1040
2111,971,1040
2112,970,1039
2113,971,1039
2114,970,1038
2115,972,1041
2116,971,1045
2117,974,1042
2118,976,1043
2119,974,1044
2120,974,1042
2121,974,1042
2122,972,1041
2123,971,1041
2124,970,1040
2125,970,1040
2126,969,1041
2127,971,1042
2128,973,1045
2129,974,1047
2130,974,1047
2131,971,1045
2132,975,1045
2133,975,1045
2134,974,1043
2135,969,1042
2136,971,1042
2137,969,1041
2138,970,1044
2139,972,1045
2140,973,1044
2141,974,1045
2142,972,1045
2143,974,1045
2144,974,1046
2145,973,1043
2146,972,1043
2147,971,1041
2148,971,1040
2149,969,1041
2150,969,1043
2151,969,1043
2152,970,1043
2153,972,1044
2154,973,1046
2155,974,1046
2156,974,1048
2157,971,1044
2158,972,1044
2159,969,1041
2160,970,1041
2161,972,1043
2162,970,1043
2163,973,1047
2164,972,1046
2165,973,1046
2166,976,1044
2167,975,1046
2168,976,1046
2169,975,1043
2170,974,1046
2171,973,1042
2172,973,1042
2173,974,1042
2174,972,1044
2175,972,1044
2176,972,1044
2177,973,1047
2178,975,1049
2179,974,1045
2180,975,1045
2181,975,1045
2182,975,1046
2183,974,1044
2184,973,1042
2185,973,1041
2186,972,1043
2187,971,1044
2188,972,1046
2189,974,1050
2190,978,1047
2191,978,1046
2192,979,1043
2193,975,1045
2194,976,1042
2195,975,1043
2196,976,1044
2197,975,1042
2198,976,1040
2199,976,1042
2200,978,1044
2201,979,1045
2202,979,1045
2203,980,1045
2204,981,1043
2205,980,1042
2206,982,1042
2207,980,1043
2208,979,1041
2209,979,1041
2210,982,1040
2211,982,1041
2212,981,1043
2213,984,1046
2214,985,1048
2215,986,1046
2216,986,1047
2217,986,1043
2218,985,1043
2219,981,1041
2220,983,1042
2221,983,1043
2222,983,1042
2223,985,1043
2224,984,1046
2225,987,1047
2226,986,1047
2227,985,1047
2228,988,1048
2229,988,1044
2230,989,1042
2231,988,1042
2232,984,1042
2233,986,1043
2234,985,1041
2235,986,1044
2236,989,1047
2237,991,1047
2238,991,1046
2239,991,1048
2240,990,1046
2241,990,1045
2242,989,1045
2243,988,1041
2244,988,1042
2245,988,1044
2246,986,1043
2247,990,1043
2248,987,1045
2249,988,1044
2250,988,1046
2251,987,1046
2252,988,1049
2253,991,1045
2254,988,1045
2255,988,1044
2256,989,1041
2257,988,1043
2258,987,1042
2259,987,1043
2260,990,1043
2261,991,1044
2262,992,1043
2263,991,1047
2264,994,1043
2265,990,1042
2266,987,1043
2267,987,1041
2268,988,1040
2269,989,1041
2270,989,1044
2271,991,1042
2272,991,1044
2273,993,1045
2274,996,1045
2275,993,1044
2276,993,1044
2277,994,1044
2278,993,1044
2279,993,1040
2280,992,1040
2281,990,1041
2282,990,1041
2283,991,1043
2284,992,1045
2285,992,1044
2286,995,1048
2287,995,1048
2288,995,1048
2289,993,1044
2290,993,1042
2291,993,1041
2292,990,1040
2293,992,1042
2294,990,1044
2295,990,1043
2296,994,1044
2297,992,1046
2298,993,1047
2299,994,1048
2300,996,1046
2301,995,1046
2302,996,1044
2303,996,1043
2304,993,1043
2305,992,1044
2306,993,1042
2307,993,1044
2308,994,1045
2309,996,1046
2310,997,1046
2311,1000,1047
2312,998,1046
2313,996,1042
2314,997,1041
2315,993,1041
2316,994,1041
2317,994,1043
2318,996,1041
2319,994,1041
2320,997,1044
2321,997,1043
2322,1001,1045
2323,1001,1046
2324,1000,1045
2325,1001,1045
2326,1001,1043
2327,998,1043
2328,999,1041
2329,999,1041
2330,999,1041
2331,999,1044
2332,998,1047
2333,999,1047
2334,1003,1049
2335,1003,1048
2336,1000,1049
2337,1002,1044
2338,1001,1044
2339,999,1042
2340,997,1042
2341,998,1043
2342,999,1042
2343,998,1043
2344,999,1044
2345,999,1046
2346,1004,1046
2347,1002,1046
2348,1002,1046
2349,1002,1046
2350,1002,1044
2351,1001,1043
2352,1000,1042
2353,999,1042
2354,996,1043
2355,1001,1044
2356,1001,1044
2357,1000,1047
2358,1002,1044
2359,1002,1047
2360,1004,1043
2361,1001,1045
2362,1000,1044
2363,999,1044
2364,1000,1043
2365,1000,1041
2366,1000,1041
2367,1002,1045
2368,1003,1045
2369,1003,1044
2370,1004,1046
2371,1005,1045
2372,1005,1044
2373,1006,1046
2374,1005,1043
2375,1005,1041
2376,1003,1039
2377,1002,1041
2378,1004,1040
2379,1002,1042
2380,1004,1043
2381,1004,1046
2382,1007,1049
2383,1007,1049
2384,1007,1050
2385,1009,1049
2386,1008,1052
2387,1008,1052
2388,1009,1056
2389,1011,1059
2390,1012,1063
2391,1016,1066
2392,1016,1064
2393,1017,1063
2394,1022,1064
2395,1023,1060
2396,1023,1058
2397,1025,1051
2398,1027,1050
2399,1031,1048
2400,1033,1046
2401,1034,1047
2402,1042,1047
2403,1044,1046
2404,1044,1046
2405,1045,1047
2406,1045,1048
2407,1044,1043
2408,1041,1046
2409,1037,1040
2410,1032,1042
2411,1030,1042
2412,1029,1040
2413,1023,1043
2414,1020,1042
2415,1019,1042
2416,1018,1042
2417,1013,1042
2418,1012,1041
2419,1007,1043
2420,1007,1041
2421,1006,1041
2422,1005,1041
2423,1001,1037
2424,1001,1039
2425,999,1036
2426,1000,1039
2427,1001,1041
2428,1002,1041
2429,1000,1043
2430,1002,1043
2431,999,1042
2432,999,1041
2433,1002,1040
2434,1002,1041
2435,999,1039
2436,999,1041
2437,1000,1039
2438,999,1040
2439,999,1041
2440,1001,1041
2441,1000,1044
2442,1004,1048
2443,1003,1048
2444,1002,1053
2445,1000,1056
2446,995,1060
2447,986,1064
2448,978,1065
2449,964,1063
2450,951,1061
2451,948,1058
2452,961,1054
2453,994,1045
2454,1048,1035
2455,1115,1028
2456,1189,1020
2457,1264,1011
2458,1328,1003
2459,1375,994
2460,1393,985
2461,1375,980
2462,1315,972
2463,1230,972
2464,1144,974
2465,1078,981
2466,1041,988
2467,1028,999
2468,1028,1009
2469,1039,1015
2470,1044,1021
2471,1046,1018
2472,1040,1021
2473,1030,1027
2474,1021,1035
2475,1010,1041
2476,1003,1049
2477,1001,1053
2478,1004,1054
2479,1002,1055
2480,1003,1053
2481,1002,1051
2482,1001,1049
2483,998,1048
2484,996,1049
2485,994,1048
2486,993,1055
2487,992,1054
2488,993,1056
2489,993,1058
2490,995,1059
2491,995,1056
2492,994,1057
2493,992,1055
2494,990,1055
2495,991,1055
2496,989,1054
2497,988,1055
2498,988,1053
2499,988,1057
2500,991,1058
2501,993,1058
2502,995,1061
2503,995,1059
2504,997,1058
2505,997,1059
2506,994,1059
2507,993,1056
2508,991,1055
2509,992,1054
2510,993,1056
2511,994,1057
2512,995,1059
2513,997,1061
2514,996,1062
2515,997,1061
2516,996,1059
2517,998,1061
2518,998,1057
2519,997,1056
2520,997,1055
2521,997,1055
2522,996,1059
2523,995,1060
2524,996,1061
2525,999,1063
2526,1001,1063
2527,1002,1063
2528,1000,1063
2529,999,1061
2530,999,1062
2531,998,1059
2532,998,1060
2533,1001,1060
2534,1003,1061
2535,1004,1062
2536,1004,1065
2537,1005,1065
2538,1008,1066
2539,1010,1063
2540,1009,1066
2541,1010,1065
2542,1008,1061
2543,1010,1061
2544,1007,1059
2545,1009,1062
2546,1009,1062
2547,1009,1064
2548,1013,1066
2549,1012,1066
2550,1015,1068
2551,1017,1068
2552,1018,1068
2553,1017,1067
2554,1015,1066
2555,1016,1064
2556,1016,1063
2557,1013,1063
2558,1013,1068
2559,1013,1067
2560,1014,1069
2561,1016,1071
2562,1018,1070
2563,1022,1069
2564,1022,1067
2565,1022,1065
2566,1021,1067
2567,1022,1065
2568,1020,1064
2569,1021,1065
2570,1022,1064
2571,1023,1066
2572,1027,1066
2573,1031,1067
2574,1033,1068
2575,1037,1065
2576,1038,1065
2577,1041,1064
2578,1042,1063
2579,1046,1059
2580,1047,1060
2581,1045,1058
2582,1048,1057
2583,1050,1058
2584,1052,1057
2585,1057,1059
2586,1061,1058
2587,1064,1057
2588,1066,1055
2589,1068,1054
2590,1070,1051
2591,1075,1049
2592,1075,1048
2593,1079,1048
2594,1081,1048
2595,1083,1049
2596,1084,1051
2597,1089,1049
2598,1090,1051
2599,1093,1048
2600,1092,1048
2601,1091,1045
2602,1090,1043
2603,1086,1042
2604,1083,1042
2605,1081,1043
2606,1080,1044
2607,1080,1044
2608,1081,1043
2609,1082,1047
2610,1082,1048
2611,1078,1047
2612,1075,1050
2613,1072,1047
2614,1068,1048
2615,1063,1044
2616,1060,1044
2617,1053,1046
2618,1053,1046
2619,1050,1046
2620,1052,1049
2621,1053,1050
2622,1049,1053
2623,1049,1052
2624,1047,1054
2625,1048,1052
2626,1046,1054
2627,1041,1049
2628,1040,1047
2629,1035,1052
2630,1033,1052
2631,1033,1053
2632,1032,1058
2633,1034,1059
2634,1035,1061
2635,1032,1059
2636,1031,1058
2637,1031,1057
2638,1028,1056
2639,1026,1054
2640,1023,1053
2641,1021,1054
2642,1022,1055
2643,1023,1057
2644,1025,1057
2645,1026,1057
2646,1031,1059
2647,1031,1057
2648,1027,1059
2649,1024,1056
2650,1026,1058
2651,1024,1054
2652,1021,1053
2653,1020,1052
2654,1019,1054
2655,1020,1055
2656,1023,1056
2657,1024,1057
2658,1023,1058
2659,1023,1058
2660,1022,1057
2661,1017,1055
2662,1020,1053
2663,1020,1052
2664,1019,1051
2665,1017,1053
2666,1017,1052
2667,1016,1053
2668,1018,1052
2669,1017,1058
2670,1021,1055
2671,1017,1056
2672,1016,1056
2673,1013,1054
2674,1007,1054
2675,1009,1052
2676,1011,1049
2677,1011,1049
2678,1013,1049
2679,1013,1051
2680,1011,1053
2681,1011,1054
2682,1011,1056
2683,1008,1054
2684,1004,1055
2685,1005,1051
2686,1004,1048
2687,1004,1047
2688,1006,1044
2689,1005,1045
2690,1007,1047
2691,1006,1050
2692,1004,1048
2693,1006,1049
2694,1005,1052
2695,1004,1055
2696,1007,1052
2697,1005,1050
2698,1006,1051
2699,1005,1052
2700,1005,1051
2701,1000,1050
2702,1004,1053
2703,1003,1049
2704,1003,1053
2705,1003,1051
2706,1002,1054
2707,1003,1051
2708,1000,1054
2709,1002,1053
2710,1002,1056
2711,1002,1055
2712,1003,1059
2713,1001,1061
2714,999,1063
2715,999,1063
2716,1004,1066
2717,1005,1068
2718,1010,1069
2719,1015,1068
2720,1018,1068
2721,1023,1063
2722,1021,1061
2723,1019,1060
2724,1018,1059
2725,1017,1056
2726,1020,1055
2727,1025,1056
2728,1029,1057
2729,1036,1057
2730,1039,1057
2731,1042,1055
2732,1041,1057
2733,1036,1053
2734,1031,1049
2735,1026,1046
2736,1022,1044
2737,1019,1045
2738,1016,1052
2739,1015,1053
2740,1017,1056
2741,1015,1055
2742,1014,1054
2743,1012,1052
2744,1007,1051
2745,1004,1047
2746,997,1046
2747,995,1047
2748,993,1047
2749,990,1046
2750,988,1046
2751,988,1050
2752,988,1049
2753,990,1049
2754,989,1049
2755,991,1051
2756,989,1053
2757,991,1051
2758,988,1050
2759,987,1048
2760,984,1046
2761,983,1046
2762,982,1048
2763,981,1050
2764,983,1052
2765,987,1051
2766,988,1053
2767,991,1055
2768,992,1052
2769,992,1050
2770,990,1048
2771,986,1049
2772,987,1049
2773,983,1051
2774,986,1053
2775,985,1061
2776,984,1070
2777,980,1075
2778,972,1076
2779,957,1075
2780,943,1071
2781,934,1064
2782,944,1050
2783,972,1038
2784,1020,1021
2785,1088,1014
2786,1167,1013
2787,1250,1016
2788,1315,1027
2789,1352,1037
2790,1344,1042
2791,1282,1044
2792,1179,1043
2793,1067,1051
2794,977,1069
2795,926,1099
2796,909,1129
2797,911,1158
2798,919,1178
2799,922,1197
2800,917,1213
2801,903,1223
2802,887,1230
2803,866,1235
2804,851,1240
2805,840,1239
2806,837,1235
2807,838,1226
2808,844,1213
2809,854,1200
2810,870,1185
2811,888,1168
2812,909,1148
2813,929,1127
2814,944,1107
2815,959,1088
2816,966,1077
2817,978,1068
2818,983,1062
2819,984,1060
2820,986,1059
2821,986,1057
2822,984,1057
2823,987,1055
2824,988,1054
2825,991,1052
2826,995,1054
2827,997,1052
2828,998,1053
2829,1000,1048
2830,998,1048
2831,998,1047
2832,999,1043
2833,998,1045
2834,999,1045
2835,1002,1046
2836,1005,1048
2837,1006,1048
2838,1006,1049
2839,1008,1045
2840,1007,1043
2841,1008,1041
2842,1008,1041
2843,1005,1040
2844,1007,1038
2845,1005,1040
2846,1007,1039
2847,1007,1040
2848,1009,1042
2849,1014,1044
2850,1016,1044
2851,1015,1044
2852,1018,1042
2853,1018,1040
2854,1017,1040
2855,1013,1038
2856,1008,1034
2857,1012,1036
2858,1015,1037
2859,1018,1037
2860,1020,1035
2861,1023,1037
2862,1028,1037
2863,1029,1037
2864,1033,1037
2865,1032,1036
2866,1034,1032
2867,1035,1031
2868,1034,1029
2869,1032,1032
2870,1036,1031
2871,1034,1031
2872,1038,1031
2873,1044,1031
2874,1049,1031
2875,1051,1030
2876,1053,1029
2877,1058,1027
2878,1056,1023
2879,1056,1021
2880,1056,1022
2881,1054,1017
2882,1059,1017
2883,1061,1015
2884,1067,1016
2885,1068,1016
2886,1074,1016
2887,1078,1017
2888,1082,1016
2889,1084,1016
2890,1087,1011
2891,1089,1008
2892,1088,1008
2893,1084,1008
2894,1087,1007
2895,1088,1011
2896,1090,1009
2897,1094,1010
2898,1096,1014
2899,1097,1013
2900,1097,1009
2901,1099,1008
2902,1098,1007
2903,1101,1002
2904,1099,1002
2905,1100,1000
2906,1104,1003
2907,1102,1006
2908,1104,1011
2909,1104,1012
2910,1101,1017
2911,1101,1015
2912,1098,1015
2913,1096,1018
2914,1094,1015
2915,1091,1016
2916,1088,1018
2917,1084,1022
2918,1081,1023
2919,1078,1027
2920,1073,1027
2921,1071,1033
2922,1066,1033
2923,1064,1039
2924,1059,1041
2925,1055,1043
2926,1047,1042
2927,1043,1044
2928,1038,1041
2929,1035,1046
2930,1034,1051
2931,1032,1049
2932,1030,1054
2933,1026,1056
2934,1024,1058
2935,1020,1060
2936,1016,1061
2937,1015,1057
2938,1014,1057
2939,1012,1059
2940,1009,1058
2941,1003,1059
2942,1000,1061
2943,999,1063
2944,1003,1065
2945,1004,1066
2946,1008,1070
2947,1011,1070
2948,1009,1069
2949,1006,1067
2950,1002,1066
2951,1000,1062
2952,998,1060
2953,998,1062
2954,998,1062
2955,1000,1062
2956,1001,1065
2957,1002,1067
2958,1003,1067
2959,1007,1068
2960,1008,1067
2961,1009,1065
2962,1008,1063
2963,1006,1062
2964,1006,1060
2965,1003,1060
2966,1005,1063
2967,1004,1062
2968,1005,1060
2969,1008,1063
2970,1008,1064
2971,1008,1064
2972,1008,1064
2973,1008,1061
2974,1007,1061
2975,1007,1058
2976,1005,1057
2977,1005,1058
2978,1003,1059
2979,1003,1058
2980,1004,1061
2981,1005,1062
2982,1006,1063
2983,1008,1060
2984,1005,1058
2985,1005,1058
2986,1004,1060
2987,1002,1058
2988,1002,1055
2989,1001,1057
2990,998,1057
2991,998,1060
2992,1001,1060
2993,1000,1060
2994,1000,1064
2995,1003,1061
2996,1001,1061
2997,998,1061
2998,998,1061
2999,996,1058
3000,998,1057
3001,997,1056
3002,996,1054
3003,995,1058
3004,997,1057
3005,996,1061
3006,998,1061
3007,998,1061
3008,996,1059
3009,995,1059
3010,994,1056
3011,994,1058
3012,995,1056
3013,991,1058
3014,993,1060
3015,995,1064
3016,995,1065
3017,998,1070
3018,1001,1072
3019,1003,1072
3020,1005,1074
3021,1007,1073
3022,1008,1071
3023,1008,1068
3024,1007,1063
3025,1008,1065
3026,1010,1065
3027,1013,1066
3028,1017,1064
3029,1021,1064
3030,1025,1065
3031,1029,1061
3032,1031,1061
3033,1031,1060
3034,1031,1058
3035,1026,1052
3036,1023,1050
3037,1020,1047
3038,1019,1050
3039,1017,1051
3040,1016,1054
3041,1014,1056
3042,1012,1057
3043,1007,1054
3044,1003,1054
3045,1000,1049
3046,996,1050
3047,990,1046
3048,988,1047
3049,985,1048
3050,984,1047
3051,984,1049
3052,984,1051
3053,983,1052
3054,986,1052
3055,985,1050
3056,984,1050
3057,982,1048
3058,981,1048
3059,982,1045
3060,979,1046
3061,978,1048
3062,979,1048
3063,977,1050
3064,980,1047
3065,979,1051
3066,982,1052
3067,982,1050
3068,984,1050
3069,982,1051
3070,980,1052
3071,981,1049
3072,980,1053
3073,979,1054
3074,979,1059
3075,976,1067
3076,971,1072
3077,965,1077
3078,952,1076
3079,938,1075
3080,932,1066
3081,942,1053
3082,978,1036
3083,1032,1023
3084,1109,1014
3085,1191,1010
3086,1270,1014
3087,1323,1021
3088,1332,1026
3089,1287,1030
3090,1191,1036
3091,1086,1050
3092,998,1075
3093,946,1103
3094,924,1137
3095,921,1168
3096,922,1191
3097,915,1206
3098,902,1218
3099,884,1227
3100,862,1237
3101,845,1240
3102,835,1240
3103,835,1234
3104,838,1220
3105,850,1199
3106,859,1181
3107,875,1159
3108,893,1139
3109,913,1116
3110,931,1098
3111,942,1079
3112,957,1072
3113,965,1064
3114,972,1063
3115,977,1058
3116,978,1056
3117,980,1054
3118,979,1050
3119,983,1049
3120,982,1049
3121,983,1046
3122,986,1045
3123,985,1045
3124,988,1045
3125,989,1044
3126,991,1043
3127,993,1046
3128,993,1044
3129,993,1042
3130,991,1042
3131,994,1038
3132,993,1037
3133,990,1038
3134,992,1035
3135,992,1037
3136,996,1037
3137,1000,1039
3138,999,1040
3139,999,1038
3140,998,1037
3141,1002,1035
3142,1001,1035
3143,1002,1034
3144,1002,1032
3145,1001,1032
3146,998,1031
3147,1000,1032
3148,1003,1034
3149,1010,1033
3150,1011,1035
3151,1013,1033
3152,1011,1033
3153,1012,1034
3154,1014,1030
3155,1014,1031
3156,1015,1029
3157,1016,1028
3158,1015,1027
3159,1018,1028
3160,1020,1029
3161,1022,1031
3162,1025,1032
3163,1027,1029
3164,1031,1029
3165,1030,1027
3166,1031,1026
3167,1030,1026
3168,1032,1023
3169,1034,1020
3170,1036,1019
3171,1035,1023
3172,1041,1022
3173,1043,1021
3174,1046,1022
3175,1049,1018
3176,1047,1019
3177,1051,1019
3178,1052,1017
3179,1052,1013
3180,1054,1011
3181,1056,1010
3182,1057,1010
3183,1061,1012
3184,1064,1011
3185,1067,1012
3186,1071,1012
3187,1074,1012
3188,1076,1009
3189,1077,1008
3190,1079,1009
3191,1079,1008
3192,1077,1007
3193,1075,1003
3194,1080,1005
3195,1082,1007
3196,1084,1006
3197,1086,1008
3198,1088,1008
3199,1093,1006
3200,1095,1010
3201,1095,1009
3202,1094,1010
3203,1098,1006
3204,1097,1007
3205,1095,1009
3206,1094,1009
3207,1097,1013
3208,1097,1014
3209,1098,1015
3210,1099,1019
3211,1096,1020
3212,1092,1020
3213,1089,1023
3214,1089,1021
3215,1083,1025
3216,1079,1026
3217,1073,1025
3218,1069,1029
3219,1068,1033
3220,1062,1037
3221,1059,1040
3222,1055,1041
3223,1052,1041
3224,1046,1044
3225,1042,1045
3226,1038,1043
3227,1035,1042
3228,1029,1042
3229,1024,1044
3230,1020,1043
3231,1019,1046
3232,1015,1048
3233,1014,1049
3234,1012,1050
3235,1011,1050
3236,1011,1050
3237,1011,1052
3238,1008,1050
3239,1006,1049
3240,1004,1049
3241,1002,1048
3242,1001,1049
3243,1003,1051
3244,1003,1051
3245,1003,1052
3246,1005,1052
3247,1006,1054
3248,1008,1055
3249,1006,1055
3250,1005,1053
3251,1003,1051
3252,1002,1050
3253,1000,1049
3254,1001,1050
3255,1003,1050
3256,1002,1052
3257,1006,1054
3258,1006,1055
3259,1008,1055
3260,1008,1053
3261,1011,1052
3262,1007,1052
3263,1009,1050
3264,1008,1048
3265,1008,1047
3266,1006,1048
3267,1007,1047
3268,1010,1047
3269,1008,1049
3270,1012,1052
3271,1012,1052
3272,1013,1051
3273,1010,1053
3274,1010,1050
3275,1009,1049
3276,1009,1048
3277,1006,1044
3278,1006,1045
3279,1004,1047
3280,1008,1048
3281,1005,1050
3282,1009,1051
3283,1007,1052
3284,1003,1050
3285,1004,1049
3286,1007,1046
3287,1003,1046
3288,1001,1045
3289,1001,1044
3290,1000,1046
3291,1000,1048
3292,1000,1049
3293,1001,1052
3294,1002,1050
3295,1000,1050
3296,1001,1048
3297,1000,1046
3298,999,1047
3299,997,1045
3300,996,1045
3301,993,1043
3302,992,1045
3303,994,1046
3304,993,1047
3305,995,1048
3306,994,1050
3307,996,1048
3308,994,1045
3309,995,1048
3310,995,1044
3311,992,1046
3312,991,1044
3313,991,1045
3314,993,1045
3315,991,1048
3316,992,1049
3317,995,1050
3318,994,1052
3319,996,1050
3320,995,1052
3321,992,1051
3322,991,1047
3323,992,1045
3324,991,1049
3325,989,1047
3326,990,1045
3327,992,1047
3328,990,1047
3329,993,1051
3330,993,1051
3331,996,1050
3332,994,1050
3333,995,1047
3334,995,1048
3335,995,1047
3336,991,1047
3337,992,1048
3338,991,1047
3339,993,1050
3340,991,1052
3341,993,1055
3342,995,1055
3343,997,1060
3344,997,1062
3345,998,1063
3346,1001,1062
3347,1001,1065
3348,1000,1066
3349,1001,1066
3350,1003,1065
3351,1004,1065
3352,1006,1065
3353,1008,1064
3354,1011,1065
3355,1013,1065
3356,1014,1063
3357,1016,1058
3358,1019,1055
3359,1021,1054
3360,1025,1052
3361,1028,1052
3362,1028,1053
3363,1031,1052
3364,1029,1052
3365,1027,1051
3366,1026,1052
3367,1026,1051
3368,1022,1049
3369,1020,1050
3370,1018,1049
3371,1014,1049
3372,1014,1049
3373,1011,1047
3374,1005,1047
3375,1001,1047
3376,1000,1047
3377,997,1049
3378,994,1051
3379,994,1047
3380,994,1047
3381,991,1047
3382,988,1046
3383,983,1043
3384,986,1045
3385,983,1043
3386,982,1043
3387,981,1046
3388,982,1046
3389,985,1047
3390,984,1050
3391,986,1048
3392,986,1048
3393,987,1048
3394,982,1048
3395,984,1044
3396,983,1044
3397,983,1044
3398,982,1046
3399,982,1048
3400,984,1050
3401,984,1051
3402,985,1055
3403,988,1057
3404,985,1060
3405,985,1066
3406,981,1071
3407,976,1077
3408,965,1078
3409,953,1076
3410,938,1073
3411,932,1068
3412,939,1061
3413,965,1049
3414,1015,1040
3415,1082,1031
3416,1160,1024
3417,1238,1021
3418,1302,1017
3419,1342,1015
3420,1345,1015
3421,1300,1016
3422,1216,1022
3423,1114,1033
3424,1026,1056
3425,968,1090
3426,942,1128
3427,936,1161
3428,938,1190
3429,936,1205
3430,925,1217
3431,905,1227
3432,878,1233
3433,853,1236
3434,834,1238
3435,824,1238
3436,824,1231
3437,831,1219
3438,841,1204
3439,860,1187
3440,877,1165
3441,896,1144
3442,917,1120
3443,930,1099
3444,946,1084
3445,954,1073
3446,963,1068
3447,970,1065
3448,975,1065
3449,979,1065
3450,981,1063
3451,982,1063
3452,982,1062
3453,985,1058
3454,987,1054
3455,985,1052
3456,987,1050
3457,985,1049
3458,987,1050
3459,989,1052
3460,990,1051
3461,992,1052
3462,992,1051
3463,996,1053
3464,995,1049
3465,996,1050
3466,995,1048
3467,993,1043
3468,995,1043
3469,992,1046
3470,990,1042
3471,993,1043
3472,996,1045
3473,997,1046
3474,997,1046
3475,1000,1047
3476,1002,1048
3477,1001,1047
3478,999,1046
3479,1002,1045
3480,1000,1042
3481,1000,1040
3482,1002,1043
3483,1002,1042
3484,1004,1044
3485,1006,1046
3486,1007,1046
3487,1011,1043
3488,1010,1045
3489,1010,1042
3490,1009,1040
3491,1008,1039
3492,1009,1039
3493,1012,1039
3494,1014,1037
3495,1016,1040
3496,1017,1041
3497,1020,1040
3498,1021,1041
3499,1025,1042
3500,1027,1041
3501,1029,1038
3502,1027,1038
3503,1029,1036
3504,1030,1033
3505,1030,1032
3506,1031,1032
3507,1034,1036
3508,1035,1035
3509,1037,1034
3510,1041,1036
3511,1046,1034
3512,1047,1034
3513,1049,1030
3514,1050,1032
3515,1050,1029
3516,1051,1024
3517,1052,1027
3518,1055,1023
3519,1058,1024
3520,1061,1025
3521,1064,1026
3522,1069,1024
3523,1071,1023
3524,1073,1024
3525,1077,1021
3526,1077,1020
3527,1077,1016
3528,1080,1017
3529,1081,1015
3530,1084,1014
3531,1088,1015
3532,1091,1014
3533,1094,1017
3534,1094,1019
3535,1098,1019
3536,1100,1017
3537,1101,1016
3538,1101,1017
3539,1102,1014
3540,1100,1016
3541,1102,1014
3542,1103,1017
3543,1104,1018
3544,1105,1021
3545,1107,1018
3546,1110,1020
3547,1111,1018
3548,1110,1021
3549,1109,1020
3550,1109,1021
3551,1106,1020
3552,1103,1021
3553,1100,1022
3554,1098,1025
3555,1096,1026
3556,1092,1029
3557,1092,1029
3558,1089,1035
3559,1085,1037
3560,1082,1038
3561,1077,1037
3562,1074,1037
3563,1069,1038
3564,1061,1039
3565,1058,1041
3566,1052,1042
3567,1046,1046
3568,1045,1049
3569,1041,1050
3570,1042,1057
3571,1042,1056
3572,1039,1056
3573,1036,1057
3574,1031,1055
3575,1029,1058
3576,1025,1056
3577,1020,1057
3578,1019,1059
3579,1017,1059
3580,1016,1061
3581,1017,1065
3582,1018,1066
3583,1017,1065
3584,1017,1065
3585,1016,1064
3586,1013,1063
3587,1012,1063
3588,1009,1062
3589,1005,1062
3590,1005,1063
3591,1004,1062
3592,1005,1064
3593,1006,1065
3594,1010,1069
3595,1011,1068
3596,1010,1066
3597,1010,1067
3598,1009,1065
3599,1008,1062
3600,1005,1061
3601,1004,1064
3602,1005,1060
3603,1006,1061
3604,1005,1062
3605,1005,1064
3606,1009,1068
3607,1009,1067
3608,1008,1065
3609,1012,1064
3610,1011,1065
3611,1010,1063
3612,1009,1062
3613,1005,1062
3614,1007,1061
3615,1008,1060
3616,1007,1062
3617,1007,1064
3618,1007,1064
3619,1008,1065
3620,1007,1064
3621,1006,1062
3622,1004,1062
3623,1005,1060
3624,1001,1058
3625,999,1058
3626,1000,1058
3627,999,1060
3628,1000,1061
3629,1000,1061
3630,999,1063
3631,1002,1062
3632,1002,1062
3633,1002,1061
3634,1000,1061
3635,998,1058
3636,996,1057
3637,993,1057
3638,991,1056
3639,994,1057
3640,997,1057
3641,996,1060
3642,999,1059
3643,998,1061
3644,996,1060
3645,995,1058
3646,992,1060
3647,989,1057
3648,989,1056
3649,992,1057
3650,994,1056
3651,995,1056
3652,996,1058
3653,996,1060
3654,997,1063
3655,997,1061
3656,999,1059
3657,995,1059
3658,991,1057
3659,988,1056
3660,985,1055
3661,985,1055
3662,988,1051
3663,987,1055
3664,989,1057
3665,987,1058
3666,990,1058
3667,989,1057
3668,988,1058
3669,991,1057
3670,991,1058
3671,991,1058
3672,991,1058
3673,989,1058
3674,989,1056
3675,989,1057
3676,991,1059
3677,991,1063
3678,989,1066
3679,991,1067
3680,992,1071
3681,997,1070
3682,995,1073
3683,998,1072
3684,998,1071
3685,996,1072
3686,998,1069
3687,998,1071
3688,998,1071
3689,1001,1070
3690,1009,1070
3691,1012,1071
3692,1016,1068
3693,1020,1066
3694,1022,1061
3695,1023,1058
3696,1023,1059
3697,1020,1057
3698,1021,1057
3699,1020,1059
3700,1021,1059
3701,1023,1057
3702,1022,1060
3703,1023,1061
3704,1019,1065
3705,1015,1062
3706,1009,1064
3707,1006,1059
3708,1000,1057
3709,999,1055
3710,996,1054
3711,990,1055
3712,989,1056
3713,987,1057
3714,988,1057
3715,989,1057
3716,989,1056
3717,988,1055
3718,986,1052
3719,982,1052
3720,981,1050
3721,981,1050
3722,979,1051
3723,980,1051
3724,981,1055
3725,983,1055
3726,984,1056
3727,982,1056
3728,982,1055
3729,980,1057
3730,976,1056
3731,978,1052
3732,977,1052
3733,980,1050
3734,979,1052
3735,983,1057
3736,985,1057
3737,987,1059
3738,986,1065
3739,986,1069
3740,984,1076
3741,980,1080
3742,973,1084
3743,961,1085
3744,950,1082
3745,937,1073
3746,933,1067
3747,945,1054
3748,981,1043
3749,1035,1030
3750,1107,1024
3751,1188,1020
3752,1260,1022
3753,1316,1030
3754,1339,1033
3755,1317,1039
3756,1245,1039
3757,1140,1042
3758,1039,1055
3759,961,1078
3760,922,1111
3761,914,1143
3762,921,1174
3763,926,1195
3764,924,1213
3765,912,1223
3766,893,1227
3767,870,1234
3768,850,1236
3769,836,1240
3770,830,1239
3771,829,1230
3772,838,1223
3773,849,1212
3774,862,1202
3775,878,1186
3776,894,1167
3777,909,1145
3778,925,1122
3779,939,1100
3780,952,1084
3781,959,1073
3782,968,1066
3783,975,1067
3784,978,1066
3785,982,1065
3786,983,1067
3787,985,1063
3788,986,1062
3789,988,1058
3790,988,1056
3791,988,1054
3792,989,1052
3793,989,1048
3794,988,1050
3795,990,1047
3796,991,1049
3797,996,1052
3798,999,1055
3799,998,1054
3800,999,1051
3801,1001,1051
3802,1000,1048
3803,998,1047
3804,999,1043
3805,996,1045
3806,996,1045
3807,997,1044
3808,997,1047
3809,998,1046
3810,1002,1047
3811,1003,1049
3812,1005,1047
3813,1009,1048
3814,1010,1046
3815,1008,1045
3816,1009,1042
3817,1007,1043
3818,1010,1041
3819,1008,1039
3820,1010,1043
3821,1009,1047
3822,1009,1044
3823,1012,1043
3824,1014,1042
3825,1018,1044
3826,1018,1039
3827,1019,1039
3828,1021,1038
3829,1022,1038
3830,1023,1038
3831,1023,1038
3832,1025,1038
3833,1027,1038
3834,1030,1042
3835,1034,1040
3836,1035,1037
3837,1037,1038
3838,1037,1035
3839,1036,1032
3840,1034,1033
3841,1035,1031
3842,1037,1030
3843,1040,1029
3844,1042,1030
3845,1044,1027
3846,1047,1029
3847,1053,1031
3848,1054,1028
3849,1059,1030
3850,1059,1024
3851,1060,1024
3852,1060,1023
3853,1061,1022
3854,1062,1020
3855,1063,1019
3856,1066,1020
3857,1067,1020
3858,1072,1020
3859,1075,1018
3860,1077,1019
3861,1082,1015
3862,1083,1014
3863,1083,1013
3864,1087,1010
3865,1089,1011
3866,1091,1010
3867,1090,1010
3868,1088,1012
3869,1088,1013
3870,1091,1012
3871,1094,1014
3872,1096,1014
3873,1101,1015
3874,1103,1010
3875,1108,1011
3876,1107,1009
3877,1106,1009
3878,1106,1010
3879,1103,1008
3880,1103,1013
3881,1101,1015
3882,1101,1017
3883,1104,1018
3884,1103,1020
3885,1099,1022
3886,1095,1023
3887,1090,1022
3888,1088,1024
3889,1083,1024
3890,1078,1026
3891,1075,1029
3892,1072,1032
3893,1067,1037
3894,1066,1041
3895,1063,1043
3896,1057,1047
3897,1052,1047
3898,1049,1047
3899,1041,1044
3900,1037,1050
3901,1034,1051
3902,1028,1051
3903,1024,1053
3904,1022,1055
3905,1021,1057
3906,1019,1059
3907,1019,1061
3908,1017,1060
3909,1014,1062
3910,1012,1062
3911,1011,1060
3912,1008,1058
3913,1004,1059
3914,1006,1061
3915,1003,1061
3916,1003,1061
3917,1004,1065
3918,1006,1066
3919,1008,1067
3920,1006,1068
3921,1004,1068
3922,1005,1067
3923,1006,1065
3924,1006,1061
3925,1008,1060
3926,1005,1061
3927,1005,1063
3928,1006,1063
3929,1007,1063
3930,1007,1066
3931,1011,1065
3932,1012,1064
3933,1014,1065
3934,1013,1063
3935,1015,1064
3936,1013,1060
3937,1012,1061
3938,1010,1058
3939,1008,1061
3940,1010,1060
3941,1012,1061
3942,1012,1062
3943,1011,1062
3944,1012,1064
3945,1011,1064
3946,1010,1061
3947,1008,1060
3948,1009,1055
3949,1009,1058
3950,1003,1058
3951,1003,1060
3952,1006,1061
3953,1007,1062
3954,1006,1062
3955,1005,1063
3956,1006,1063
3957,1004,1063
3958,1002,1061
3959,1004,1060
3960,1001,1059
3961,1002,1057
3962,1001,1057
3963,1000,1059
3964,1000,1058
3965,1001,1061
3966,1003,1061
3967,1002,1060
3968,1003,1060
3969,1003,1062
3970,1002,1061
3971,1000,1059
3972,998,1059
3973,996,1057
3974,997,1059
3975,995,1058
3976,996,1057
3977,996,1060
3978,998,1061
3979,999,1063
3980,1000,1062
3981,1001,1064
3982,1002,1065
3983,1000,1064
3984,1002,1068
3985,1001,1067
3986,1000,1070
3987,1004,1072
3988,1005,1073
3989,1009,1073
3990,1011,1072
3991,1014,1073
3992,1015,1073
3993,1016,1071
3994,1016,1071
3995,1017,1066
3996,1019,1066
3997,1022,1063
3998,1026,1062
3999,1029,1061
4000,1031,1061
4001,1033,1063
4002,1034,1062
4003,1033,1064
4004,1032,1061
4005,1029,1060
4006,1027,1056
4007,1023,1058
4008,1020,1058
4009,1014,1057
4010,1011,1055
4011,1005,1058
4012,1002,1057
4013,1000,1055
4014,999,1057
4015,997,1060
4016,995,1058
4017,992,1056
4018,988,1056
4019,987,1056
4020,983,1052
4021,983,1052
4022,983,1052
4023,983,1051
4024,981,1056
4025,982,1056
4026,985,1056
4027,986,1056
4028,984,1057
4029,985,1055
4030,984,1056
4031,982,1054
4032,980,1054
4033,978,1055
4034,976,1054
4035,978,1057
4036,979,1057
4037,982,1061
4038,981,1060
4039,982,1061
4040,981,1061
4041,982,1063
4042,984,1065
4043,982,1066
4044,980,1070
4045,976,1075
4046,968,1082
4047,959,1084
4048,948,1083
4049,934,1077
4050,935,1068
4051,949,1055
4052,989,1041
4053,1049,1027
4054,1127,1020
4055,1209,1022
4056,1282,1024
4057,1328,1034
4058,1329,1036
4059,1271,1040
4060,1172,1047
4061,1064,1057
4062,978,1082
4063,928,1113
4064,913,1147
4065,914,1177
4066,920,1196
4067,918,1212
4068,907,1219
4069,888,1228
4070,864,1234
4071,845,1242
4072,832,1244
4073,831,1245
4074,832,1234
4075,841,1221
4076,853,1203
4077,867,1184
4078,886,1163
4079,904,1140
4080,920,1118
4081,933,1100
4082,947,1086
4083,958,1076
4084,966,1070
4085,971,1070
4086,975,1065
4087,980,1065
4088,982,1065
4089,981,1064
4090,981,1061
4091,982,1057
4092,985,1055
4093,986,1051
4094,986,1052
4095,985,1051
4096,986,1050
4097,989,1050
4098,993,1052
4099,995,1051
4100,995,1052
4101,994,1049
4102,996,1050
4103,995,1044
4104,993,1043
4105,991,1045
4106,991,1047
4107,991,1045
4108,994,1047
4109,994,1048
4110,996,1049
4111,998,1051
4112,1000,1049
4113,1000,1047
4114,1000,1045
4115,998,1045
4116,1000,1042
4117,1000,1041
4118,1000,1042
4119,1000,1043
4120,1003,1042
4121,1004,1043
4122,1005,1044
4123,1009,1043
4124,1011,1043
4125,1012,1043
4126,1013,1039
4127,1011,1039
4128,1012,1037
4129,1012,1038
4130,1010,1037
4131,1013,1036
4132,1016,1037
4133,1018,1038
4134,1017,1039
4135,1025,1038
4136,1024,1037
4137,1023,1036
4138,1025,1032
4139,1026,1032
4140,1028,1031
4141,1029,1031
4142,1030,1029
4143,1030,1031
4144,1032,1029
4145,1035,1030
4146,1038,1032
4147,1043,1031
4148,1044,1030
4149,1045,1028
4150,1047,1027
4151,1047,1025
4152,1048,1021
4153,1050,1020
4154,1050,1019
4155,1052,1019
4156,1054,1020
4157,1059,1022
4158,1059,1021
4159,1062,1023
4160,1066,1020
4161,1071,1020
4162,1071,1017
4163,1073,1014
4164,1072,1011
4165,1071,1012
4166,1075,1013
4167,1076,1016
4168,1077,1018
4169,1080,1015
4170,1083,1017
4171,1085,1018
4172,1086,1017
4173,1088,1016
4174,1089,1015
4175,1088,1015
4176,1089,1014
4177,1090,1017
4178,1091,1017
4179,1093,1019
4180,1095,1020
4181,1096,1024
4182,1094,1025
4183,1095,1026
4184,1092,1029
4185,1091,1030
4186,1088,1029
4187,1084,1030
4188,1080,1030
4189,1075,1035
4190,1073,1034
4191,1070,1038
4192,1067,1042
4193,1063,1043
4194,1058,1047
4195,1057,1046
4196,1051,1050
4197,1047,1050
4198,1043,1052
4199,1040,1052
4200,1033,1053
4201,1025,1054
4202,1025,1054
4203,1019,1056
4204,1018,1054
4205,1016,1060
4206,1014,1063
4207,1012,1062
4208,1012,1065
4209,1009,1064
4210,1009,1066
4211,1008,1063
4212,1003,1061
4213,1001,1064
4214,999,1061
4215,999,1062
4216,998,1064
4217,999,1067
4218,1000,1067
4219,1001,1068
4220,999,1066
4221,1001,1067
4222,1004,1063
4223,1000,1063
4224,1000,1062
4225,999,1062
4226,999,1062
4227,1000,1061
4228,999,1065
4229,1004,1066
4230,1005,1065
4231,1006,1067
4232,1007,1067
4233,1007,1064
4234,1006,1067
4235,1005,1064
4236,1004,1061
4237,1006,1061
4238,1006,1061
4239,1008,1061
4240,1008,1065
4241,1008,1066
4242,1007,1066
4243,1008,1064
4244,1007,1062
4245,1005,1064
4246,1007,1065
4247,1005,1062
4248,1006,1060
4249,1004,1057
4250,1003,1060
4251,1004,1059
4252,1003,1060
4253,1003,1063
4254,1003,1064
4255,1005,1065
4256,1005,1066
4257,1005,1061
4258,1004,1063
4259,1004,1062
4260,1001,1061
4261,1000,1060
4262,998,1059
4263,998,1062
4264,998,1063
4265,1001,1064
4266,999,1065
4267,999,1064
4268,1000,1063
4269,999,1063
4270,999,1063
4271,995,1062
4272,997,1060
4273,995,1060
4274,994,1059
4275,995,1062
4276,994,1063
4277,993,1066
4278,997,1067
4279,998,1066
4280,997,1066
4281,997,1066
4282,997,1061
4283,996,1062
4284,996,1062
4285,991,1063
4286,990,1061
4287,992,1061
4288,992,1061
4289,990,1062
4290,991,1065
4291,994,1063
4292,993,1065
4293,993,1064
4294,994,1061
4295,992,1061
4296,991,1060
4297,988,1057
4298,990,1057
4299,988,1057
4300,990,1059
4301,991,1061
4302,991,1062
4303,992,1063
4304,990,1064
4305,993,1064
4306,994,1064
4307,990,1061
4308,992,1061
4309,988,1062
4310,988,1061
4311,988,1060
4312,988,1062
4313,991,1064
4314,992,1067
4315,994,1067
4316,994,1069
4317,996,1072
4318,996,1074
4319,997,1075
4320,998,1077
4321,998,1075
4322,998,1078
4323,999,1077
4324,1001,1077
4325,1005,1075
4326,1008,1074
4327,1012,1072
4328,1012,1067
4329,1016,1068
4330,1022,1064
4331,1025,1062
4332,1028,1059
4333,1029,1058
4334,1027,1056
4335,1026,1057
4336,1023,1056
4337,1020,1057
4338,1020,1060
4339,1016,1059
4340,1016,1061
4341,1014,1062
4342,1012,1058
4343,1007,1058
4344,1002,1054
4345,995,1052
4346,990,1052
4347,987,1055
4348,986,1055
4349,985,1056
4350,988,1057
4351,988,1058
4352,986,1057
4353,987,1058
4354,987,1054
4355,984,1054
4356,982,1052
4357,979,1053
4358,977,1053
4359,979,1055
4360,977,1057
4361,980,1057
4362,982,1059
4363,983,1060
4364,982,1063
4365,984,1058
4366,983,1060
4367,982,1057
4368,983,1058
4369,982,1059
4370,982,1061
4371,980,1069
4372,978,1075
4373,974,1086
4374,967,1091
4375,955,1090
4376,941,1087
4377,932,1080
4378,938,1066
4379,959,1053
4380,1008,1041
4381,1074,1029
4382,1154,1025
4383,1236,1023
4384,1303,1024
4385,1340,1027
4386,1336,1029
4387,1283,1031
4388,1189,1037
4389,1084,1053
4390,1003,1081
4391,953,1115
4392,935,1148
4393,934,1180
4394,933,1201
4395,930,1217
4396,916,1229
4397,899,1237
4398,871,1242
4399,850,1248
4400,833,1247
4401,826,1244
4402,825,1230
4403,831,1216
4404,841,1198
4405,855,1183
4406,874,1162
4407,893,1142
4408,911,1123
4409,930,1108
4410,946,1096
4411,959,1086
4412,967,1079
4413,972,1076
4414,975,1071
4415,975,1068
4416,978,1065
4417,977,1062
4418,978,1065
4419,979,1064
4420,980,1064
4421,984,1062
4422,984,1063
4423,987,1063
4424,990,1062
4425,989,1060
4426,990,1055
4427,989,1057
4428,989,1055
4429,987,1054
4430,987,1052
4431,986,1053
4432,989,1055
4433,990,1056
4434,991,1057
4435,994,1058
4436,995,1057
4437,995,1056
4438,994,1055
4439,995,1054
4440,993,1053
4441,995,1052
4442,995,1052
4443,992,1053
4444,994,1055
4445,995,1055
4446,997,1055
4447,1000,1055
4448,1001,1055
4449,1000,1056
4450,1001,1054
4451,1004,1054
4452,1004,1052
4453,1003,1052
4454,1001,1049
4455,1002,1051
4456,1003,1051
4457,1009,1052
4458,1009,1050
4459,1013,1051
4460,1016,1051
4461,1015,1050
4462,1016,1049
4463,1017,1048
4464,1019,1045
4465,1017,1045
4466,1017,1044
4467,1020,1047
4468,1023,1046
4469,1024,1046
4470,1026,1046
4471,1030,1050
4472,1034,1049
4473,1032,1047
4474,1037,1045
4475,1035,1044
4476,1038,1041
4477,1036,1039
4478,1036,1040
4479,1039,1041
4480,1038,1041
4481,1040,1040
4482,1043,1037
4483,1049,1041
4484,1051,1037
4485,1058,1036
4486,1060,1033
4487,1063,1032
4488,1064,1031
4489,1064,1027
4490,1065,1028
4491,1068,1024
4492,1070,1026
4493,1074,1027
4494,1078,1030
4495,1080,1027
4496,1084,1027
4497,1085,1025
4498,1085,1027
4499,1087,1022
4500,1088,1023
4501,1089,1019
4502,1093,1020
4503,1096,1018
4504,1098,1022
4505,1099,1023
4506,1101,1026
4507,1101,1026
4508,1102,1026
4509,1102,1023
4510,1104,1020
4511,1106,1022
4512,1106,1022
4513,1108,1020
4514,1106,1024
4515,1107,1024
4516,1103,1025
4517,1103,1027
4518,1101,1030
4519,1103,1033
4520,1100,1031
4521,1099,1033
4522,1100,1033
4523,1095,1034
4524,1088,1036
4525,1082,1039
4526,1074,1040
4527,1070,1040
4528,1066,1042
4529,1064,1043
4530,1062,1047
4531,1064,1051
4532,1058,1051
4533,1055,1055
4534,1051,1053
4535,1043,1055
4536,1043,1055
4537,1036,1054
4538,1032,1057
4539,1027,1059
4540,1025,1061
4541,1021,1065
4542,1017,1066
4543,1015,1068
4544,1013,1068
4545,1010,1071
4546,1008,1067
4547,1005,1069
4548,1004,1067
4549,1003,1069
4550,1000,1070
4551,1002,1069
4552,1002,1069
4553,1002,1073
4554,1000,1075
4555,1000,1073
4556,1000,1075
4557,1000,1074
4558,1000,1073
4559,998,1072
4560,999,1071
4561,999,1071
4562,999,1071
4563,998,1071
4564,995,1073
4565,994,1075
4566,996,1075
4567,999,1074
4568,998,1074
4569,999,1075
4570,998,1075
4571,999,1072
4572,997,1069
4573,998,1069
4574,999,1070
4575,1000,1070
4576,999,1072
4577,999,1072
4578,998,1073
4579,998,1073
4580,998,1072
4581,997,1071
4582,996,1072
4583,995,1069
4584,995,1070
4585,994,1069
4586,993,1068
4587,991,1069
4588,989,1069
4589,991,1067
4590,994,1070
4591,999,1071
4592,1000,1071
4593,1000,1072
4594,1000,1070
4595,997,1069
4596,995,1067
4597,988,1067
4598,988,1066
4599,985,1065
4600,985,1066
4601,986,1068
4602,987,1068
4603,987,1069
4604,990,1070
4605,990,1069
4606,990,1069
4607,987,1070
4608,987,1068
4609,988,1064
4610,986,1062
4611,987,1064
4612,987,1064
4613,989,1065
4614,987,1068
4615,986,1067
4616,988,1068
4617,985,1068
4618,985,1068
4619,984,1066
4620,983,1066
4621,982,1061
4622,978,1063
4623,978,1063
4624,975,1064
4625,977,1063
4626,980,1066
4627,983,1064
4628,985,1065
4629,987,1065
4630,987,1066
4631,985,1065
4632,984,1064
4633,981,1061
4634,982,1065
4635,981,1063
4636,984,1062
4637,983,1066
4638,982,1071
4639,982,1071
4640,982,1070
4641,976,1071
4642,978,1070
4643,981,1069
4644,984,1068
4645,988,1072
4646,992,1076
4647,995,1076
4648,995,1080
4649,993,1081
4650,996,1081
4651,998,1085
4652,1000,1080
4653,1000,1078
4654,1001,1077
4655,1000,1073
4656,1000,1074
4657,999,1070
4658,1004,1069
4659,1009,1069
4660,1012,1067
4661,1017,1066
4662,1020,1066
4663,1023,1069
4664,1025,1067
4665,1020,1065
4666,1017,1064
4667,1015,1060
4668,1011,1061
4669,1006,1063
4670,1000,1061
4671,999,1066
4672,992,1063
4673,990,1065
4674,988,1062
4675,989,1062
4676,987,1060
4677,986,1063
4678,984,1060
4679,981,1060
4680,977,1059
4681,976,1059
4682,977,1058
4683,978,1058
4684,978,1059
4685,980,1060
4686,978,1062
4687,977,1065
4688,977,1064
4689,976,1062
4690,972,1061
4691,973,1059
4692,974,1058
4693,974,1057
4694,973,1059
4695,973,1058
4696,973,1060
4697,974,1063
4698,973,1064
4699,975,1067
4700,974,1068
4701,972,1067
4702,972,1069
4703,974,1068
4704,973,1069
4705,975,1074
4706,970,1078
4707,964,1086
4708,956,1088
4709,948,1087
4710,937,1083
4711,927,1078
4712,930,1069
4713,952,1054
4714,997,1042
4715,1057,1030
4716,1131,1026
4717,1206,1026
4718,1273,1030
4719,1320,1041
4720,1333,1051
4721,1300,1052
4722,1223,1058
4723,1118,1061
4724,1015,1075
4725,945,1098
4726,908,1126
4727,905,1152
4728,909,1177
4729,916,1194
4730,916,1208
4731,908,1217
4732,889,1227
4733,871,1236
4734,849,1241
4735,834,1248
4736,825,1249
4737,824,1245
4738,827,1237
4739,830,1224
4740,835,1212
4741,844,1199
4742,859,1184
4743,874,1170
4744,893,1155
4745,912,1134
4746,930,1114
4747,943,1100
4748,955,1085
4749,958,1078
4750,963,1073
4751,965,1070
4752,967,1069
4753,967,1067
4754,970,1067
4755,972,1061
4756,972,1062
4757,976,1062
4758,979,1063
4759,983,1064
4760,986,1063
4761,988,1059
4762,989,1057
4763,987,1055
4764,985,1053
4765,984,1053
4766,981,1052
4767,981,1052
4768,979,1053
4769,983,1052
4770,982,1052
4771,988,1056
4772,991,1056
4773,993,1057
4774,995,1053
4775,994,1051
4776,993,1048
4777,994,1048
4778,991,1047
4779,993,1047
4780,992,1046
4781,994,1045
4782,993,1048
4783,990,1049
4784,991,1046
4785,992,1049
4786,995,1046
4787,999,1044
4788,1002,1044
4789,1006,1041
4790,1008,1041
4791,1007,1041
4792,1007,1042
4793,1006,1043
4794,1006,1043
4795,1005,1044
4796,1005,1043
4797,1006,1044
4798,1008,1041
4799,1007,1039
4800,1008,1037
4801,1010,1036
4802,1014,1037
4803,1018,1039
4804,1020,1039
4805,1023,1040
4806,1024,1041
4807,1024,1042
4808,1028,1039
4809,1026,1039
4810,1030,1034
4811,1030,1032
4812,1031,1029
4813,1030,1031
4814,1034,1030
4815,1034,1029
4816,1038,1029
4817,1042,1030
4818,1045,1031
4819,1047,1030
4820,1050,1026
4821,1049,1025
4822,1052,1025
4823,1051,1021
4824,1054,1023
4825,1055,1021
4826,1055,1020
4827,1059,1020
4828,1060,1020
4829,1063,1019
4830,1067,1017
4831,1073,1019
4832,1076,1018
4833,1078,1019
4834,1080,1015
4835,1082,1017
4836,1082,1015
4837,1080,1012
4838,1080,1012
4839,1079,1014
4840,1083,1010
4841,1083,1015
4842,1084,1013
4843,1089,1014
4844,1093,1014
4845,1095,1017
4846,1095,1015
4847,1098,1015
4848,1093,1015
4849,1094,1015
4850,1088,1014
4851,1091,1017
4852,1090,1018
4853,1089,1026
4854,1086,1025
4855,1084,1031
4856,1079,1030
4857,1075,1031
4858,1070,1035
4859,1065,1037
4860,1061,1037
4861,1058,1039
4862,1051,1041
4863,1045,1043
4864,1042,1049
4865,1039,1051
4866,1034,1054
4867,1031,1059
4868,1030,1060
4869,1024,1061
4870,1021,1063
4871,1018,1062
4872,1013,1060
4873,1010,1063
4874,1007,1063
4875,1006,1065
4876,1002,1067
4877,1001,1068
4878,1002,1072
4879,1001,1071
4880,1000,1071
4881,998,1070
4882,999,1069
4883,998,1071
4884,996,1070
4885,995,1067
4886,993,1069
4887,991,1064
4888,992,1068
4889,994,1067
4890,995,1072
4891,995,1075
4892,1000,1073
4893,999,1071
4894,998,1072
4895,997,1068
4896,999,1068
4897,998,1065
4898,996,1065
4899,995,1066
4900,998,1067
4901,996,1066
4902,999,1064
4903,1002,1070
4904,1003,1068
4905,1003,1067
4906,1003,1064
4907,1002,1063
4908,999,1066
4909,998,1062
4910,997,1061
4911,997,1062
4912,996,1062
4913,997,1063
4914,997,1064
4915,997,1065
4916,997,1066
4917,995,1066
4918,997,1064
4919,996,1063
4920,994,1060
4921,992,1061
4922,989,1059
4923,990,1058
4924,989,1061
4925,990,1063
4926,990,1064
4927,991,1064
4928,989,1064
4929,987,1062
4930,990,1064
4931,986,1061
4932,986,1058
4933,985,1059
4934,984,1057
4935,983,1057
4936,981,1060
4937,981,1061
4938,983,1062
4939,983,1063
4940,984,1063
4941,984,1062
4942,984,1062
4943,982,1060
4944,981,1059
4945,981,1058
4946,978,1058
4947,981,1060
4948,975,1059
4949,978,1060
4950,979,1062
4951,982,1064
4952,981,1064
4953,980,1063
4954,979,1063
4955,978,1065
4956,978,1065
4957,976,1065
4958,975,1065
4959,979,1068
4960,980,1071
4961,981,1076
4962,981,1080
4963,985,1080
4964,989,1079
4965,991,1077
4966,991,1075
4967,992,1073
4968,991,1070
4969,993,1068
4970,992,1065
4971,994,1065
4972,1000,1066
4973,1005,1066
4974,1009,1065
4975,1015,1066
4976,1017,1064
4977,1018,1064
4978,1015,1060
4979,1013,1058
4980,1011,1056
4981,1007,1054
4982,1004,1053
4983,1003,1053
4984,1001,1057
4985,999,1057
4986,998,1059
4987,997,1059
4988,996,1058
4989,989,1055
4990,989,1051
4991,981,1049
4992,976,1049
4993,972,1048
4994,970,1049
4995,969,1050
4996,968,1051
4997,967,1051
4998,970,1052
4999,971,1054
5000,971,1053
5001,971,1053
5002,970,1052
5003,969,1050
5004,970,1051
5005,968,1049
5006,967,1049
5007,966,1049
5008,965,1050
5009,965,1052
5010,967,1055
5011,970,1056
5012,970,1054
5013,973,1052
5014,971,1053
5015,967,1052
5016,968,1050
5017,967,1050
5018,966,1051
5019,965,1058
5020,967,1062
5021,966,1068
5022,964,1077
5023,961,1088
5024,952,1087
5025,936,1086
5026,922,1080
5027,916,1068
5028,927,1054
5029,955,1039
5030,1007,1028
5031,1080,1020
5032,1161,1017
5033,1240,1018
5034,1298,1022
5035,1322,1023
5036,1307,1024
5037,1237,1027
5038,1139,1035
5039,1041,1052
5040,972,1081
5041,933,1117
5042,919,1149
5043,917,1178
5044,916,1200
5045,911,1215
5046,894,1224
5047,873,1234
5048,849,1238
5049,832,1242
5050,820,1239
5051,815,1229
5052,819,1216
5053,826,1197
5054,839,1177
5055,853,1158
5056,873,1137
5057,892,1117
5058,911,1101
5059,927,1085
5060,940,1077
5061,949,1066
5062,956,1061
5063,958,1060
5064,959,1058
5065,959,1054
5066,960,1052
5067,961,1054
5068,964,1053
5069,968,1050
5070,968,1051
5071,970,1052
5072,973,1051
5073,974,1049
5074,975,1048
5075,974,1047
5076,975,1046
5077,974,1045
5078,974,1045
5079,975,1044
5080,976,1044
5081,974,1045
5082,978,1046
5083,980,1047
5084,978,1046
5085,980,1046
5086,981,1046
5087,981,1045
5088,983,1043
5089,981,1043
5090,978,1039
5091,979,1042
5092,983,1041
5093,984,1044
5094,986,1044
5095,989,1042
5096,991,1044
5097,992,1044
5098,991,1043
5099,992,1039
5100,994,1038
5101,993,1039
5102,994,1036
5103,994,1037
5104,996,1036
5105,998,1036
5106,1002,1040
5107,1004,1040
5108,1007,1040
5109,1010,1037
5110,1010,1039
5111,1010,1035
5112,1013,1035
5113,1012,1033
5114,1013,1034
5115,1015,1032
5116,1017,1033
5117,1021,1033
5118,1023,1032
5119,1025,1034
5120,1028,1033
5121,1031,1031
5122,1034,1030
5123,1037,1029
5124,1036,1025
5125,1039,1024
5126,1040,1022
5127,1043,1024
5128,1046,1023
5129,1049,1023
5130,1053,1026
5131,1056,1025
5132,1059,1024
5133,1061,1024
5134,1064,1022
5135,1064,1017
5136,1067,1016
5137,1069,1014
5138,1070,1013
5139,1072,1013
5140,1075,1015
5141,1078,1018
5142,1079,1015
5143,1083,1018
5144,1083,1017
5145,1084,1017
5146,1084,1018
5147,1083,1017
5148,1085,1015
5149,1088,1018
5150,1087,1018
5151,1090,1015
5152,1088,1017
5153,1088,1019
5154,1090,1021
5155,1088,1023
5156,1088,1025
5157,1086,1028
5158,1081,1027
5159,1078,1027
5160,1075,1029
5161,1069,1027
5162,1066,1029
5163,1062,1032
5164,1058,1035
5165,1052,1040
5166,1048,1040
5167,1046,1044
5168,1040,1046
5169,1039,1048
5170,1033,1049
5171,1027,1050
5172,1022,1049
5173,1018,1048
5174,1016,1051
5175,1010,1050
5176,1008,1055
5177,1006,1056
5178,1005,1059
5179,1001,1060
5180,1002,1061
5181,998,1062
5182,997,1063
5183,994,1061
5184,989,1060
5185,991,1059
5186,987,1061
5187,984,1062
5188,985,1063
5189,984,1063
5190,986,1068
5191,986,1068
5192,988,1068
5193,984,1069
5194,983,1066
5195,984,1065
5196,983,1066
5197,982,1061
5198,979,1065
5199,982,1063
5200,982,1063
5201,984,1067
5202,987,1066
5203,987,1068
5204,988,1066
5205,986,1067
5206,986,1066
5207,986,1063
5208,986,1062
5209,987,1063
5210,988,1062
5211,987,1063
5212,988,1062
5213,987,1064
5214,990,1067
5215,989,1066
5216,990,1068
5217,992,1067
5218,992,1065
5219,988,1063
5220,992,1064
5221,986,1061
5222,985,1059
5223,985,1062
5224,983,1062
5225,983,1065
5226,984,1064
5227,984,1066
5228,986,1065
5229,986,1064
5230,985,1063
5231,984,1062
5232,984,1061
5233,981,1059
5234,983,1059
5235,981,1058
5236,981,1060
5237,980,1060
5238,980,1063
5239,979,1063
5240,982,1059
5241,981,1062
5242,978,1063
5243,980,1058
5244,979,1059
5245,978,1057
5246,977,1058
5247,976,1057
5248,976,1060
5249,977,1062
5250,979,1064
5251,978,1064
5252,978,1066
5253,977,1063
5254,977,1060
5255,976,1061
5256,976,1061
5257,974,1059
5258,972,1061
5259,970,1060
5260,969,1061
5261,974,1064
5262,975,1063
5263,978,1065
5264,976,1064
5265,976,1064
5266,977,1062
5267,976,1060
5268,973,1060
5269,973,1059
5270,971,1058
5271,970,1058
5272,970,1060
5273,971,1061
5274,973,1063
5275,972,1061
5276,975,1062
5277,975,1063
5278,976,1063
5279,973,1061
5280,970,1060
5281,969,1056
5282,968,1059
5283,969,1059
5284,966,1060
5285,968,1061
5286,972,1063
5287,971,1061
5288,973,1064
5289,975,1062
5290,975,1063
5291,974,1061
5292,973,1058
5293,969,1057
5294,970,1058
5295,969,1060
5296,970,1062
5297,971,1063
5298,973,1066
5299,971,1070
5300,971,1071
5301,975,1075
5302,975,1075
5303,976,1075
5304,978,1077
5305,977,1077
5306,977,1079
5307,978,1080
5308,981,1077
5309,979,1077
5310,986,1078
5311,986,1076
5312,990,1072
5313,994,1072
5314,996,1070
5315,998,1067
5316,1001,1065
5317,1004,1061
5318,1004,1059
5319,1005,1060
5320,1004,1060
5321,1004,1061
5322,1002,1060
5323,1001,1059
5324,1002,1059
5325,999,1059
5326,1000,1058
5327,996,1059
5328,991,1057
5329,989,1056
5330,985,1051
5331,982,1053
5332,979,1056
5333,975,1054
5334,973,1055
5335,970,1056
5336,970,1057
5337,966,1056
5338,966,1057
5339,964,1054
5340,964,1052
5341,963,1053
5342,963,1052
5343,962,1052
5344,961,1054
5345,962,1056
5346,964,1056
5347,962,1057
5348,962,1059
5349,963,1058
5350,963,1058
5351,964,1058
5352,963,1058
5353,961,1053
5354,961,1052
5355,961,1055
5356,961,1056
5357,962,1058
5358,964,1061
5359,966,1062
5360,967,1064
5361,966,1067
5362,966,1072
5363,963,1080
5364,958,1083
5365,948,1086
5366,937,1084
5367,923,1079
5368,913,1076
5369,909,1070
5370,926,1062
5371,956,1050
5372,1011,1041
5373,1076,1032
5374,1149,1028
5375,1218,1023
5376,1279,1023
5377,1317,1022
5378,1316,1022
5379,1271,1024
5380,1186,1031
5381,1087,1045
5382,1003,1073
5383,950,1109
5384,926,1144
5385,922,1176
5386,923,1200
5387,921,1214
5388,909,1223
5389,888,1228
5390,863,1235
5391,839,1236
5392,821,1242
5393,810,1239
5394,808,1232
5395,813,1223
5396,821,1208
5397,835,1191
5398,853,1171
5399,869,1149
5400,884,1128
5401,902,1107
5402,915,1095
5403,928,1082
5404,938,1075
5405,948,1070
5406,952,1074
5407,956,1073
5408,961,1069
5409,962,1068
5410,963,1064
5411,965,1061
5412,962,1059
5413,964,1058
5414,963,1054
5415,965,1054
5416,966,1055
5417,966,1053
5418,970,1053
5419,971,1056
5420,972,1055
5421,972,1054
5422,974,1052
5423,975,1052
5424,972,1049
5425,971,1050
5426,970,1050
5427,972,1049
5428,973,1049
5429,972,1053
5430,974,1053
5431,977,1053
5432,979,1052
5433,980,1051
5434,981,1050
5435,980,1047
5436,980,1048
5437,977,1048
5438,978,1046
5439,979,1048
5440,979,1049
5441,979,1046
5442,980,1047
5443,984,1049
5444,986,1048
5445,988,1048
5446,988,1047
5447,990,1045
5448,989,1042
5449,988,1042
5450,989,1040
5451,989,1042
5452,992,1044
5453,992,1044
5454,994,1043
5455,997,1043
5456,999,1046
5457,999,1042
5458,999,1040
5459,998,1038
5460,1001,1037
5461,1000,1039
5462,1001,1040
5463,1003,1038
5464,1004,1039
5465,1008,1038
5466,1012,1037
5467,1012,1038
5468,1015,1039
5469,1019,1038
5470,1020,1035
5471,1020,1034
5472,1019,1033
5473,1021,1031
5474,1023,1032
5475,1022,1029
5476,1025,1030
5477,1026,1032
5478,1030,1031
5479,1033,1030
5480,1041,1029
5481,1041,1028
5482,1045,1025
5483,1047,1025
5484,1050,1024
5485,1051,1021
5486,1052,1021
5487,1057,1020
5488,1057,1017
5489,1060,1020
5490,1062,1025
5491,1062,1024
5492,1069,1022
5493,1069,1021
5494,1070,1019
5495,1074,1018
5496,1074,1017
5497,1074,1015
5498,1074,1015
5499,1077,1014
5500,1078,1017
5501,1080,1018
5502,1084,1019
5503,1086,1020
5504,1088,1019
5505,1089,1020
5506,1090,1021
5507,1089,1019
5508,1089,1018
5509,1085,1019
5510,1083,1018
5511,1082,1020
5512,1079,1023
5513,1078,1025
5514,1075,1025
5515,1075,1032
5516,1074,1031
5517,1069,1032
5518,1069,1032
5519,1065,1030
5520,1062,1032
5521,1058,1035
5522,1052,1036
5523,1049,1039
5524,1045,1040
5525,1040,1043
5526,1036,1046
5527,1033,1048
5528,1030,1050
5529,1024,1050
5530,1021,1051
5531,1017,1051
5532,1017,1052
5533,1014,1050
5534,1010,1054
5535,1005,1054
5536,1003,1056
5537,999,1058
5538,997,1058
5539,993,1060
5540,996,1062
5541,994,1063
5542,994,1061
5543,993,1059
5544,991,1062
5545,990,1059
5546,986,1061
5547,983,1061
5548,980,1065
5549,978,1063
5550,978,1066
5551,979,1067
5552,981,1071
5553,983,1067
5554,984,1068
5555,982,1065
5556,981,1064
5557,978,1062
5558,977,1063
5559,977,1063
5560,975,1062
5561,977,1065
5562,981,1065
5563,980,1068
5564,980,1069
5565,981,1071
5566,980,1067
5567,977,1064
5568,976,1063
5569,977,1062
5570,977,1063
5571,979,1063
5572,979,1063
5573,980,1066
5574,983,1065
5575,983,1067
5576,982,1067
5577,983,1064
5578,979,1066
5579,978,1064
5580,973,1061
5581,976,1061
5582,975,1059
5583,976,1059
5584,978,1058
5585,982,1063
5586,983,1063
5587,986,1065
5588,986,1064
5589,984,1061
5590,982,1064
5591,978,1061
5592,976,1063
5593,976,1059
5594,973,1058
5595,973,1059
5596,972,1060
5597,973,1060
5598,972,1060
5599,973,1063
5600,975,1063
5601,974,1062
5602,976,1063
5603,974,1060
5604,974,1061
5605,969,1058
5606,970,1057
5607,968,1057
5608,966,1057
5609,969,1059
5610,969,1060
5611,970,1062
5612,971,1063
5613,972,1061
5614,975,1060
5615,974,1059
5616,972,1058
5617,971,1054
5618,967,1054
5619,965,1055
5620,965,1058
5621,967,1058
5622,967,1058
5623,970,1060
5624,971,1060
5625,970,1061
5626,971,1060
5627,968,1058
5628,968,1060
5629,966,1056
5630,966,1056
5631,964,1056
5632,964,1057
5633,965,1059
5634,964,1063
5635,966,1062
5636,968,1063
5637,969,1063
5638,969,1062
5639,970,1059
5640,970,1060
5641,964,1057
5642,961,1055
5643,961,1057
5644,960,1057
5645,962,1057
5646,963,1059
5647,964,1060
5648,969,1059
5649,967,1059
5650,967,1058
5651,968,1061
5652,964,1060
5653,963,1057
5654,963,1055
5655,964,1053
5656,964,1056
5657,966,1059
5658,966,1060
5659,964,1062
5660,968,1064
5661,965,1061
5662,966,1063
5663,965,1065
5664,963,1064
5665,964,1065
5666,964,1066
5667,963,1069
5668,966,1070
5669,971,1071
5670,973,1071
5671,978,1071
5672,980,1070
5673,982,1067
5674,980,1064
5675,979,1063
5676,981,1062
5677,985,1060
5678,986,1057
5679,994,1060
5680,999,1059
5681,1001,1059
5682,1002,1061
5683,1000,1060
5684,999,1058
5685,997,1058
5686,994,1056
5687,992,1053
5688,991,1053
5689,987,1055
5690,985,1055
5691,983,1054
5692,980,1054
5693,975,1053
5694,972,1055
5695,968,1052
5696,967,1053
5697,963,1053
5698,963,1054
5699,963,1053
5700,966,1049
5701,963,1046
5702,959,1051
5703,957,1050
5704,958,1052
5705,953,1051
5706,953,1052
5707,954,1054
5708,956,1056
5709,957,1057
5710,957,1057
5711,959,1056
5712,958,1054
5713,956,1052
5714,958,1053
5715,957,1052
5716,956,1052
5717,957,1055
5718,958,1055
5719,959,1057
5720,958,1056
5721,955,1057
5722,953,1059
5723,955,1059
5724,953,1059
5725,956,1065
5726,956,1072
5727,957,1077
5728,951,1080
5729,940,1078
5730,927,1077
5731,917,1070
5732,915,1061
5733,931,1047
5734,967,1033
5735,1024,1019
5736,1095,1015
5737,1177,1015
5738,1249,1021
5739,1298,1030
5740,1314,1038
5741,1282,1042
5742,1202,1046
5743,1098,1050
5744,998,1067
5745,927,1093
5746,896,1120
5747,891,1150
5748,896,1174
5749,902,1192
5750,901,1205
5751,888,1213
5752,871,1222
5753,846,1228
5754,831,1234
5755,820,1240
5756,814,1238
5757,815,1233
5758,816,1223
5759,824,1211
5760,831,1197
5761,844,1181
5762,858,1167
5763,871,1149
5764,883,1124
5765,897,1105
5766,913,1088
5767,926,1076
5768,938,1068
5769,946,1062
5770,950,1063
5771,954,1062
5772,953,1060
5773,956,1057
5774,957,1053
5775,961,1049
5776,961,1050
5777,964,1053
5778,967,1051
5779,967,1053
5780,968,1052
5781,968,1050
5782,968,1049
5783,970,1047
5784,970,1048
5785,971,1048
5786,970,1048
5787,972,1047
5788,972,1048
5789,969,1050
5790,974,1049
5791,974,1049
5792,975,1049
5793,977,1047
5794,978,1046
5795,978,1045
5796,977,1043
5797,976,1042
5798,973,1042
5799,977,1040
5800,978,1041
5801,978,1042
5802,979,1043
5803,981,1045
5804,984,1046
5805,988,1046
5806,990,1043
5807,989,1042
5808,987,1040
5809,984,1040
5810,984,1035
5811,982,1037
5812,985,1035
5813,988,1037
5814,989,1041
5815,989,1041
5816,989,1040
5817,993,1039
5818,993,1038
5819,995,1035
5820,1001,1036
5821,1002,1034
5822,1001,1033
5823,1002,1032
5824,1000,1033
5825,1001,1033
5826,1003,1031
5827,1005,1032
5828,1009,1031
5829,1012,1031
5830,1012,1032
5831,1015,1028
5832,1016,1027
5833,1013,1025
5834,1014,1023
5835,1017,1025
5836,1020,1024
5837,1023,1026
5838,1027,1026
5839,1030,1026
5840,1033,1024
5841,1034,1021
5842,1033,1019
5843,1032,1015
5844,1034,1013
5845,1035,1012
5846,1037,1012
5847,1042,1010
5848,1040,1008
5849,1044,1009
5850,1045,1008
5851,1048,1010
5852,1049,1008
5853,1054,1008
5854,1057,1007
5855,1059,1006
5856,1063,1005
5857,1062,1004
5858,1059,1001
5859,1058,1002
5860,1061,1003
5861,1063,1001
5862,1066,1002
5863,1070,1006
5864,1075,1006
5865,1079,1006
5866,1079,1007
5867,1080,1004
5868,1078,1004
5869,1075,1007
5870,1071,1004
5871,1070,1007
5872,1069,1009
5873,1067,1014
5874,1069,1018
5875,1067,1022
5876,1067,1026
5877,1063,1029
5878,1058,1029
5879,1051,1032
5880,1046,1030
5881,1042,1035
5882,1037,1032
5883,1033,1036
5884,1028,1041
5885,1024,1045
5886,1017,1048
5887,1011,1049
5888,1014,1051
5889,1012,1054
5890,1009,1054
5891,1005,1056
5892,1004,1055
5893,997,1056
5894,993,1058
5895,990,1057
5896,986,1059
5897,984,1061
5898,982,1063
5899,983,1066
5900,985,1067
5901,984,1065
5902,984,1065
5903,982,1063
5904,980,1062
5905,978,1062
5906,978,1059
5907,976,1062
5908,976,1064
5909,978,1064
5910,979,1066
5911,981,1063
5912,984,1064
5913,981,1064
5914,986,1063
5915,984,1064
5916,983,1063
5917,982,1061
5918,982,1062
5919,981,1060
5920,980,1060
5921,982,1061
5922,983,1061
5923,984,1062
5924,986,1062
5925,986,1061
5926,985,1061
5927,985,1061
5928,985,1058
5929,982,1056
5930,980,1053
5931,979,1055
5932,979,1055
5933,979,1054
5934,979,1060
5935,979,1060
5936,982,1059
5937,980,1061
5938,981,1059
5939,977,1058
5940,976,1059
5941,974,1057
5942,972,1055
5943,971,1053
5944,971,1055
5945,971,1053
5946,973,1056
5947,973,1056
5948,973,1058
5949,974,1056
5950,975,1055
5951,973,1053
5952,971,1052
5953,970,1048
5954,970,1046
5955,967,1051
5956,966,1051
5957,963,1050
5958,965,1053
5959,965,1053
5960,966,1052
5961,965,1050
5962,968,1051
5963,967,1050
5964,966,1048
5965,966,1046
5966,965,1048
5967,963,1049
5968,963,1050
5969,964,1051
5970,963,1050
5971,963,1050
5972,965,1054
5973,966,1053
5974,964,1051
5975,966,1051
5976,962,1049
5977,962,1048
5978,961,1048
5979,958,1048
5980,957,1049
5981,961,1052
5982,962,1054
5983,963,1057
5984,966,1061
5985,967,1061
5986,970,1062
5987,970,1063
5988,970,1061
5989,972,1062
5990,970,1061
5991,970,1058
5992,972,1057
5993,978,1061
5994,980,1062
5995,980,1063
5996,984,1061
5997,986,1059
5998,988,1056
5999,992,1054
6000,994,1052
6001,998,1049
6002,999,1046
6003,996,1049
6004,997,1046
6005,997,1049
6006,996,1047
6007,993,1047
6008,992,1047
6009,994,1048
6010,992,1049
6011,988,1048
6012,985,1045
6013,978,1042
6014,975,1043
6015,973,1040
6016,969,1040
6017,966,1040
6018,963,1043
6019,964,1044
6020,962,1045
6021,963,1041
6022,963,1041
6023,961,1039
6024,961,1037
6025,958,1038
6026,957,1037
6027,955,1037
6028,955,1038
6029,955,1040
6030,957,1040
6031,958,1042
6032,960,1043
6033,958,1044
6034,959,1042
6035,957,1042
6036,956,1041
6037,954,1040
6038,953,1040
6039,952,1040
6040,953,1043
6041,955,1044
6042,955,1044
6043,955,1047
6044,958,1050
6045,956,1054
6046,955,1059
6047,952,1066
6048,946,1069
6049,936,1069
6050,921,1064
6051,909,1059
6052,904,1049
6053,914,1034
6054,950,1022
6055,1007,1015
6056,1081,1008
6057,1162,1005
6058,1237,1009
6059,1295,1010
6060,1313,1010
6061,1280,1012
6062,1201,1018
6063,1100,1032
6064,1007,1059
6065,944,1091
6066,913,1128
6067,906,1158
6068,905,1183
6069,904,1197
6070,893,1208
6071,875,1214
6072,852,1222
6073,830,1225
6074,814,1224
6075,805,1220
6076,805,1208
6077,809,1194
6078,818,1176
6079,835,1159
6080,851,1140
6081,872,1120
6082,890,1099
6083,908,1084
6084,920,1067
6085,932,1055
6086,936,1049
6087,940,1047
6088,944,1044
6089,949,1046
6090,952,1044
6091,952,1043
6092,957,1043
6093,961,1042
6094,961,1039
6095,960,1039
6096,960,1034
6097,961,1032
6098,959,1031
6099,959,1031
6100,959,1032
6101,961,1031
6102,963,1034
6103,966,1034
6104,968,1036
6105,967,1035
6106,966,1034
6107,967,1031
6108,969,1029
6109,969,1029
6110,967,1027
6111,966,1028
6112,969,1030
6113,965,1030
6114,969,1032
6115,970,1032
6116,973,1030
6117,976,1029
6118,976,1029
6119,978,1027
6120,976,1026
6121,977,1025
6122,975,1024
6123,975,1025
6124,975,1026
6125,978,1024
6126,980,1026
6127,983,1026
6128,986,1028
6129,987,1024
6130,987,1026
6131,988,1022
6132,987,1023
6133,989,1020
6134,988,1021
6135,990,1019
6136,991,1020
6137,995,1022
6138,996,1022
6139,999,1021
6140,1004,1023
6141,1006,1018
6142,1007,1021
6143,1007,1018
6144,1007,1016
6145,1010,1017
6146,1011,1014
6147,1011,1013
6148,1012,1011
6149,1016,1013
6150,1017,1014
6151,1021,1014
6152,1028,1013
6153,1028,1011
6154,1032,1010
6155,1032,1008
6156,1034,1006
6157,1036,1002
6158,1037,1004
6159,1040,1003
6160,1041,1001
6161,1046,1002
6162,1047,1001
6163,1049,1005
6164,1053,1004
6165,1054,1004
6166,1058,1001
6167,1056,999
6168,1060,1001
6169,1058,1000
6170,1059,997
6171,1059,998
6172,1062,998
6173,1064,1003
6174,1067,1002
6175,1069,1003
6176,1071,1003
6177,1073,1005
6178,1076,1005
6179,1074,1005
6180,1072,1003
6181,1073,1004
6182,1071,1002
6183,1070,1005
6184,1069,1007
6185,1068,1009
6186,1066,1011
6187,1064,1015
6188,1064,1018
6189,1060,1018
6190,1056,1021
6191,1049,1021
6192,1047,1019
6193,1041,1023
6194,1037,1022
6195,1033,1025
6196,1030,1027
6197,1027,1031
6198,1023,1031
6199,1017,1036
6200,1013,1039
6201,1011,1041
6202,1007,1040
6203,1004,1040
6204,1000,1040
6205,998,1038
6206,995,1036
6207,990,1039
6208,987,1041
6209,984,1042
6210,982,1044
6211,982,1048
6212,981,1047
6213,981,1050
6214,980,1048
6215,978,1048
6216,977,1046
6217,974,1045
6218,974,1046
6219,971,1044
6220,971,1044
6221,972,1045
6222,969,1046
6223,971,1049
6224,972,1048
6225,973,1049
6226,974,1049
6227,973,1048
6228,970,1047
6229,971,1046
6230,972,1043
6231,970,1046
6232,971,1046
6233,972,1045
6234,971,1047
6235,972,1049
6236,973,1049
6237,977,1049
6238,977,1049
6239,977,1048
6240,975,1045
6241,976,1045
6242,976,1041
6243,975,1043
6244,975,1044
6245,977,1044
6246,977,1047
6247,978,1048
6248,980,1049
6249,981,1045
6250,980,1047
6251,978,1047
6252,978,1045
6253,976,1042
6254,975,1041
6255,972,1043
6256,975,1042
6257,976,1041
6258,975,1045
6259,977,1045
6260,976,1044
6261,978,1044
6262,975,1046
6263,975,1043
6264,973,1042
6265,971,1041
6266,970,1040
6267,971,1041
6268,969,1041
6269,967,1045
6270,968,1044
6271,968,1046
6272,969,1045
6273,973,1043
6274,971,1046
6275,972,1044
6276,969,1042
6277,969,1040
6278,967,1042
6279,965,1040
6280,966,1041
6281,964,1042
6282,965,1043
6283,965,1042
6284,969,1044
6285,967,1044
6286,967,1042
6287,967,1044
6288,963,1038
6289,962,1036
6290,964,1038
6291,962,1038
6292,962,1040
6293,962,1042
6294,962,1044
6295,964,1043
6296,962,1044
6297,961,1043
6298,962,1042
6299,964,1042
6300,963,1039
6301,962,1041
6302,961,1037
6303,961,1040
6304,961,1039
6305,960,1037
6306,962,1041
6307,962,1037
6308,963,1042
6309,964,1044
6310,964,1040
6311,964,1041
6312,963,1039
6313,962,1039
6314,962,1036
6315,960,1037
6316,961,1038
6317,961,1040
6318,959,1039
6319,961,1041
6320,963,1042
6321,964,1041
6322,963,1042
6323,964,1038
6324,963,1038
6325,962,1039
6326,960,1036
6327,961,1037
6328,963,1037
6329,964,1039
6330,964,1039
6331,965,1040
6332,966,1043
6333,967,1042
6334,965,1042
6335,965,1041
6336,963,1041
6337,963,1036
6338,962,1037
6339,960,1036
6340,961,1040
6341,962,1042
6342,964,1046
6343,964,1048
6344,968,1050
6345,970,1053
6346,972,1055
6347,974,1056
6348,973,1056
6349,974,1053
6350,973,1051
6351,974,1050
6352,977,1047
6353,978,1048
6354,978,1048
6355,981,1046
6356,988,1045
6357,992,1044
6358,995,1045
6359,998,1039
6360,997,1040
6361,999,1036
6362,1000,1037
6363,997,1036
6364,995,1033
6365,994,1036
6366,992,1037
6367,989,1041
6368,989,1043
6369,988,1041
6370,983,1042
6371,981,1038
6372,976,1035
6373,972,1032
6374,966,1033
6375,965,1030
6376,962,1033
6377,962,1036
6378,958,1036
6379,959,1035
6380,961,1035
6381,962,1035
6382,961,1035
6383,961,1035
6384,960,1033
6385,958,1029
6386,955,1030
6387,955,1030
6388,957,1031
6389,957,1034
6390,958,1035
6391,957,1035
6392,961,1039
6393,963,1040
6394,961,1039
6395,962,1041
6396,960,1038
6397,960,1040
6398,957,1043
6399,957,1043
6400,957,1050
6401,954,1061
6402,951,1065
6403,945,1070
6404,933,1071
6405,923,1063
6406,910,1056
6407,914,1044
6408,936,1027
6409,981,1015
6410,1043,1006
6411,1121,1002
6412,1200,1001
6413,1271,1001
6414,1317,1006
6415,1326,1008
6416,1289,1010
6417,1205,1015
6418,1105,1031
6419,1014,1055
6420,951,1087
6421,921,1119
6422,915,1150
6423,915,1171
6424,916,1189
6425,911,1200
6426,893,1207
6427,871,1212
6428,846,1223
6429,827,1222
6430,811,1219
6431,803,1211
6432,804,1199
6433,807,1185
6434,820,1168
6435,833,1149
6436,851,1131
6437,868,1111
6438,885,1095
6439,906,1077
6440,921,1067
6441,935,1057
6442,941,1054
6443,945,1050
6444,950,1046
6445,952,1044
6446,952,1039
6447,953,1038
6448,954,1040
6449,954,1040
6450,958,1038
6451,958,1040
6452,963,1037
6453,964,1037
6454,966,1036
6455,966,1035
6456,966,1033
6457,965,1032
6458,964,1030
6459,964,1030
6460,964,1032
6461,966,1035
6462,967,1034
6463,969,1035
6464,971,1033
6465,974,1032
6466,973,1032
6467,972,1031
6468,973,1028
6469,971,1028
6470,972,1028
6471,971,1027
6472,971,1028
6473,973,1030
6474,974,1030
6475,974,1031
6476,978,1032
6477,979,1029
6478,979,1032
6479,980,1029
6480,978,1028
6481,978,1025
6482,978,1025
6483,976,1027
6484,979,1024
6485,980,1025
6486,982,1028
6487,982,1031
6488,985,1028
6489,989,1027
6490,989,1026
6491,991,1025
6492,990,1023
6493,990,1021
6494,990,1020
6495,992,1020
6496,991,1020
6497,993,1023
6498,999,1023
6499,1000,1022
6500,1001,1022
6501,1004,1022
6502,1006,1019
6503,1009,1017
6504,1009,1018
6505,1011,1017
6506,1011,1016
6507,1013,1013
6508,1014,1014
6509,1015,1015
6510,1017,1016
6511,1021,1015
6512,1023,1014
6513,1028,1014
6514,1030,1012
6515,1032,1012
6516,1033,1007
6517,1036,1007
6518,1036,1004
6519,1037,1004
6520,1040,1004
6521,1045,1002
6522,1046,1003
6523,1050,1002
6524,1053,1003
6525,1055,1004
6526,1058,1001
6527,1059,999
6528,1061,998
6529,1062,997
6530,1063,996
6531,1061,993
6532,1065,997
6533,1068,997
6534,1068,998
6535,1072,999
6536,1073,1001
6537,1077,1000
6538,1077,999
6539,1081,1001
6540,1079,997
6541,1079,998
6542,1078,995
6543,1078,996
6544,1078,998
6545,1080,1000
6546,1082,1002
6547,1084,1002
6548,1084,1005
6549,1085,1006
6550,1082,1010
6551,1078,1010
6552,1075,1010
6553,1071,1008
6554,1065,1010
6555,1061,1011
6556,1055,1014
6557,1050,1020
6558,1048,1021
6559,1043,1022
6560,1040,1024
6561,1037,1024
6562,1035,1025
6563,1032,1029
6564,1028,1028
6565,1022,1026
6566,1016,1030
6567,1013,1029
6568,1012,1034
6569,1007,1034
6570,1004,1036
6571,1002,1037
6572,1001,1038
6573,1000,1038
6574,995,1041
6575,994,1040
6576,993,1040
6577,990,1038
6578,986,1037
6579,983,1036
6580,980,1037
6581,981,1041
6582,982,1041
6583,984,1041
6584,986,1044
6585,987,1047
6586,985,1046
6587,984,1045
6588,980,1044
6589,979,1043
6590,977,1043
6591,975,1041
6592,973,1043
6593,975,1043
6594,977,1044
6595,980,1046
6596,979,1045
6597,979,1046
6598,980,1048
6599,981,1047
6600,979,1047
6601,978,1044
6602,977,1041
6603,978,1042
6604,979,1046
6605,978,1043
6606,979,1045
6607,980,1047
6608,979,1047
6609,979,1044
6610,978,1045
6611,978,1042
6612,976,1043
6613,976,1042
6614,976,1040
6615,975,1042
6616,974,1043
6617,974,1043
6618,974,1043
6619,975,1044
6620,978,1043
6621,979,1042
6622,976,1045
6623,974,1045
6624,970,1039
6625,971,1038
6626,970,1037
6627,970,1039
6628,970,1037
6629,970,1038
6630,972,1039
6631,973,1038
6632,978,1042
6633,977,1040
6634,974,1042
6635,972,1040
6636,968,1039
6637,967,1038
6638,965,1035
6639,963,1035
6640,962,1033
6641,963,1036
6642,966,1039
6643,965,1042
6644,965,1042
6645,969,1040
6646,969,1039
6647,969,1040
6648,970,1036
6649,967,1035
6650,969,1034
6651,967,1035
6652,965,1036
6653,966,1036
6654,965,1037
6655,966,1037
6656,968,1038
6657,969,1038
6658,965,1039
6659,963,1036
6660,962,1035
6661,960,1032
6662,961,1033
6663,960,1031
6664,960,1032
6665,963,1033
6666,964,1034
6667,966,1038
6668,968,1038
6669,965,1038
6670,962,1036
6671,962,1034
6672,957,1033
6673,956,1032
6674,958,1033
6675,961,1033
6676,959,1033
6677,961,1034
6678,963,1036
6679,961,1035
6680,960,1037
6681,960,1038
6682,960,1036
6683,959,1034
6684,957,1034
6685,957,1033
6686,957,1033
6687,957,1032
6688,956,1031
6689,956,1032
6690,958,1036
6691,960,1035
6692,963,1037
6693,965,1037
6694,963,1036
6695,962,1035
6696,960,1035
6697,961,1033
6698,956,1035
6699,956,1032
6700,958,1034
6701,959,1035
6702,959,1033
6703,959,1035
6704,959,1036
6705,960,1036
6706,961,1036
6707,960,1032
6708,963,1032
6709,959,1029
6710,959,1030
6711,958,1030
6712,959,1032
6713,957,1032
6714,959,1034
6715,960,1035
6716,962,1036
6717,960,1037
6718,960,1036
6719,961,1037
6720,961,1037
6721,959,1038
6722,955,1038
6723,958,1042
6724,959,1042
6725,964,1045
6726,968,1050
6727,972,1048
6728,974,1050
6729,976,1048
6730,973,1046
6731,973,1044
6732,974,1039
6733,971,1038
6734,969,1037
6735,973,1034
6736,977,1036
6737,982,1038
6738,988,1037
6739,993,1036
6740,999,1039
6741,1000,1038
6742,999,1037
6743,998,1035
6744,994,1030
6745,991,1028
6746,991,1025
6747,984,1026
6748,982,1025
6749,980,1031
6750,979,1034
6751,977,1035
6752,975,1036
6753,976,1034
6754,975,1032
6755,971,1029
6756,966,1030
6757,960,1029
6758,957,1028
6759,955,1025
6760,954,1024
6761,953,1027
6762,954,1029
6763,953,1031
6764,954,1032
6765,954,1032
6766,953,1029
6767,954,1030
6768,953,1028
6769,953,1026
6770,951,1025
6771,951,1026
6772,949,1029
6773,950,1030
6774,954,1030
6775,955,1030
6776,956,1031
6777,958,1031
6778,955,1031
6779,955,1030
6780,953,1031
6781,953,1031
6782,950,1032
6783,949,1033
6784,949,1042
6785,948,1049
6786,947,1053
6787,943,1060
6788,941,1062
6789,929,1057
6790,915,1048
6791,909,1037
6792,918,1020
6793,947,1007
6794,1000,995
6795,1068,990
6796,1151,993
6797,1228,1005
6798,1290,1015
6799,1319,1021
6800,1301,1026
6801,1231,1028
6802,1124,1035
6803,1015,1051
6804,934,1079
6805,890,1111
6806,877,1137
6807,884,1161
6808,890,1179
6809,890,1192
6810,882,1202
6811,866,1211
6812,841,1217
6813,823,1219
6814,810,1217
6815,803,1211
6816,804,1197
6817,810,1183
6818,819,1170
6819,837,1152
6820,857,1130
6821,874,1110
6822,893,1085
6823,910,1068
6824,925,1056
6825,939,1046
6826,950,1043
6827,953,1041
6828,954,1040
6829,953,1038
6830,950,1035
6831,951,1034
6832,952,1033
6833,956,1032
6834,961,1031
6835,965,1032
6836,966,1033
6837,965,1030
6838,967,1029
6839,966,1029
6840,968,1026
6841,966,1025
6842,964,1024
6843,966,1024
6844,965,1025
6845,966,1026
6846,966,1023
6847,968,1024
6848,970,1026
6849,972,1026
6850,974,1025
6851,977,1024
6852,977,1022
6853,975,1021
6854,972,1020
6855,972,1019
6856,973,1020
6857,974,1023
6858,977,1021
6859,980,1022
6860,981,1020
6861,980,1021
6862,981,1022
6863,982,1019
6864,982,1016
6865,985,1016
6866,986,1015
6867,986,1014
6868,988,1016
6869,987,1015
6870,990,1015
6871,993,1018
6872,995,1016
6873,996,1017
6874,998,1016
6875,1000,1013
6876,998,1012
6877,996,1011
6878,996,1010
6879,996,1007
6880,999,1008
6881,1001,1008
6882,1007,1008
6883,1008,1009
6884,1011,1010
6885,1014,1009
6886,1015,1007
6887,1016,1005
6888,1015,1002
6889,1014,1000
6890,1016,1000
6891,1014,997
6892,1017,998
6893,1020,997
6894,1024,996
6895,1028,996
6896,1032,999
6897,1033,996
6898,1038,995
6899,1040,992
6900,1040,992
6901,1040,990
6902,1042,988
6903,1042,991
6904,1042,990
6905,1043,990
6906,1046,990
6907,1050,988
6908,1055,991
6909,1060,992
6910,1064,991
6911,1064,987
6912,1063,987
6913,1063,986
6914,1063,986
6915,1061,986
6916,1063,987
6917,1064,988
6918,1069,987
6919,1070,986
6920,1073,989
6921,1076,992
6922,1079,993
6923,1077,997
6924,1075,997
6925,1072,997
6926,1067,998
6927,1064,1001
6928,1057,1001
6929,1055,1007
6930,1050,1009
6931,1047,1011
6932,1043,1016
6933,1042,1017
6934,1041,1018
6935,1036,1020
6936,1035,1021
6937,1028,1022
6938,1022,1022
6939,1016,1022
6940,1011,1027
6941,1009,1028
6942,1007,1031
6943,1004,1032
6944,1004,1036
6945,1003,1039
6946,1000,1039
6947,996,1040
6948,992,1039
6949,987,1040
6950,984,1039
6951,979,1040
6952,979,1041
6953,978,1042
6954,977,1041
6955,978,1043
6956,978,1045
6957,982,1046
6958,979,1043
6959,980,1043
6960,977,1042
6961,973,1043
6962,972,1042
6963,973,1041
6964,973,1043
6965,972,1042
6966,973,1043
6967,975,1042
6968,974,1043
6969,981,1045
6970,979,1043
6971,979,1043
6972,978,1039
6973,978,1040
6974,977,1038
6975,977,1037
6976,976,1039
6977,977,1038
6978,979,1040
6979,979,1040
6980,980,1043
6981,981,1041
6982,981,1040
6983,982,1039
6984,979,1036
6985,977,1034
6986,974,1034
6987,975,1034
6988,975,1037
6989,975,1036
6990,976,1037
6991,975,1038
6992,975,1039
6993,975,1041
6994,973,1037
6995,970,1039
6996,971,1038
6997,969,1036
6998,970,1034
6999,965,1033
7000,965,1034
7001,965,1034
7002,965,1037
7003,965,1037
7004,966,1035
7005,968,1038
7006,964,1036
7007,964,1036
7008,963,1034
7009,961,1032
7010,963,1030
7011,961,1028
7012,959,1030
7013,960,1033
7014,957,1032
7015,956,1033
7016,958,1034
7017,961,1033
7018,960,1032
7019,961,1030
7020,956,1029
7021,956,1028
7022,954,1026
7023,954,1027
7024,952,1028
7025,955,1031
7026,955,1031
7027,957,1030
7028,956,1033
7029,960,1033
7030,960,1031
7031,962,1033
7032,957,1030
7033,958,1029
7034,956,1026
7035,954,1025
7036,951,1026
7037,950,1026
7038,951,1028
7039,953,1027
7040,958,1029
7041,959,1028
7042,959,1032
7043,958,1029
7044,957,1029
7045,956,1028
7046,954,1030
7047,953,1032
7048,953,1029
7049,953,1032
7050,952,1035
7051,957,1038
7052,960,1041
7053,963,1043
7054,964,1044
7055,967,1043
7056,968,1039
7057,968,1036
7058,966,1033
7059,966,1033
7060,967,1032
7061,969,1034
7062,973,1032
7063,975,1031
7064,981,1032
7065,985,1030
7066,989,1030
7067,992,1031
7068,993,1025
7069,989,1027
7070,987,1022
7071,984,1021
7072,980,1020
7073,979,1021
7074,976,1024
7075,976,1028
7076,975,1028
7077,974,1028
7078,972,1024
7079,969,1023
7080,960,1022
7081,956,1021
7082,953,1018
7083,949,1021
7084,947,1020
7085,947,1020
7086,946,1023
7087,949,1025
7088,949,1025
7089,951,1025
7090,949,1022
7091,949,1023
7092,948,1020
7093,945,1019
7094,942,1017
7095,941,1018
7096,941,1020
7097,942,1019
7098,941,1021
7099,942,1024
7100,945,1025
7101,945,1023
7102,945,1024
7103,948,1024
7104,948,1022
7105,947,1023
7106,946,1023
7107,943,1027
7108,944,1033
7109,942,1042
7110,939,1053
7111,930,1055
7112,920,1052
7113,906,1045
7114,898,1032
7115,910,1017
7116,946,1002
7117,1005,988
7118,1086,984
7119,1169,984
7120,1244,988
7121,1294,993
7122,1299,997
7123,1248,1002
7124,1156,1015
7125,1053,1039
7126,969,1070
7127,920,1105
7128,897,1137
7129,890,1159
7130,888,1176
7131,881,1187
7132,866,1194
7133,846,1202
7134,826,1204
7135,808,1208
7136,798,1204
7137,796,1191
7138,799,1176
7139,811,1157
7140,824,1136
7141,839,1113
7142,857,1093
7143,875,1072
7144,894,1059
7145,907,1045
7146,919,1038
7147,930,1035
7148,936,1034
7149,941,1031
7150,944,1030
7151,945,1028
7152,946,1023
7153,947,1020
7154,947,1018
7155,948,1017
7156,948,1015
7157,950,1016
7158,952,1016
7159,953,1018
7160,955,1017
7161,960,1017
7162,960,1016
7163,959,1013
7164,956,1012
7165,957,1012
7166,954,1009
7167,956,1011
7168,957,1010
7169,958,1010
7170,958,1013
7171,959,1013
7172,962,1014
7173,963,1014
7174,964,1013
7175,964,1013
7176,964,1011
7177,964,1009
7178,963,1008
7179,961,1006
7180,963,1009
7181,963,1009
7182,966,1007
7183,970,1005
7184,970,1010
7185,972,1011
7186,974,1009
7187,976,1010
7188,977,1007
7189,973,1003
7190,975,1003
7191,973,1001
7192,973,1003
7193,975,1005
7194,979,1004
7195,982,1004
7196,985,1005
7197,988,1005
7198,989,1004
7199,989,1000
7200,989,1002
7201,990,999
7202,992,998
7203,991,997
7204,993,997
7205,997,998
7206,999,998
7207,1003,996
7208,1004,1000
7209,1007,999
7210,1011,997
7211,1012,995
7212,1013,993
7213,1015,991
7214,1016,987
7215,1018,987
7216,1019,987
7217,1020,986
7218,1022,988
7219,1026,990
7220,1031,988
7221,1031,987
7222,1036,988
7223,1039,985
7224,1040,983
7225,1044,981
7226,1045,979
7227,1045,980
7228,1044,977
7229,1048,981
7230,1050,980
7231,1052,983
7232,1057,984
7233,1055,986
7234,1056,985
7235,1060,985
7236,1061,983
7237,1062,983
7238,1063,981
7239,1062,980
7240,1062,982
7241,1063,982
7242,1064,984
7243,1064,986
7244,1066,991
7245,1064,993
7246,1064,994
7247,1063,993
7248,1060,993
7249,1057,994
7250,1051,995
7251,1046,996
7252,1044,998
7253,1039,1002
7254,1037,1005
7255,1036,1007
7256,1034,1009
7257,1030,1011
7258,1025,1010
7259,1019,1012
7260,1016,1014
7261,1009,1013
7262,1005,1012
7263,1001,1014
7264,997,1017
7265,995,1018
7266,991,1018
7267,990,1020
7268,989,1024
7269,987,1025
7270,985,1024
7271,982,1025
7272,979,1024
7273,974,1023
7274,975,1023
7275,973,1022
7276,970,1025
7277,967,1026
7278,967,1026
7279,968,1026
7280,969,1028
7281,970,1030
7282,968,1030
7283,967,1030
7284,968,1027
7285,969,1025
7286,965,1024
7287,966,1022
7288,965,1024
7289,965,1027
7290,967,1026
7291,967,1027
7292,968,1027
7293,970,1027
7294,970,1028
7295,971,1028
7296,971,1026
7297,970,1023
7298,970,1024
7299,968,1023
7300,965,1022
7301,968,1023
7302,972,1024
7303,972,1026
7304,974,1028
7305,976,1026
7306,976,1024
7307,977,1026
7308,974,1021
7309,973,1023
7310,974,1021
7311,973,1020
7312,974,1021
7313,971,1024
7314,972,1024
7315,971,1025
7316,975,1025
7317,974,1025
7318,974,1024
7319,973,1023
7320,973,1024
7321,972,1019
7322,969,1020
7323,969,1019
7324,966,1020
7325,969,1022
7326,967,1023
7327,964,1027
7328,968,1027
7329,968,1025
7330,966,1026
7331,968,1024
7332,964,1021
7333,966,1021
7334,963,1018
7335,964,1020
7336,961,1020
7337,960,1021
7338,961,1022
7339,963,1022
7340,961,1026
7341,964,1023
7342,964,1024
7343,963,1022
7344,962,1021
7345,960,1022
7346,957,1021
7347,957,1019
7348,957,1022
7349,958,1020
7350,960,1022
7351,960,1023
7352,961,1024
7353,959,1024
7354,960,1023
7355,960,1023
7356,960,1021
7357,958,1020
7358,953,1023
7359,954,1019
7360,954,1020
7361,955,1020
7362,955,1020
7363,955,1021
7364,958,1024
7365,959,1023
7366,959,1023
7367,961,1024
7368,960,1019
7369,958,1021
7370,957,1023
7371,958,1019
7372,955,1017
7373,956,1019
7374,955,1021
7375,956,1027
7376,959,1023
7377,958,1025
7378,956,1023
7379,958,1025
7380,956,1021
7381,957,1020
7382,956,1020
7383,955,1019
7384,953,1020
7385,954,1022
7386,956,1023
7387,955,1023
7388,957,1025
7389,958,1026
7390,956,1028
7391,959,1026
7392,955,1022
7393,955,1024
7394,955,1022
7395,957,1022
7396,954,1023
7397,954,1023
7398,957,1025
7399,958,1028
7400,954,1030
7401,960,1031
7402,961,1034
7403,961,1036
7404,962,1036
7405,963,1037
7406,962,1039
7407,963,1039
7408,965,1039
7409,966,1037
7410,969,1037
7411,971,1035
7412,972,1033
7413,974,1034
7414,979,1032
7415,981,1030
7416,983,1026
7417,984,1024
7418,987,1023
7419,989,1021
7420,990,1021
7421,991,1021
7422,993,1022
7423,994,1022
7424,990,1023
7425,991,1022
7426,989,1022
7427,988,1021
7428,985,1020
7429,982,1022
7430,982,1022
7431,977,1022
7432,974,1021
7433,972,1018
7434,970,1021
7435,967,1019
7436,962,1019
7437,962,1024
7438,961,1019
7439,959,1021
7440,959,1021
7441,955,1018
7442,955,1015
7443,952,1016
7444,950,1013
7445,948,1015
7446,951,1017
7447,951,1019
7448,956,1021
7449,955,1021
7450,952,1020
7451,953,1022
7452,954,1018
7453,952,1018
7454,952,1016
7455,952,1016
7456,952,1017
7457,951,1019
7458,953,1018
7459,954,1022
7460,954,1023
7461,957,1024
7462,956,1026
7463,956,1029
7464,959,1032
7465,955,1039
7466,954,1045
7467,946,1049
7468,937,1047
7469,926,1047
7470,913,1045
7471,904,1037
7472,905,1026
7473,926,1018
7474,964,1003
7475,1021,992
7476,1094,991
7477,1172,985
7478,1241,987
7479,1291,986
7480,1315,986
7481,1298,990
7482,1235,997
7483,1145,1008
7484,1049,1032
7485,976,1063
7486,933,1095
7487,917,1127
7488,918,1151
7489,917,1168
7490,911,1180
7491,898,1185
7492,876,1193
7493,853,1199
7494,831,1204
7495,812,1207
7496,801,1203
7497,799,1193
7498,803,1180
7499,812,1165
7500,823,1148
7501,834,1129
7502,849,1110
7503,864,1088
7504,884,1071
7505,900,1058
7506,915,1047
7507,926,1041
7508,937,1037
7509,945,1035
7510,947,1030
7511,953,1029
7512,954,1028
7513,956,1022
7514,953,1023
7515,952,1020
7516,952,1020
7517,955,1021
7518,958,1019
7519,958,1021
7520,962,1023
7521,965,1022
7522,968,1019
7523,967,1017
7524,966,1015
7525,966,1015
7526,966,1015
7527,965,1011
7528,965,1013
7529,966,1012
7530,967,1014
7531,968,1014
7532,969,1013
7533,971,1018
7534,971,1014
7535,972,1015
7536,973,1014
7537,973,1011
7538,970,1010
7539,970,1010
7540,973,1012
7541,974,1010
7542,975,1013
7543,975,1012
7544,978,1010
7545,980,1013
7546,978,1014
7547,977,1013
7548,980,1011
7549,977,1010
7550,979,1008
7551,977,1007
7552,980,1009
7553,980,1007
7554,982,1011
7555,983,1008
7556,986,1007
7557,986,1009
7558,988,1007
7559,990,1009
7560,990,1005
7561,991,1003
7562,996,1001
7563,995,1002
7564,997,1001
7565,998,1003
7566,999,1004
7567,1005,1004
7568,1007,1005
7569,1006,1003
7570,1011,1002
7571,1014,1001
7572,1016,1001
7573,1016,996
7574,1019,993
7575,1017,995
7576,1019,994
7577,1018,995
7578,1023,995
7579,1024,993
7580,1029,994
7581,1035,994
7582,1038,992
7583,1043,992
7584,1041,988
7585,1044,985
7586,1044,982
7587,1043,983
7588,1043,980
7589,1049,982
7590,1054,982
7591,1060,983
7592,1067,982
7593,1069,984
7594,1072,985
7595,1072,986
7596,1075,983
7597,1073,979
7598,1072,977
7599,1074,978
7600,1073,978
7601,1072,978
7602,1074,981
7603,1077,982
7604,1078,984
7605,1083,981
7606,1086,983
7607,1086,984
7608,1087,982
7609,1088,982
7610,1087,983
7611,1084,984
7612,1079,983
7613,1076,984
7614,1076,987
7615,1074,989
7616,1073,993
7617,1073,994
7618,1071,995
7619,1069,998
7620,1062,998
7621,1056,997
7622,1052,997
7623,1047,997
7624,1045,999
7625,1039,1000
7626,1034,1005
7627,1030,1009
7628,1027,1009
7629,1024,1013
7630,1021,1015
7631,1016,1017
7632,1014,1017
7633,1011,1018
7634,1010,1017
7635,1006,1020
7636,1001,1016
7637,996,1021
7638,995,1020
7639,993,1022
7640,993,1022
7641,990,1022
7642,991,1023
7643,989,1025
7644,984,1026
7645,985,1023
7646,985,1024
7647,982,1025
7648,981,1022
7649,981,1024
7650,980,1026
7651,978,1024
7652,978,1027
7653,982,1031
7654,980,1028
7655,980,1026
7656,981,1026
7657,978,1025
7658,979,1024
7659,977,1024
7660,976,1024
7661,975,1025
7662,974,1026
7663,976,1027
7664,980,1031
7665,982,1029
7666,983,1028
7667,983,1030
7668,984,1027
7669,981,1027
7670,978,1023
7671,977,1023
7672,978,1024
7673,979,1022
7674,978,1025
7675,978,1024
7676,981,1027
7677,980,1029
7678,979,1028
7679,979,1029
7680,981,1024
7681,980,1024
7682,980,1022
7683,980,1020
7684,977,1022
7685,975,1024
7686,973,1024
7687,971,1024
7688,972,1026
7689,972,1026
7690,974,1025
7691,973,1022
7692,976,1022
7693,974,1022
7694,975,1021
7695,969,1019
7696,971,1019
7697,970,1022
7698,969,1021
7699,973,1021
7700,973,1025
7701,974,1023
7702,970,1024
7703,972,1023
7704,972,1022
7705,971,1022
7706,970,1020
7707,967,1018
7708,967,1019
7709,967,1020
7710,969,1020
7711,970,1020
7712,972,1023
7713,971,1023
7714,972,1023
7715,972,1021
7716,970,1021
7717,969,1020
7718,968,1017
7719,966,1016
7720,962,1018
7721,963,1018
7722,966,1020
7723,966,1018
7724,966,1021
7725,966,1023
7726,966,1027
7727,966,1024
7728,964,1022
7729,966,1019
7730,967,1019
7731,967,1018
7732,965,1019
7733,965,1020
7734,965,1021
7735,964,1021
7736,964,1024
7737,965,1023
7738,965,1023
7739,968,1022
7740,971,1020
7741,970,1018
7742,971,1018
7743,969,1019
7744,966,1019
7745,966,1020
7746,963,1022
7747,966,1023
7748,965,1025
7749,968,1028
7750,968,1029
7751,971,1032
7752,972,1031
7753,970,1031
7754,970,1031
7755,971,1032
7756,969,1031
7757,970,1032
7758,971,1032
7759,975,1031
7760,976,1032
7761,984,1033
7762,984,1030
7763,989,1030
7764,990,1029
7765,991,1025
7766,991,1022
7767,992,1020
7768,992,1021
7769,993,1021
7770,994,1021
7771,998,1024
7772,997,1023
7773,999,1023
7774,996,1022
7775,994,1022
7776,995,1024
7777,993,1023
7778,991,1022
7779,986,1021
7780,981,1019
7781,977,1020
7782,972,1018
7783,971,1020
7784,968,1020
7785,966,1021
7786,964,1022
7787,960,1020
7788,961,1020
7789,957,1019
7790,959,1017
7791,958,1015
7792,960,1015
7793,957,1019
7794,956,1021
7795,960,1021
7796,957,1021
7797,958,1023
7798,959,1021
7799,960,1022
7800,961,1020
7801,962,1021
7802,962,1019
7803,960,1019
7804,956,1020
7805,956,1021
7806,955,1022
7807,955,1026
7808,958,1024
7809,957,1026
7810,960,1027
7811,961,1031
7812,959,1032
7813,956,1038
7814,955,1044
7815,948,1045
7816,939,1046
7817,926,1042
7818,917,1036
7819,910,1024
7820,925,1011
7821,962,998
7822,1020,991
7823,1098,988
7824,1183,993
7825,1256,1000
7826,1306,1009
7827,1314,1013
7828,1264,1019
7829,1165,1023
7830,1052,1042
7831,957,1067
7832,897,1099
7833,880,1130
7834,882,1155
7835,891,1178
7836,893,1185
7837,886,1195
7838,870,1201
7839,849,1204
7840,828,1206
7841,815,1208
7842,808,1202
7843,809,1193
7844,818,1181
7845,832,1169
7846,846,1151
7847,861,1127
7848,876,1104
7849,892,1081
7850,906,1059
7851,923,1045
7852,937,1038
7853,946,1035
7854,951,1035
7855,954,1037
7856,954,1032
7857,955,1034
7858,959,1030
7859,963,1032
7860,966,1027
7861,965,1022
7862,963,1022
7863,962,1020
7864,962,1021
7865,960,1020
7866,961,1020
7867,967,1022
7868,966,1022
7869,970,1021
7870,970,1022
7871,967,1020
7872,974,1018
7873,975,1017
7874,975,1017
7875,975,1017
7876,973,1016
7877,973,1018
7878,971,1020
7879,973,1018
7880,976,1021
7881,978,1021
7882,979,1019
7883,979,1019
7884,981,1017
7885,978,1018
7886,979,1015
7887,979,1013
7888,979,1012
7889,980,1012
7890,980,1014
7891,981,1013
7892,983,1012
7893,987,1014
7894,988,1015
7895,991,1014
7896,994,1012
7897,993,1011
7898,993,1010
7899,993,1006
7900,994,1006
7901,995,1006
7902,993,1006
7903,999,1005
7904,1001,1009
7905,1004,1010
7906,1006,1007
7907,1005,1007
7908,1008,1004
7909,1012,1006
7910,1011,999
7911,1013,998
7912,1014,997
7913,1013,996
7914,1016,998
7915,1019,998
7916,1022,998
7917,1027,997
7918,1034,997
7919,1036,996
7920,1038,993
7921,1037,990
7922,1037,989
7923,1039,986
7924,1041,986
7925,1043,986
7926,1045,989
7927,1048,987
7928,1051,985
7929,1052,986
7930,1054,987
7931,1056,985
7932,1060,984
7933,1057,985
7934,1058,981
7935,1059,980
7936,1058,979
7937,1062,980
7938,1064,982
7939,1069,981
7940,1069,986
7941,1074,988
7942,1073,986
7943,1075,986
7944,1075,985
7945,1075,985
7946,1072,988
7947,1068,986
7948,1062,990
7949,1061,994
7950,1057,999
7951,1058,1001
7952,1056,1004
7953,1052,1006
7954,1049,1008
7955,1046,1010
7956,1042,1012
7957,1038,1014
7958,1033,1013
7959,1026,1014
7960,1020,1017
7961,1017,1019
7962,1013,1021
7963,1008,1024
7964,1006,1028
7965,1005,1028
7966,1000,1031
7967,996,1034
7968,994,1031
7969,990,1030
7970,987,1029
7971,982,1031
7972,982,1033
7973,980,1032
7974,978,1037
7975,977,1037
7976,979,1038
7977,977,1039
7978,980,1039
7979,976,1037
7980,974,1038
7981,973,1034
7982,971,1032
7983,968,1034
7984,971,1032
7985,969,1035
7986,967,1035
7987,971,1033
7988,972,1037
7989,972,1035
7990,974,1037
7991,974,1036
7992,975,1035
7993,974,1034
7994,973,1032
7995,972,1031
7996,972,1032
7997,972,1034
7998,973,1035
7999,974,1036
8000,974,1038
8001,980,1037
8002,981,1037
8003,979,1037
8004,978,1032
8005,975,1033
8006,976,1031
8007,974,1029
8008,972,1033
8009,975,1033
8010,974,1032
8011,974,1036
8012,974,1035
8013,979,1036
8014,976,1034
8015,974,1034
8016,973,1033
8017,973,1032
8018,971,1028
8019,970,1029
8020,967,1028
8021,967,1032
8022,968,1031
8023,967,1032
8024,969,1036
8025,970,1037
8026,968,1034
8027,967,1035
8028,967,1031
8029,968,1032
8030,966,1029
8031,963,1029
8032,962,1027
8033,961,1030
8034,959,1031
8035,964,1031
8036,963,1031
8037,964,1032
8038,963,1030
8039,962,1032
8040,964,1030
8041,960,1026
8042,960,1027
8043,959,1027
8044,958,1026
8045,956,1027
8046,956,1031
8047,957,1028
8048,958,1030
8049,959,1032
8050,961,1031
8051,958,1031
8052,961,1029
8053,960,1028
8054,960,1027
8055,956,1024
8056,955,1026
8057,956,1027
8058,956,1029
8059,958,1029
8060,957,1031
8061,957,1031
8062,954,1034
8063,956,1035
8064,954,1033
8065,957,1036
8066,959,1036
8067,957,1040
8068,960,1042
8069,961,1044
8070,961,1045
8071,964,1043
8072,968,1044
8073,971,1043
8074,971,1042
8075,972,1039
8076,975,1034
8077,975,1032
8078,976,1028
8079,980,1026
8080,983,1026
8081,987,1026
8082,987,1026
8083,991,1028
8084,990,1027
8085,993,1025
8086,989,1025
8087,984,1025
8088,980,1024
8089,978,1022
8090,975,1023
8091,973,1022
8092,969,1022
8093,966,1022
8094,963,1019
8095,960,1021
8096,958,1022
8097,957,1023
8098,954,1023
8099,951,1021
8100,951,1019
8101,947,1018
8102,947,1016
8103,947,1015
8104,946,1014
8105,942,1015
8106,943,1017
8107,943,1019
8108,943,1020
8109,947,1021
8110,945,1022
8111,943,1022
8112,946,1018
8113,942,1020
8114,943,1020
8115,941,1018
8116,942,1020
8117,939,1020
8118,940,1021
8119,942,1021
8120,943,1023
8121,945,1028
8122,947,1031
8123,945,1035
8124,944,1040
8125,941,1048
8126,933,1050
8127,921,1047
8128,905,1043
8129,893,1035
8130,895,1023
8131,913,1011
8132,956,1001
8133,1021,994
8134,1101,988
8135,1187,992
8136,1258,991
8137,1299,993
8138,1290,995
8139,1227,1001
8140,1130,1010
8141,1028,1038
8142,952,1071
8143,910,1104
8144,892,1135
8145,893,1160
8146,894,1177
8147,888,1188
8148,873,1193
8149,851,1199
8150,825,1204
8151,805,1202
8152,793,1198
8153,790,1188
8154,793,1174
8155,799,1161
8156,814,1147
8157,828,1132
8158,847,1110
8159,862,1091
8160,880,1071
8161,894,1054
8162,908,1043
8163,916,1034
8164,923,1031
8165,930,1027
8166,931,1029
8167,935,1026
8168,938,1027
8169,941,1028
8170,945,1025
8171,945,1022
8172,948,1020
8173,948,1017
8174,947,1016
8175,947,1015
8176,947,1013
8177,948,1013
8178,946,1014
8179,950,1013
8180,953,1014
8181,953,1013
8182,956,1014
8183,954,1013
8184,955,1013
8185,954,1013
8186,954,1012
8187,954,1009
8188,954,1011
8189,952,1009
8190,953,1012
8191,955,1009
8192,955,1010
8193,960,1012
8194,962,1011
8195,962,1010
8196,964,1009
8197,962,1007
8198,964,1006
8199,962,1003
8200,961,1004
8201,963,1006
8202,963,1005
8203,964,1007
8204,966,1008
8205,967,1007
8206,970,1007
8207,969,1007
8208,968,1005
8209,970,1001
8210,968,1001
8211,970,1000
8212,971,1000
8213,973,1002
8214,976,1002
8215,977,1002
8216,981,1005
8217,984,1003
8218,984,1006
8219,985,1005
8220,986,1003
8221,986,1000
8222,987,997
8223,987,998
8224,985,993
8225,987,995
8226,990,995
8227,994,996
8228,996,997
8229,1000,997
8230,1002,996
8231,1003,994
8232,1006,993
8233,1006,991
8234,1009,990
8235,1008,986
8236,1010,986
8237,1013,988
8238,1015,988
8239,1017,987
8240,1021,988
8241,1026,985
8242,1029,985
8243,1030,986
8244,1032,984
8245,1033,982
8246,1034,983
8247,1037,979
8248,1037,978
8249,1038,979
8250,1041,982
8251,1044,983
8252,1045,982
8253,1049,984
8254,1048,983
8255,1051,980
8256,1055,981
8257,1054,981
8258,1056,978
8259,1056,977
8260,1056,977
8261,1057,981
8262,1056,981
8263,1058,985
8264,1061,986
8265,1060,985
8266,1061,988
8267,1061,986
8268,1058,987
8269,1057,990
8270,1054,988
8271,1048,990
8272,1045,992
8273,1041,994
8274,1039,997
8275,1035,998
8276,1032,1003
8277,1027,1003
8278,1026,1005
8279,1021,1008
8280,1016,1009
8281,1012,1007
8282,1005,1008
8283,1002,1010
8284,995,1012
8285,992,1014
8286,987,1016
8287,985,1017
8288,984,1019
8289,981,1020
8290,980,1022
8291,978,1021
8292,974,1023
8293,970,1022
8294,965,1019
8295,963,1019
8296,964,1019
8297,961,1021
8298,961,1021
8299,961,1022
8300,961,1024
8301,958,1025
8302,961,1026
8303,959,1024
8304,959,1025
8305,958,1024
8306,957,1021
8307,956,1022
8308,955,1023
8309,957,1024
8310,956,1024
8311,957,1024
8312,957,1025
8313,960,1026
8314,961,1027
8315,960,1026
8316,960,1024
8317,960,1022
8318,959,1021
8319,958,1019
8320,955,1020
8321,957,1022
8322,957,1024
8323,959,1026
8324,959,1025
8325,961,1025
8326,963,1023
8327,962,1027
8328,962,1026
8329,961,1021
8330,961,1021
8331,960,1020
8332,959,1022
8333,957,1022
8334,957,1023
8335,960,1021
8336,960,1023
8337,960,1024
8338,961,1023
8339,960,1025
8340,961,1022
8341,958,1022
8342,958,1021
8343,956,1019
8344,956,1020
8345,953,1021
8346,953,1020
8347,954,1023
8348,954,1025
8349,956,1023
8350,955,1022
8351,956,1024
8352,955,1023
8353,954,1023
8354,954,1021
8355,953,1020
8356,952,1021
8357,951,1021
8358,951,1023
8359,952,1024
8360,952,1023
8361,951,1025
8362,954,1024
8363,952,1024
8364,952,1020
8365,952,1021
8366,953,1017
8367,950,1018
8368,947,1019
8369,947,1019
8370,949,1022
8371,949,1022
8372,950,1024
8373,951,1025
8374,954,1024
8375,953,1023
8376,952,1024
8377,951,1020
8378,952,1020
8379,952,1018
8380,949,1019
8381,949,1019
8382,950,1021
8383,952,1020
8384,952,1020
8385,953,1023
8386,955,1024
8387,953,1024
8388,954,1021
8389,953,1020
8390,950,1020
8391,950,1019
8392,950,1021
8393,948,1021
8394,949,1023
8395,952,1022
8396,951,1025
8397,953,1025
8398,955,1026
8399,952,1028
8400,953,1032
8401,954,1027
8402,954,1031
8403,955,1033
8404,955,1033
8405,957,1037
8406,960,1036
8407,963,1037
8408,965,1037
8409,967,1034
8410,971,1031
8411,971,1030
8412,973,1026
8413,976,1024
8414,977,1022
8415,981,1022
8416,982,1021
8417,984,1019
8418,989,1021
8419,990,1022
8420,990,1021
8421,989,1021
8422,988,1020
8423,986,1018
8424,985,1017
8425,978,1018
8426,977,1019
8427,973,1019
8428,971,1018
8429,967,1017
8430,966,1016
8431,965,1014
8432,960,1016
8433,958,1019
8434,953,1016
8435,953,1018
8436,951,1014
8437,951,1015
8438,951,1014
8439,947,1011
8440,947,1011
8441,945,1012
8442,944,1012
8443,945,1015
8444,945,1016
8445,944,1017
8446,947,1015
8447,946,1018
