'sample #','MLII','V1'
0,975,1066
1,975,1066
2,975,1066
3,975,1066
4,975,1066
5,975,1066
6,975,1066
7,975,1066
8,976,1066
9,977,1067
10,985,1065
11,988,1067
12,993,1067
13,997,1066
14,999,1065
15,996,1067
16,991,1065
17,990,1064
18,987,1064
19,985,1061
20,985,1061
21,986,1062
22,990,1063
23,991,1064
24,991,1066
25,990,1068
26,991,1072
27,989,1070
28,988,1069
29,985,1068
30,985,1067
31,985,1067
32,981,1065
33,981,1066
34,984,1067
35,987,1068
36,989,1067
37,989,1070
38,989,1070
39,986,1071
40,984,1067
41,983,1068
42,984,1067
43,984,1065
44,987,1065
45,984,1063
46,984,1064
47,984,1068
48,986,1067
49,992,1069
50,995,1068
51,996,1067
52,992,1067
53,989,1065
54,983,1068
55,979,1070
56,973,1067
57,972,1068
58,978,1067
59,987,1067
60,991,1064
61,992,1071
62,990,1072
63,984,1072
64,980,1074
65,981,1071
66,981,1071
67,981,1066
68,986,1063
69,986,1064
70,986,1065
71,985,1066
72,985,1068
73,985,1070
74,986,1067
75,986,1072
76,987,1070
77,987,1066
78,988,1065
79,990,1066
80,987,1067
81,984,1070
82,981,1071
83,982,1071
84,987,1069
85,994,1068
86,995,1071
87,990,1072
88,984,1074
89,979,1072
90,976,1074
91,979,1067
92,983,1066
93,984,1064
94,985,1065
95,985,1069
96,983,1068
97,983,1074
98,983,1073
99,982,1071
100,982,1068
101,986,1064
102,989,1062
103,989,1062
104,989,1060
105,989,1061
106,988,1060
107,988,1063
108,984,1063
109,977,1070
110,974,1072
111,973,1070
112,976,1069
113,981,1064
114,987,1061
115,990,1056
116,988,1058
117,989,1060
118,987,1063
119,987,1066
120,987,1067
121,986,1070
122,980,1072
123,980,1070
124,980,1068
125,983,1066
126,987,1062
127,985,1062
128,982,1062
129,981,1061
130,981,1062
131,985,1064
132,989,1065
133,988,1067
134,982,1074
135,975,1075
136,972,1074
137,971,1071
138,972,1068
139,973,1065
140,977,1059
141,982,1060
142,984,1059
143,989,1063
144,989,1062
145,990,1065
146,985,1066
147,981,1066
148,978,1066
149,977,1067
150,978,1065
151,980,1064
152,985,1060
153,989,1060
154,993,1058
155,994,1059
156,994,1063
157,990,1066
158,988,1065
159,982,1069
160,975,1073
161,974,1073
162,970,1074
163,969,1072
164,970,1069
165,973,1066
166,977,1066
167,984,1065
168,993,1062
169,1000,1059
170,1001,1058
171,999,1059
172,989,1062
173,979,1067
174,971,1072
175,966,1072
176,966,1073
177,964,1071
178,970,1071
179,977,1067
180,983,1069
181,986,1067
182,987,1067
183,988,1064
184,990,1062
185,995,1060
186,995,1059
187,995,1056
188,990,1059
189,982,1063
190,974,1065
191,968,1070
192,969,1073
193,969,1073
194,975,1072
195,979,1069
196,985,1068
197,989,1064
198,986,1061
199,985,1058
200,986,1058
201,985,1060
202,980,1060
203,980,1065
204,978,1067
205,980,1072
206,980,1070
207,980,1069
208,984,1064
209,983,1063
210,982,1061
211,980,1064
212,977,1064
213,974,1066
214,971,1064
215,974,1065
216,976,1066
217,979,1066
218,984,1066
219,984,1061
220,986,1061
221,987,1062
222,985,1059
223,985,1060
224,984,1060
225,983,1063
226,980,1064
227,981,1065
228,979,1065
229,978,1067
230,978,1068
231,978,1068
232,983,1066
233,982,1064
234,981,1062
235,980,1061
236,977,1060
237,975,1060
238,977,1063
239,978,1064
240,985,1064
241,988,1065
242,990,1068
243,990,1065
244,991,1062
245,990,1063
246,988,1062
247,982,1060
248,978,1060
249,978,1063
250,977,1063
251,976,1065
252,977,1066
253,975,1067
254,975,1069
255,976,1068
256,976,1068
257,980,1062
258,982,1060
259,985,1062
260,985,1059
261,982,1062
262,981,1062
263,981,1064
264,985,1061
265,990,1064
266,996,1063
267,995,1061
268,989,1061
269,981,1067
270,974,1066
271,968,1066
272,969,1066
273,971,1064
274,977,1060
275,983,1062
276,984,1063
277,985,1064
278,984,1065
279,983,1065
280,982,1068
281,980,1068
282,977,1065
283,973,1066
284,972,1063
285,975,1062
286,979,1062
287,982,1064
288,984,1064
289,986,1066
290,987,1068
291,984,1067
292,979,1070
293,979,1067
294,978,1066
295,979,1064
296,984,1061
297,986,1058
298,989,1062
299,991,1064
300,986,1065
301,983,1065
302,981,1068
303,978,1068
304,982,1063
305,988,1062
306,990,1058
307,988,1058
308,983,1061
309,977,1064
310,973,1066
311,974,1066
312,979,1065
313,985,1067
314,989,1068
315,991,1067
316,993,1066
317,989,1062
318,984,1065
319,981,1063
320,980,1062
321,983,1060
322,984,1061
323,986,1061
324,989,1062
325,989,1065
326,987,1067
327,985,1067
328,983,1063
329,982,1067
330,981,1066
331,981,1063
332,981,1062
333,985,1061
334,986,1060
335,985,1062
336,985,1064
337,981,1065
338,984,1064
339,985,1064
340,987,1063
341,989,1059
342,987,1057
343,986,1057
344,982,1057
345,982,1060
346,977,1061
347,976,1065
348,980,1065
349,983,1066
350,988,1061
351,993,1059
352,995,1056
353,993,1057
354,986,1060
355,978,1063
356,971,1066
357,969,1064
358,976,1062
359,980,1063
360,982,1063
361,986,1062
362,988,1065
363,983,1066
364,984,1062
365,982,1061
366,987,1059
367,986,1056
368,989,1055
369,989,1057
370,985,1057
371,986,1060
372,988,1060
373,995,1061
374,999,1059
375,999,1059
376,992,1062
377,984,1065
378,974,1067
379,963,1068
380,959,1067
381,958,1067
382,971,1062
383,977,1060
384,986,1058
385,990,1061
386,992,1065
387,990,1063
388,987,1062
389,985,1063
390,984,1060
391,983,1059
392,984,1057
393,984,1054
394,988,1055
395,989,1057
396,992,1056
397,994,1060
398,992,1064
399,984,1066
400,978,1068
401,978,1063
402,985,1062
403,989,1060
404,991,1056
405,988,1061
406,983,1066
407,979,1070
408,977,1073
409,980,1075
410,985,1071
411,995,1068
412,1007,1062
413,1015,1058
414,1016,1059
415,1005,1064
416,995,1069
417,986,1071
418,983,1068
419,986,1065
420,991,1066
421,997,1064
422,1004,1064
423,1005,1059
424,1005,1059
425,1005,1054
426,999,1053
427,995,1052
428,991,1054
429,987,1057
430,986,1056
431,989,1056
432,991,1058
433,994,1058
434,994,1056
435,994,1057
436,993,1056
437,993,1053
438,994,1051
439,995,1051
440,996,1052
441,997,1054
442,995,1058
443,995,1061
444,995,1063
445,995,1066
446,995,1061
447,993,1062
448,987,1064
449,982,1063
450,975,1062
451,970,1065
452,967,1063
453,969,1064
454,971,1062
455,975,1062
456,980,1062
457,983,1064
458,985,1065
459,979,1069
460,975,1071
461,976,1070
462,976,1067
463,975,1063
464,977,1058
465,983,1055
466,987,1059
467,986,1060
468,985,1062
469,983,1067
470,981,1067
471,979,1067
472,979,1064
473,980,1062
474,982,1060
475,985,1060
476,987,1059
477,989,1060
478,989,1062
479,986,1065
480,986,1067
481,986,1073
482,992,1075
483,998,1076
484,1006,1075
485,1015,1067
486,1020,1059
487,1026,1048
488,1034,1032
489,1047,1009
490,1066,984
491,1083,960
492,1092,943
493,1086,933
494,1062,932
495,1022,940
496,980,955
497,946,982
498,928,1019
499,920,1056
500,923,1088
501,928,1109
502,936,1121
503,940,1127
504,944,1129
505,943,1133
506,939,1136
507,934,1136
508,928,1141
509,924,1145
510,924,1150
511,927,1152
512,933,1156
513,943,1161
514,954,1160
515,957,1165
516,963,1168
517,959,1172
518,953,1174
519,945,1174
520,943,1170
521,942,1160
522,944,1146
523,949,1133
524,953,1118
525,953,1104
526,960,1090
527,965,1082
528,972,1072
529,980,1066
530,988,1063
531,988,1058
532,989,1059
533,987,1057
534,985,1054
535,980,1053
536,978,1055
537,979,1052
538,980,1052
539,982,1055
540,982,1054
541,983,1054
542,985,1054
543,986,1053
544,985,1054
545,988,1052
546,985,1050
547,983,1050
548,979,1048
549,980,1048
550,985,1048
551,987,1046
552,991,1046
553,990,1048
554,992,1048
555,988,1049
556,986,1049
557,985,1047
558,988,1040
559,994,1035
560,1001,1031
561,1004,1032
562,1002,1041
563,993,1046
564,984,1049
565,981,1053
566,983,1053
567,986,1049
568,990,1043
569,996,1041
570,999,1038
571,997,1035
572,996,1036
573,995,1035
574,995,1035
575,998,1035
576,1000,1036
577,999,1034
578,999,1032
579,1002,1029
580,1003,1026
581,1005,1023
582,1005,1021
583,1006,1016
584,1008,1016
585,1007,1016
586,1008,1018
587,1005,1017
588,1009,1017
589,1014,1013
590,1018,1014
591,1022,1009
592,1023,1007
593,1024,1006
594,1022,1005
595,1020,1007
596,1017,1003
597,1018,1005
598,1018,1003
599,1025,999
600,1030,1000
601,1034,1000
602,1037,999
603,1036,999
604,1034,1002
605,1028,1004
606,1025,1006
607,1022,1004
608,1021,1006
609,1020,1006
610,1024,1007
611,1027,1014
612,1031,1015
613,1035,1016
614,1037,1017
615,1036,1019
616,1032,1024
617,1026,1025
618,1018,1031
619,1016,1030
620,1016,1031
621,1017,1034
622,1019,1035
623,1020,1041
624,1019,1045
625,1013,1049
626,1011,1054
627,1005,1053
628,1003,1056
629,1001,1055
630,1004,1055
631,1003,1052
632,1001,1052
633,997,1054
634,995,1054
635,992,1057
636,991,1060
637,988,1060
638,991,1062
639,994,1062
640,993,1058
641,994,1055
642,993,1053
643,989,1052
644,983,1051
645,981,1051
646,978,1056
647,979,1055
648,982,1051
649,986,1051
650,989,1051
651,990,1046
652,991,1045
653,990,1046
654,988,1047
655,988,1045
656,986,1046
657,983,1045
658,987,1046
659,990,1047
660,993,1053
661,993,1053
662,997,1056
663,997,1054
664,999,1054
665,1003,1050
666,1003,1047
667,1002,1045
668,1001,1044
669,999,1044
670,996,1046
671,995,1048
672,995,1051
673,995,1051
674,998,1049
675,1000,1050
676,1000,1050
677,1000,1047
678,1000,1048
679,998,1046
680,992,1048
681,989,1052
682,990,1054
683,993,1059
684,997,1058
685,1006,1057
686,1012,1057
687,1012,1059
688,1004,1060
689,1000,1060
690,998,1059
691,994,1059
692,994,1057
693,994,1058
694,998,1057
695,999,1058
696,1000,1059
697,1001,1061
698,1000,1063
699,998,1063
700,996,1065
701,993,1062
702,990,1062
703,993,1060
704,993,1060
705,995,1059
706,998,1061
707,999,1061
708,1000,1061
709,998,1061
710,1001,1062
711,1002,1061
712,1002,1064
713,1004,1059
714,1004,1061
715,1002,1060
716,995,1058
717,990,1059
718,989,1059
719,991,1062
720,999,1063
721,1001,1061
722,1001,1062
723,997,1063
724,994,1061
725,994,1061
726,998,1057
727,1001,1056
728,1003,1056
729,1004,1062
730,1007,1069
731,1009,1072
732,1015,1070
733,1026,1061
734,1046,1044
735,1071,1020
736,1097,994
737,1118,973
738,1123,957
739,1112,949
740,1076,950
741,1028,960
742,985,983
743,953,1010
744,937,1047
745,936,1077
746,941,1104
747,946,1118
748,956,1125
749,963,1121
750,963,1118
751,960,1115
752,953,1115
753,945,1120
754,944,1124
755,948,1127
756,954,1129
757,964,1132
758,973,1136
759,973,1143
760,968,1148
761,959,1151
762,947,1155
763,942,1155
764,941,1150
765,945,1146
766,954,1135
767,964,1124
768,967,1113
769,971,1104
770,972,1092
771,973,1082
772,976,1072
773,981,1058
774,988,1050
775,994,1042
776,994,1041
777,993,1039
778,995,1043
779,991,1048
780,994,1044
781,997,1047
782,999,1045
783,1003,1043
784,1005,1041
785,1004,1038
786,1005,1038
787,1003,1035
788,999,1038
789,995,1041
790,991,1044
791,993,1043
792,993,1044
793,996,1041
794,1000,1038
795,999,1039
796,1002,1042
797,997,1040
798,995,1037
799,994,1039
800,996,1034
801,999,1033
802,1000,1037
803,998,1038
804,997,1041
805,996,1042
806,999,1041
807,999,1040
808,1004,1036
809,1007,1035
810,1007,1032
811,1002,1030
812,1003,1031
813,1001,1027
814,1002,1028
815,1007,1030
816,1013,1028
817,1015,1030
818,1015,1028
819,1018,1025
820,1020,1022
821,1020,1021
822,1019,1020
823,1022,1016
824,1022,1016
825,1022,1013
826,1025,1011
827,1026,1012
828,1030,1010
829,1035,1012
830,1040,1009
831,1044,1006
832,1045,1002
833,1048,1000
834,1049,998
835,1044,998
836,1039,999
837,1035,1002
838,1036,1003
839,1038,1003
840,1043,1000
841,1050,999
842,1051,999
843,1050,1000
844,1049,1000
845,1048,1001
846,1050,1002
847,1049,1001
848,1049,1001
849,1048,1005
850,1044,1011
851,1041,1014
852,1036,1022
853,1033,1025
854,1029,1031
855,1031,1034
856,1030,1037
857,1030,1035
858,1027,1035
859,1023,1036
860,1019,1036
861,1018,1039
862,1018,1042
863,1012,1050
864,1004,1058
865,999,1060
866,1000,1061
867,1003,1060
868,1006,1056
869,1006,1056
870,1004,1054
871,998,1054
872,995,1060
873,993,1058
874,993,1059
875,992,1060
876,995,1059
877,997,1060
878,997,1061
879,998,1061
880,997,1060
881,995,1061
882,993,1059
883,990,1057
884,987,1056
885,985,1058
886,987,1057
887,987,1058
888,990,1058
889,991,1061
890,993,1063
891,995,1060
892,999,1061
893,998,1057
894,995,1056
895,992,1054
896,991,1057
897,990,1057
898,992,1059
899,992,1060
900,994,1061
901,997,1059
902,1001,1058
903,998,1056
904,997,1058
905,988,1059
906,986,1059
907,984,1059
908,983,1059
909,985,1057
910,985,1055
911,990,1054
912,990,1048
913,991,1047
914,997,1043
915,997,1043
916,1000,1041
917,1001,1044
918,1002,1041
919,1000,1040
920,995,1040
921,991,1043
922,985,1046
923,982,1051
924,978,1055
925,981,1058
926,982,1060
927,988,1058
928,992,1057
929,998,1051
930,1004,1047
931,1006,1046
932,1002,1045
933,1002,1047
934,999,1049
935,998,1048
936,1000,1049
937,1001,1049
938,1001,1048
939,1001,1050
940,997,1050
941,994,1052
942,990,1050
943,983,1052
944,982,1050
945,981,1049
946,979,1050
947,979,1054
948,979,1055
949,982,1058
950,985,1057
951,988,1058
952,993,1057
953,992,1057
954,993,1060
955,992,1059
956,988,1057
957,988,1060
958,991,1060
959,993,1061
960,995,1060
961,997,1061
962,1000,1064
963,1000,1063
964,999,1061
965,998,1060
966,996,1058
967,998,1055
968,999,1054
969,1000,1053
970,999,1055
971,996,1058
972,994,1065
973,992,1065
974,997,1064
975,999,1061
976,1001,1059
977,995,1060
978,988,1062
979,987,1062
980,987,1059
981,990,1060
982,993,1059
983,993,1062
984,996,1064
985,999,1065
986,997,1063
987,998,1062
988,997,1062
989,994,1064
990,994,1063
991,995,1065
992,999,1068
993,1005,1068
994,1014,1070
995,1021,1072
996,1030,1070
997,1047,1065
998,1063,1050
999,1103,1008
1000,1121,988
1001,1134,970
1002,1132,956
1003,1112,950
1004,1071,952
1005,1018,961
1006,966,986
1007,931,1015
1008,913,1052
1009,908,1080
1010,915,1105
1011,925,1120
1012,936,1126
1013,946,1123
1014,954,1122
1015,958,1116
1016,958,1118
1017,952,1121
1018,942,1130
1019,933,1139
1020,930,1147
1021,931,1153
1022,938,1152
1023,946,1154
1024,955,1156
1025,960,1157
1026,958,1155
1027,956,1157
1028,953,1158
1029,950,1154
1030,951,1150
1031,957,1143
1032,960,1134
1033,967,1122
1034,972,1112
1035,972,1101
1036,971,1092
1037,970,1083
1038,968,1076
1039,968,1067
1040,971,1060
1041,978,1055
1042,984,1052
1043,990,1048
1044,996,1050
1045,999,1051
1046,1001,1049
1047,1005,1045
1048,1010,1041
1049,1014,1036
1050,1010,1035
1051,1003,1040
1052,991,1046
1053,976,1055
1054,966,1059
1055,966,1059
1056,972,1057
1057,982,1053
1058,992,1048
1059,998,1045
1060,1000,1041
1061,999,1042
1062,1001,1041
1063,999,1040
1064,999,1042
1065,1000,1037
1066,1002,1038
1067,1000,1038
1068,998,1044
1069,997,1046
1070,996,1045
1071,991,1041
1072,995,1040
1073,995,1035
1074,1001,1032
1075,1001,1032
1076,1002,1031
1077,1003,1034
1078,1003,1034
1079,1004,1037
1080,1005,1038
1081,1002,1037
1082,999,1036
1083,997,1034
1084,999,1031
1085,1002,1026
1086,1005,1028
1087,1006,1023
1088,1011,1022
1089,1014,1020
1090,1016,1017
1091,1019,1017
1092,1022,1016
1093,1029,1017
1094,1030,1012
1095,1034,1011
1096,1038,1009
1097,1037,1008
1098,1034,1008
1099,1035,1005
1100,1035,1004
1101,1034,1004
1102,1033,1009
1103,1034,1008
1104,1036,1009
1105,1039,1010
1106,1041,1008
1107,1041,1005
1108,1046,1001
1109,1041,1004
1110,1040,1003
1111,1038,1003
1112,1038,1005
1113,1041,1006
1114,1041,1011
1115,1041,1017
1116,1038,1021
1117,1038,1023
1118,1033,1024
1119,1028,1028
1120,1026,1027
1121,1024,1026
1122,1023,1030
1123,1023,1033
1124,1015,1035
1125,1008,1039
1126,1004,1044
1127,1002,1048
1128,1001,1051
1129,1008,1052
1130,1011,1050
1131,1014,1050
1132,1016,1051
1133,1012,1052
1134,1006,1055
1135,994,1059
1136,985,1063
1137,981,1066
1138,979,1065
1139,981,1065
1140,986,1063
1141,994,1058
1142,998,1056
1143,1000,1055
1144,999,1055
1145,996,1056
1146,994,1053
1147,990,1057
1148,987,1059
1149,986,1056
1150,988,1060
1151,986,1061
1152,985,1064
1153,985,1067
1154,982,1067
1155,983,1064
1156,986,1063
1157,990,1056
1158,992,1055
1159,993,1053
1160,994,1052
1161,990,1055
1162,985,1058
1163,984,1064
1164,980,1066
1165,983,1067
1166,986,1065
1167,992,1059
1168,999,1055
1169,1004,1053
1170,1007,1052
1171,1005,1054
1172,999,1057
1173,993,1061
1174,991,1061
1175,991,1060
1176,989,1065
1177,994,1061
1178,996,1059
1179,998,1057
1180,1003,1054
1181,1000,1054
1182,1000,1055
1183,995,1056
1184,992,1057
1185,987,1060
1186,984,1060
1187,987,1063
1188,986,1064
1189,986,1064
1190,988,1062
1191,992,1060
1192,997,1055
1193,996,1055
1194,998,1053
1195,995,1055
1196,990,1057
1197,982,1058
1198,980,1060
1199,986,1063
1200,989,1061
1201,993,1059
1202,995,1057
1203,993,1060
1204,991,1058
1205,992,1059
1206,990,1056
1207,989,1057
1208,991,1053
1209,994,1053
1210,995,1055
1211,993,1056
1212,990,1059
1213,984,1064
1214,980,1064
1215,974,1065
1216,974,1065
1217,972,1060
1218,974,1059
1219,978,1057
1220,983,1054
1221,988,1054
1222,993,1054
1223,999,1050
1224,1004,1051
1225,1005,1052
1226,1002,1055
1227,991,1059
1228,981,1061
1229,974,1063
1230,970,1063
1231,969,1060
1232,974,1062
1233,977,1058
1234,983,1058
1235,986,1056
1236,987,1056
1237,987,1059
1238,987,1058
1239,985,1058
1240,983,1057
1241,984,1054
1242,987,1051
1243,988,1049
1244,993,1047
1245,1003,1043
1246,1015,1039
1247,1023,1042
1248,1015,1049
1249,994,1061
1250,971,1072
1251,949,1079
1252,942,1074
1253,949,1066
1254,960,1061
1255,974,1054
1256,983,1054
1257,990,1053
1258,990,1054
1259,991,1055
1260,990,1058
1261,992,1057
1262,991,1056
1263,996,1052
1264,1000,1048
1265,1006,1045
1266,1005,1041
1267,1005,1043
1268,999,1047
1269,990,1054
1270,977,1061
1271,962,1069
1272,956,1074
1273,956,1074
1274,963,1068
1275,973,1065
1276,983,1059
1277,991,1055
1278,995,1052
1279,996,1053
1280,994,1052
1281,991,1052
1282,991,1056
1283,992,1055
1284,991,1059
1285,991,1061
1286,990,1061
1287,985,1061
1288,982,1060
1289,980,1057
1290,980,1055
1291,982,1055
1292,984,1052
1293,985,1053
1294,988,1055
1295,989,1055
1296,990,1057
1297,992,1057
1298,992,1058
1299,990,1058
1300,989,1057
1301,986,1057
1302,984,1054
1303,982,1053
1304,981,1052
1305,981,1053
1306,983,1056
1307,984,1060
1308,983,1063
1309,983,1065
1310,982,1068
1311,981,1065
1312,982,1064
1313,984,1064
1314,986,1060
1315,988,1057
1316,992,1053
1317,994,1054
1318,997,1053
1319,996,1057
1320,991,1060
1321,984,1064
1322,974,1066
1323,971,1067
1324,968,1066
1325,971,1063
1326,975,1057
1327,978,1057
1328,984,1054
1329,985,1054
1330,985,1056
1331,985,1058
1332,985,1059
1333,987,1061
1334,989,1061
1335,990,1061
1336,993,1059
1337,993,1055
1338,993,1057
1339,987,1056
1340,984,1056
1341,984,1056
1342,985,1058
1343,990,1059
1344,995,1061
1345,1001,1055
1346,1000,1055
1347,998,1057
1348,995,1055
1349,992,1056
1350,988,1059
1351,979,1061
1352,970,1064
1353,965,1068
1354,966,1069
1355,967,1068
1356,978,1068
1357,985,1066
1358,989,1064
1359,990,1066
1360,989,1061
1361,984,1063
1362,981,1061
1363,975,1062
1364,976,1059
1365,982,1059
1366,986,1059
1367,993,1058
1368,998,1055
1369,1000,1059
1370,997,1058
1371,992,1059
1372,985,1062
1373,981,1060
1374,976,1056
1375,976,1052
1376,979,1054
1377,983,1052
1378,986,1053
1379,984,1060
1380,982,1059
1381,984,1060
1382,982,1059
1383,980,1058
1384,978,1056
1385,977,1055
1386,977,1056
1387,975,1053
1388,982,1050
1389,986,1048
1390,991,1049
1391,994,1049
1392,994,1053
1393,992,1054
1394,990,1053
1395,989,1056
1396,986,1056
1397,981,1058
1398,975,1056
1399,973,1054
1400,972,1052
1401,973,1052
1402,976,1052
1403,981,1054
1404,985,1052
1405,987,1051
1406,991,1053
1407,989,1050
1408,983,1055
1409,972,1056
1410,967,1055
1411,964,1057
1412,962,1054
1413,963,1054
1414,971,1051
1415,977,1050
1416,985,1050
1417,988,1048
1418,988,1049
1419,982,1049
1420,976,1048
1421,971,1047
1422,968,1046
1423,971,1044
1424,973,1042
1425,979,1043
1426,981,1045
1427,985,1045
1428,986,1047
1429,989,1046
1430,985,1048
1431,982,1050
1432,981,1048
1433,977,1048
1434,978,1046
1435,977,1045
1436,976,1045
1437,974,1047
1438,972,1047
1439,973,1051
1440,973,1051
1441,975,1053
1442,975,1050
1443,974,1050
1444,976,1045
1445,979,1044
1446,981,1041
1447,981,1042
1448,980,1043
1449,979,1046
1450,977,1048
1451,976,1048
1452,977,1048
1453,980,1047
1454,982,1047
1455,980,1046
1456,982,1043
1457,979,1042
1458,979,1044
1459,973,1044
1460,972,1045
1461,974,1046
1462,976,1044
1463,984,1044
1464,989,1045
1465,992,1047
1466,987,1048
1467,980,1050
1468,977,1049
1469,973,1051
1470,967,1049
1471,963,1050
1472,965,1050
1473,970,1046
1474,974,1046
1475,980,1048
1476,982,1048
1477,984,1050
1478,980,1050
1479,979,1050
1480,978,1049
1481,980,1046
1482,980,1044
1483,978,1044
1484,975,1048
1485,976,1045
1486,978,1046
1487,979,1048
1488,982,1051
1489,981,1051
1490,976,1054
1491,973,1055
1492,972,1052
1493,972,1049
1494,974,1047
1495,975,1047
1496,974,1050
1497,971,1054
1498,967,1054
1499,970,1053
1500,974,1054
1501,980,1052
1502,985,1051
1503,987,1048
1504,988,1045
1505,983,1047
1506,982,1047
1507,979,1047
1508,976,1049
1509,974,1050
1510,972,1050
1511,974,1049
1512,978,1052
1513,983,1052
1514,986,1051
1515,984,1054
1516,984,1054
1517,982,1054
1518,976,1051
1519,973,1051
1520,972,1050
1521,975,1050
1522,979,1051
1523,980,1051
1524,982,1054
1525,983,1054
1526,983,1054
1527,982,1049
1528,981,1050
1529,975,1051
1530,971,1056
1531,968,1052
1532,971,1051
1533,975,1052
1534,979,1049
1535,983,1051
1536,981,1054
1537,978,1058
1538,976,1058
1539,977,1057
1540,984,1052
1541,987,1047
1542,990,1047
1543,989,1046
1544,983,1047
1545,977,1048
1546,970,1052
1547,970,1056
1548,972,1058
1549,973,1058
1550,975,1059
1551,979,1055
1552,984,1053
1553,986,1052
1554,988,1045
1555,986,1045
1556,984,1046
1557,983,1048
1558,983,1053
1559,983,1052
1560,985,1053
1561,986,1052
1562,986,1050
1563,983,1050
1564,982,1052
1565,979,1051
1566,976,1053
1567,975,1051
1568,975,1052
1569,979,1052
1570,980,1050
1571,986,1053
1572,989,1054
1573,990,1056
1574,990,1057
1575,986,1057
1576,983,1054
1577,977,1053
1578,977,1056
1579,977,1055
1580,981,1056
1581,985,1057
1582,988,1057
1583,993,1059
1584,997,1059
1585,997,1058
1586,998,1061
1587,996,1063
1588,991,1062
1589,990,1059
1590,990,1053
1591,991,1049
1592,995,1046
1593,997,1042
1594,1003,1042
1595,1004,1041
1596,1004,1045
1597,998,1045
1598,992,1048
1599,984,1049
1600,979,1048
1601,975,1048
1602,974,1046
1603,976,1046
1604,980,1047
1605,987,1048
1606,989,1046
1607,995,1045
1608,1000,1043
1609,1003,1046
1610,1002,1045
1611,997,1049
1612,989,1054
1613,978,1058
1614,968,1060
1615,959,1060
1616,955,1058
1617,955,1059
1618,959,1057
1619,964,1054
1620,970,1056
1621,976,1055
1622,979,1053
1623,983,1051
1624,983,1050
1625,984,1050
1626,983,1049
1627,980,1050
1628,976,1050
1629,971,1055
1630,967,1059
1631,967,1061
1632,967,1062
1633,968,1062
1634,974,1058
1635,977,1057
1636,977,1055
1637,980,1050
1638,983,1048
1639,992,1041
1640,996,1043
1641,998,1046
1642,990,1051
1643,979,1059
1644,968,1066
1645,960,1068
1646,960,1066
1647,960,1065
1648,969,1060
1649,976,1059
1650,984,1061
1651,992,1061
1652,995,1063
1653,1005,1061
1654,1020,1055
1655,1040,1043
1656,1066,1030
1657,1092,1014
1658,1112,998
1659,1129,980
1660,1135,970
1661,1125,958
1662,1095,953
1663,1043,955
1664,986,969
1665,940,989
1666,909,1018
1667,899,1047
1668,900,1073
1669,907,1096
1670,916,1108
1671,923,1114
1672,927,1115
1673,929,1117
1674,923,1120
1675,920,1120
1676,915,1121
1677,916,1126
1678,919,1132
1679,924,1139
1680,932,1142
1681,940,1151
1682,945,1152
1683,947,1155
1684,951,1156
1685,949,1154
1686,945,1153
1687,936,1152
1688,928,1150
1689,923,1144
1690,922,1139
1691,927,1130
1692,935,1119
1693,945,1104
1694,956,1090
1695,964,1076
1696,974,1062
1697,981,1053
1698,985,1045
1699,983,1045
1700,981,1047
1701,974,1049
1702,968,1054
1703,965,1056
1704,966,1056
1705,971,1054
1706,978,1050
1707,985,1045
1708,987,1045
1709,987,1043
1710,982,1043
1711,977,1044
1712,972,1046
1713,968,1048
1714,964,1054
1715,960,1055
1716,961,1057
1717,967,1058
1718,972,1052
1719,976,1048
1720,979,1042
1721,983,1040
1722,986,1037
1723,987,1037
1724,985,1038
1725,981,1043
1726,975,1047
1727,975,1049
1728,973,1049
1729,977,1048
1730,985,1047
1731,989,1043
1732,994,1040
1733,999,1038
1734,997,1033
1735,998,1033
1736,995,1036
1737,989,1038
1738,986,1041
1739,987,1040
1740,987,1044
1741,989,1043
1742,992,1040
1743,986,1038
1744,985,1035
1745,988,1032
1746,991,1026
1747,998,1025
1748,1003,1023
1749,1005,1024
1750,1004,1026
1751,1004,1024
1752,1003,1025
1753,1006,1025
1754,1004,1025
1755,1003,1025
1756,1003,1022
1757,1004,1019
1758,1009,1016
1759,1014,1012
1760,1017,1011
1761,1021,1010
1762,1025,1009
1763,1029,1005
1764,1028,1008
1765,1030,1008
1766,1030,1008
1767,1026,1009
1768,1023,1010
1769,1020,1008
1770,1019,1007
1771,1018,1010
1772,1020,1007
1773,1024,1007
1774,1031,1005
1775,1038,1004
1776,1041,1009
1777,1039,1011
1778,1032,1017
1779,1020,1022
1780,1011,1023
1781,1007,1027
1782,1007,1025
1783,1007,1025
1784,1010,1025
1785,1016,1026
1786,1018,1033
1787,1018,1035
1788,1016,1037
1789,1015,1038
1790,1018,1039
1791,1018,1039
1792,1015,1040
1793,1012,1044
1794,1006,1044
1795,995,1049
1796,991,1053
1797,986,1054
1798,987,1056
1799,988,1057
1800,989,1060
1801,988,1060
1802,987,1059
1803,986,1056
1804,988,1054
1805,991,1051
1806,992,1051
1807,988,1052
1808,982,1055
1809,973,1057
1810,972,1058
1811,971,1056
1812,973,1052
1813,976,1051
1814,975,1049
1815,970,1050
1816,969,1049
1817,969,1047
1818,974,1049
1819,975,1048
1820,974,1049
1821,975,1052
1822,975,1054
1823,978,1053
1824,980,1053
1825,985,1052
1826,990,1051
1827,992,1056
1828,994,1054
1829,991,1053
1830,989,1050
1831,989,1049
1832,989,1051
1833,984,1051
1834,981,1053
1835,981,1052
1836,983,1056
1837,984,1056
1838,984,1054
1839,987,1052
1840,989,1049
1841,989,1049
1842,992,1046
1843,992,1047
1844,993,1049
1845,987,1056
1846,981,1059
1847,979,1060
1848,981,1060
1849,988,1060
1850,993,1057
1851,996,1057
1852,997,1059
1853,997,1057
1854,995,1058
1855,992,1058
1856,988,1060
1857,989,1060
1858,988,1063
1859,990,1061
1860,990,1063
1861,991,1063
1862,995,1065
1863,995,1062
1864,990,1063
1865,982,1065
1866,980,1059
1867,981,1059
1868,983,1061
1869,986,1059
1870,989,1062
1871,987,1066
1872,985,1067
1873,982,1069
1874,981,1067
1875,984,1064
1876,987,1064
1877,990,1060
1878,991,1056
1879,990,1061
1880,986,1062
1881,981,1063
1882,977,1066
1883,978,1065
1884,982,1065
1885,987,1066
1886,991,1064
1887,989,1063
1888,988,1062
1889,987,1059
1890,984,1057
1891,984,1060
1892,984,1063
1893,986,1067
1894,987,1072
1895,988,1074
1896,992,1079
1897,1001,1075
1898,1016,1067
1899,1036,1051
1900,1060,1030
1901,1087,1008
1902,1112,988
1903,1130,969
1904,1136,956
1905,1127,950
1906,1090,953
1907,1037,965
1908,983,990
1909,943,1022
1910,919,1053
1911,910,1087
1912,913,1112
1913,917,1125
1914,923,1130
1915,928,1131
1916,934,1132
1917,935,1130
1918,937,1131
1919,933,1135
1920,926,1144
1921,925,1152
1922,926,1155
1923,933,1161
1924,940,1161
1925,946,1166
1926,949,1166
1927,949,1167
1928,943,1166
1929,940,1163
1930,940,1157
1931,943,1150
1932,943,1138
1933,946,1128
1934,948,1111
1935,954,1095
1936,959,1083
1937,968,1066
1938,978,1055
1939,988,1046
1940,997,1042
1941,995,1043
1942,991,1046
1943,987,1051
1944,984,1053
1945,982,1051
1946,985,1052
1947,983,1050
1948,983,1047
1949,982,1045
1950,980,1048
1951,975,1046
1952,977,1047
1953,981,1045
1954,986,1043
1955,988,1045
1956,989,1045
1957,992,1044
1958,989,1049
1959,986,1049
1960,984,1048
1961,983,1045
1962,983,1044
1963,983,1041
1964,984,1039
1965,987,1038
1966,992,1039
1967,997,1042
1968,1000,1042
1969,1002,1042
1970,996,1043
1971,996,1042
1972,993,1042
1973,992,1040
1974,989,1038
1975,989,1037
1976,987,1039
1977,984,1037
1978,987,1038
1979,994,1035
1980,999,1033
1981,1006,1031
1982,1007,1028
1983,1008,1025
1984,1005,1026
1985,1000,1024
1986,999,1024
1987,1000,1019
1988,1004,1018
1989,1007,1016
1990,1014,1017
1991,1021,1011
1992,1028,1007
1993,1034,1010
1994,1037,1007
1995,1033,1007
1996,1027,1007
1997,1020,1004
1998,1014,1004
1999,1015,1004
2000,1016,1000
2001,1024,1000
2002,1027,1001
2003,1033,1003
2004,1033,1002
2005,1035,1005
2006,1035,1004
2007,1036,1001
2008,1035,1003
2009,1033,1001
2010,1032,1002
2011,1033,1004
2012,1034,1007
2013,1033,1009
2014,1028,1016
2015,1023,1018
2016,1020,1025
2017,1017,1028
2018,1015,1030
2019,1010,1036
2020,1011,1036
2021,1007,1039
2022,1003,1043
2023,997,1044
2024,994,1048
2025,994,1049
2026,995,1053
2027,997,1054
2028,997,1055
2029,997,1057
2030,998,1056
2031,995,1056
2032,989,1058
2033,981,1057
2034,973,1059
2035,970,1059
2036,964,1057
2037,965,1057
2038,968,1059
2039,973,1058
2040,976,1062
2041,982,1062
2042,987,1060
2043,989,1055
2044,996,1050
2045,1000,1045
2046,1007,1042
2047,1003,1044
2048,994,1056
2049,972,1067
2050,951,1075
2051,938,1079
2052,940,1077
2053,949,1071
2054,963,1064
2055,978,1059
2056,986,1055
2057,989,1054
2058,988,1053
2059,984,1056
2060,977,1060
2061,968,1063
2062,969,1064
2063,968,1062
2064,972,1059
2065,976,1058
2066,977,1056
2067,976,1054
2068,974,1055
2069,971,1049
2070,968,1045
2071,968,1040
2072,971,1042
2073,975,1043
2074,976,1048
2075,972,1052
2076,970,1057
2077,969,1056
2078,971,1051
2079,979,1046
2080,985,1047
2081,989,1043
2082,985,1047
2083,979,1048
2084,971,1056
2085,967,1058
2086,967,1058
2087,969,1058
2088,977,1060
2089,980,1059
2090,982,1055
2091,981,1056
2092,982,1052
2093,985,1049
2094,986,1046
2095,987,1042
2096,990,1042
2097,989,1040
2098,985,1044
2099,982,1049
2100,980,1052
2101,972,1057
2102,967,1059
2103,967,1060
2104,970,1057
2105,975,1054
2106,979,1054
2107,979,1056
2108,978,1057
2109,978,1063
2110,981,1064
2111,980,1063
2112,981,1065
2113,978,1064
2114,975,1066
2115,973,1063
2116,973,1063
2117,973,1062
2118,976,1059
2119,978,1055
2120,977,1057
2121,978,1058
2122,980,1062
2123,978,1062
2124,975,1067
2125,972,1066
2126,970,1067
2127,973,1065
2128,973,1063
2129,977,1059
2130,980,1058
2131,982,1057
2132,982,1058
2133,984,1060
2134,980,1060
2135,980,1061
2136,979,1064
2137,979,1068
2138,974,1070
2139,974,1069
2140,971,1064
2141,971,1063
2142,973,1060
2143,979,1056
2144,983,1056
2145,985,1060
2146,986,1064
2147,986,1070
2148,986,1075
2149,988,1079
2150,991,1080
2151,1000,1082
2152,1008,1072
2153,1020,1060
2154,1034,1041
2155,1056,1017
2156,1074,991
2157,1095,972
2158,1100,954
2159,1091,946
2160,1063,947
2161,1016,958
2162,966,976
2163,927,1007
2164,906,1040
2165,901,1077
2166,906,1106
2167,916,1126
2168,924,1136
2169,931,1138
2170,937,1133
2171,941,1131
2172,944,1129
2173,946,1130
2174,945,1131
2175,941,1142
2176,936,1149
2177,928,1155
2178,924,1159
2179,923,1164
2180,921,1166
2181,921,1170
2182,922,1170
2183,926,1170
2184,931,1166
2185,941,1159
2186,946,1147
2187,950,1135
2188,954,1123
2189,956,1109
2190,961,1097
2191,961,1082
2192,962,1071
2193,967,1063
2194,968,1057
2195,972,1053
2196,971,1051
2197,971,1050
2198,972,1050
2199,974,1050
2200,976,1047
2201,977,1047
2202,976,1042
2203,979,1040
2204,982,1038
2205,987,1037
2206,992,1038
2207,993,1038
2208,992,1041
2209,991,1044
2210,987,1049
2211,977,1049
2212,967,1053
2213,957,1050
2214,958,1050
2215,962,1043
2216,967,1042
2217,976,1041
2218,982,1040
2219,987,1040
2220,990,1041
2221,989,1042
2222,989,1041
2223,988,1041
2224,987,1038
2225,983,1041
2226,980,1041
2227,977,1039
2228,974,1041
2229,978,1039
2230,979,1042
2231,984,1040
2232,987,1038
2233,989,1037
2234,994,1033
2235,1001,1028
2236,1006,1023
2237,1013,1020
2238,1011,1021
2239,999,1027
2240,987,1030
2241,978,1031
2242,974,1034
2243,977,1034
2244,984,1029
2245,995,1023
2246,1003,1019
2247,1011,1016
2248,1015,1011
2249,1013,1008
2250,1012,1004
2251,1018,997
2252,1022,996
2253,1028,996
2254,1029,997
2255,1031,1002
2256,1028,1003
2257,1020,1007
2258,1014,1009
2259,1009,1010
2260,1008,1007
2261,1010,1003
2262,1016,998
2263,1020,994
2264,1027,991
2265,1034,991
2266,1039,994
2267,1039,998
2268,1032,1002
2269,1029,1008
2270,1026,1008
2271,1022,1010
2272,1021,1015
2273,1017,1018
2274,1011,1019
2275,1003,1023
2276,997,1030
2277,998,1029
2278,998,1033
2279,999,1035
2280,1003,1039
2281,1005,1043
2282,1004,1043
2283,1000,1046
2284,1000,1045
2285,999,1046
2286,1001,1041
2287,1004,1039
2288,1006,1039
2289,1005,1046
2290,997,1053
2291,983,1064
2292,968,1067
2293,959,1069
2294,958,1066
2295,962,1066
2296,968,1059
2297,974,1056
2298,979,1054
2299,981,1052
2300,981,1053
2301,984,1054
2302,981,1053
2303,986,1052
2304,992,1048
2305,1002,1050
2306,1005,1051
2307,995,1059
2308,981,1065
2309,959,1072
2310,945,1069
2311,943,1065
2312,949,1061
2313,962,1060
2314,973,1059
2315,982,1057
2316,986,1057
2317,988,1057
2318,991,1056
2319,986,1056
2320,983,1055
2321,982,1053
2322,974,1057
2323,972,1056
2324,968,1056
2325,969,1055
2326,971,1058
2327,973,1056
2328,979,1055
2329,985,1056
2330,986,1058
2331,984,1055
2332,980,1058
2333,981,1055
2334,980,1054
2335,977,1054
2336,978,1054
2337,982,1055
2338,984,1056
2339,983,1059
2340,981,1059
2341,981,1061
2342,980,1062
2343,980,1059
2344,982,1057
2345,981,1053
2346,980,1053
2347,976,1055
2348,974,1056
2349,974,1057
2350,974,1058
2351,975,1060
2352,977,1060
2353,979,1058
2354,982,1057
2355,985,1056
2356,985,1053
2357,985,1054
2358,982,1055
2359,978,1056
2360,975,1052
2361,973,1054
2362,973,1057
2363,971,1058
2364,974,1061
2365,975,1061
2366,974,1059
2367,976,1057
2368,978,1054
2369,981,1053
2370,981,1050
2371,979,1051
2372,977,1052
2373,976,1053
2374,974,1056
2375,978,1059
2376,975,1060
2377,977,1058
2378,974,1057
2379,972,1056
2380,971,1055
2381,975,1053
2382,977,1051
2383,976,1051
2384,974,1053
2385,975,1053
2386,971,1056
2387,969,1057
2388,973,1059
2389,977,1056
2390,980,1057
2391,979,1056
2392,978,1056
2393,975,1057
2394,974,1053
2395,974,1053
2396,971,1054
2397,967,1054
2398,964,1058
2399,966,1057
2400,968,1058
2401,975,1058
2402,976,1058
2403,975,1056
2404,976,1053
2405,975,1053
2406,976,1050
2407,974,1051
2408,972,1053
2409,972,1053
2410,972,1055
2411,975,1056
2412,975,1057
2413,974,1056
2414,976,1055
2415,971,1055
2416,972,1054
2417,973,1050
2418,974,1048
2419,977,1047
2420,979,1050
2421,977,1050
2422,974,1053
2423,970,1056
2424,969,1056
2425,971,1055
2426,978,1054
2427,981,1051
2428,983,1052
2429,980,1052
2430,977,1052
2431,970,1052
2432,970,1051
2433,972,1050
2434,973,1051
2435,976,1052
2436,975,1058
2437,974,1061
2438,972,1057
2439,974,1055
2440,973,1057
2441,974,1057
2442,977,1055
2443,978,1052
2444,975,1053
2445,976,1056
2446,973,1058
2447,974,1060
2448,975,1062
2449,976,1060
2450,979,1057
2451,979,1053
2452,984,1053
2453,982,1053
2454,983,1050
2455,975,1053
2456,970,1056
2457,965,1057
2458,964,1060
2459,966,1055
2460,973,1059
2461,977,1058
2462,980,1058
2463,979,1057
2464,980,1056
2465,976,1054
2466,976,1054
2467,979,1052
2468,977,1053
2469,976,1053
2470,973,1056
2471,976,1056
2472,973,1057
2473,974,1058
2474,975,1057
2475,973,1059
2476,967,1060
2477,964,1058
2478,964,1057
2479,967,1056
2480,969,1057
2481,973,1053
2482,976,1055
2483,978,1055
2484,978,1055
2485,976,1058
2486,974,1058
2487,972,1060
2488,974,1059
2489,974,1056
2490,975,1052
2491,974,1049
2492,974,1050
2493,976,1050
2494,976,1053
2495,977,1054
2496,975,1058
2497,974,1060
2498,974,1059
2499,973,1058
2500,974,1054
2501,978,1054
2502,981,1048
2503,982,1051
2504,978,1053
2505,972,1057
2506,969,1057
2507,965,1057
2508,967,1061
2509,971,1058
2510,973,1057
2511,976,1056
2512,978,1054
2513,976,1056
2514,974,1053
2515,970,1055
2516,967,1056
2517,967,1053
2518,968,1055
2519,972,1054
2520,976,1056
2521,984,1056
2522,986,1052
2523,984,1055
2524,980,1055
2525,975,1054
2526,970,1050
2527,970,1052
2528,971,1054
2529,973,1054
2530,973,1058
2531,967,1060
2532,968,1062
2533,970,1058
2534,974,1058
2535,979,1054
2536,982,1050
2537,986,1049
2538,986,1049
2539,981,1052
2540,972,1053
2541,968,1052
2542,966,1054
2543,965,1055
2544,965,1059
2545,970,1056
2546,973,1057
2547,971,1059
2548,971,1058
2549,970,1056
2550,965,1054
2551,966,1052
2552,967,1052
2553,969,1049
2554,973,1049
2555,981,1050
2556,986,1048
2557,992,1048
2558,993,1049
2559,989,1049
2560,987,1050
2561,980,1051
2562,974,1055
2563,967,1057
2564,963,1058
2565,962,1059
2566,960,1059
2567,963,1058
2568,969,1058
2569,972,1057
2570,976,1054
2571,976,1053
2572,978,1053
2573,975,1051
2574,977,1048
2575,980,1046
2576,983,1042
2577,988,1045
2578,988,1046
2579,991,1053
2580,983,1056
2581,977,1060
2582,972,1060
2583,968,1059
2584,967,1059
2585,965,1054
2586,970,1052
2587,970,1050
2588,973,1047
2589,976,1045
2590,977,1049
2591,983,1052
2592,983,1053
2593,983,1056
2594,980,1055
2595,979,1055
2596,976,1054
2597,974,1052
2598,976,1049
2599,975,1046
2600,978,1050
2601,979,1049
2602,980,1052
2603,978,1053
2604,975,1056
2605,973,1055
2606,972,1054
2607,975,1056
2608,977,1052
2609,979,1050
2610,979,1049
2611,979,1050
2612,982,1050
2613,979,1050
2614,977,1051
2615,977,1055
2616,977,1054
2617,976,1058
2618,974,1057
2619,976,1054
2620,976,1051
2621,980,1050
2622,980,1047
2623,972,1049
2624,969,1050
2625,965,1052
2626,963,1055
2627,962,1056
2628,969,1056
2629,975,1053
2630,978,1051
2631,984,1049
2632,987,1047
2633,986,1048
2634,987,1049
2635,987,1047
2636,982,1048
2637,984,1047
2638,986,1048
2639,985,1051
2640,984,1054
2641,981,1059
2642,972,1060
2643,967,1063
2644,966,1062
2645,966,1057
2646,970,1052
2647,973,1052
2648,976,1050
2649,977,1052
2650,977,1055
2651,975,1056
2652,976,1054
2653,979,1055
2654,982,1054
2655,980,1054
2656,981,1052
2657,981,1049
2658,980,1052
2659,980,1052
2660,978,1051
2661,977,1051
2662,978,1050
2663,981,1052
2664,980,1053
2665,984,1055
2666,981,1055
2667,980,1055
2668,979,1055
2669,975,1051
2670,977,1047
2671,981,1045
2672,986,1044
2673,987,1044
2674,986,1050
2675,980,1055
2676,977,1057
2677,973,1058
2678,975,1056
2679,977,1055
2680,973,1053
2681,973,1052
2682,973,1050
2683,974,1048
2684,978,1049
2685,980,1047
2686,981,1052
2687,983,1053
2688,980,1057
2689,976,1059
2690,974,1059
2691,971,1057
2692,972,1056
2693,979,1050
2694,981,1048
2695,982,1045
2696,984,1046
2697,982,1050
2698,978,1050
2699,976,1056
2700,974,1057
2701,973,1058
2702,977,1056
2703,979,1052
2704,983,1048
2705,983,1050
2706,979,1049
2707,980,1048
2708,979,1049
2709,981,1048
2710,979,1050
2711,980,1049
2712,979,1054
2713,978,1055
2714,979,1058
2715,975,1056
2716,971,1056
2717,970,1050
2718,974,1048
2719,977,1051
2720,978,1050
2721,979,1049
2722,979,1052
2723,977,1054
2724,977,1056
2725,975,1056
2726,975,1055
2727,974,1053
2728,979,1053
2729,981,1048
2730,984,1046
2731,984,1047
2732,986,1050
2733,980,1048
2734,975,1053
2735,973,1052
2736,974,1052
2737,978,1053
2738,984,1049
2739,989,1047
2740,992,1046
2741,990,1048
2742,983,1048
2743,976,1052
2744,971,1053
2745,970,1057
2746,971,1055
2747,976,1055
2748,980,1060
2749,984,1058
2750,988,1055
2751,992,1056
2752,995,1054
2753,993,1052
2754,1000,1048
2755,1003,1046
2756,1000,1048
2757,995,1054
2758,987,1055
2759,983,1058
2760,984,1058
2761,984,1056
2762,988,1054
2763,991,1051
2764,989,1050
2765,990,1047
2766,989,1050
2767,990,1045
2768,988,1041
2769,985,1044
2770,985,1043
2771,986,1046
2772,988,1043
2773,988,1046
2774,988,1044
2775,989,1045
2776,986,1043
2777,984,1041
2778,984,1043
2779,983,1045
2780,982,1045
2781,982,1045
2782,986,1051
2783,984,1052
2784,982,1055
2785,983,1056
2786,980,1055
2787,976,1055
2788,975,1053
2789,972,1052
2790,971,1048
2791,968,1050
2792,966,1050
2793,970,1050
2794,974,1053
2795,976,1055
2796,978,1056
2797,978,1057
2798,977,1057
2799,975,1056
2800,972,1059
2801,972,1057
2802,972,1054
2803,975,1051
2804,975,1049
2805,981,1051
2806,982,1052
2807,982,1055
2808,981,1057
2809,978,1058
2810,977,1056
2811,978,1056
2812,980,1053
2813,982,1051
2814,984,1049
2815,980,1051
2816,977,1054
2817,973,1056
2818,974,1063
2819,976,1066
2820,980,1071
2821,985,1075
2822,990,1074
2823,992,1072
2824,1001,1063
2825,1009,1041
2826,1021,1021
2827,1039,997
2828,1057,971
2829,1076,947
2830,1082,931
2831,1072,923
2832,1042,929
2833,1001,946
2834,962,976
2835,933,1016
2836,919,1055
2837,915,1086
2838,917,1109
2839,920,1122
2840,927,1125
2841,932,1125
2842,936,1125
2843,938,1127
2844,935,1134
2845,932,1137
2846,929,1144
2847,930,1147
2848,933,1152
2849,937,1154
2850,938,1161
2851,938,1166
2852,934,1167
2853,936,1170
2854,936,1171
2855,937,1170
2856,939,1166
2857,942,1161
2858,941,1151
2859,939,1139
2860,941,1126
2861,945,1110
2862,948,1094
2863,952,1085
2864,958,1074
2865,963,1063
2866,968,1055
2867,975,1052
2868,980,1050
2869,984,1049
2870,983,1050
2871,979,1052
2872,976,1051
2873,973,1047
2874,975,1042
2875,976,1040
2876,979,1039
2877,981,1042
2878,979,1043
2879,976,1048
2880,975,1050
2881,972,1052
2882,968,1049
2883,969,1048
2884,969,1048
2885,972,1042
2886,974,1041
2887,977,1040
2888,979,1038
2889,983,1040
2890,984,1040
2891,985,1043
2892,985,1045
2893,985,1043
2894,985,1043
2895,983,1044
2896,980,1042
2897,979,1039
2898,981,1035
2899,983,1031
2900,988,1028
2901,991,1030
2902,989,1034
2903,984,1041
2904,977,1048
2905,971,1046
2906,974,1040
2907,978,1036
2908,984,1030
2909,989,1030
2910,993,1026
2911,994,1022
2912,993,1019
2913,997,1020
2914,1000,1020
2915,1004,1020
2916,1004,1021
2917,1003,1024
2918,999,1024
2919,994,1020
2920,997,1019
2921,1000,1013
2922,1007,1010
2923,1010,1004
2924,1013,1003
2925,1016,1002
2926,1014,1004
2927,1016,1005
2928,1015,1006
2929,1017,1006
2930,1019,1006
2931,1019,1003
2932,1018,999
2933,1017,996
2934,1015,996
2935,1015,999
2936,1011,1000
2937,1012,1004
2938,1012,1004
2939,1011,1003
2940,1016,1005
2941,1022,1005
2942,1027,1003
2943,1030,1004
2944,1032,1006
2945,1026,1012
2946,1021,1014
2947,1014,1018
2948,1008,1021
2949,1007,1021
2950,1006,1023
2951,1010,1024
2952,1013,1027
2953,1014,1032
2954,1014,1036
2955,1008,1039
2956,1008,1040
2957,1008,1036
2958,1013,1037
2959,1012,1042
2960,1008,1042
2961,1002,1047
2962,996,1048
2963,995,1054
2964,997,1053
2965,999,1055
2966,1000,1056
2967,997,1056
2968,996,1057
2969,987,1057
2970,981,1056
2971,977,1053
2972,975,1052
2973,975,1052
2974,977,1050
2975,976,1050
2976,974,1050
2977,972,1049
2978,975,1048
2979,978,1046
2980,984,1046
2981,984,1047
2982,978,1049
2983,971,1048
2984,967,1051
2985,966,1049
2986,969,1050
2987,973,1050
2988,980,1049
2989,986,1052
2990,990,1050
2991,992,1052
2992,995,1053
2993,994,1051
2994,992,1051
2995,991,1049
2996,989,1047
2997,993,1048
2998,993,1048
2999,995,1049
3000,994,1051
3001,995,1051
3002,994,1051
3003,994,1051
3004,993,1049
3005,990,1047
3006,990,1046
3007,986,1046
3008,982,1049
3009,980,1051
3010,978,1051
3011,984,1052
3012,987,1056
3013,992,1058
3014,992,1060
3015,989,1062
3016,985,1064
3017,985,1065
3018,987,1062
3019,986,1061
3020,989,1061
3021,989,1061
3022,988,1061
3023,987,1061
3024,987,1063
3025,989,1064
3026,988,1064
3027,990,1058
3028,994,1056
3029,995,1054
3030,995,1055
3031,993,1055
3032,987,1059
3033,982,1062
3034,984,1063
3035,986,1064
3036,989,1063
3037,993,1063
3038,996,1060
3039,996,1058
3040,996,1058
3041,992,1058
3042,986,1058
3043,979,1061
3044,975,1065
3045,974,1065
3046,977,1063
3047,980,1064
3048,983,1064
3049,988,1064
3050,995,1062
3051,993,1062
3052,994,1060
3053,991,1060
3054,989,1061
3055,986,1067
3056,986,1073
3057,981,1078
3058,985,1083
3059,990,1084
3060,995,1079
3061,1003,1068
3062,1016,1044
3063,1027,1018
3064,1043,988
3065,1061,962
3066,1073,941
3067,1080,924
3068,1069,921
3069,1047,922
3070,1013,935
3071,980,957
3072,952,989
3073,936,1027
3074,931,1068
3075,925,1103
3076,928,1129
3077,932,1140
3078,940,1142
3079,947,1140
3080,951,1133
3081,952,1136
3082,949,1137
3083,943,1144
3084,936,1152
3085,934,1160
3086,939,1167
3087,944,1173
3088,951,1175
3089,949,1180
3090,946,1183
3091,940,1181
3092,937,1179
3093,939,1176
3094,940,1168
3095,942,1159
3096,950,1144
3097,959,1132
3098,963,1118
3099,966,1103
3100,968,1092
3101,968,1080
3102,965,1071
3103,963,1062
3104,962,1054
3105,967,1052
3106,974,1050
3107,982,1048
3108,986,1046
3109,992,1046
3110,992,1045
3111,991,1047
3112,987,1048
3113,981,1046
3114,979,1045
3115,974,1042
3116,974,1043
3117,976,1042
3118,977,1043
3119,980,1044
3120,981,1048
3121,984,1045
3122,984,1045
3123,985,1044
3124,987,1043
3125,988,1039
3126,988,1036
3127,989,1033
3128,986,1032
3129,990,1032
3130,992,1036
3131,990,1040
3132,986,1043
3133,982,1046
3134,981,1043
3135,977,1042
3136,980,1036
3137,984,1033
3138,987,1030
3139,989,1029
3140,989,1029
3141,987,1031
3142,986,1031
3143,986,1033
3144,987,1034
3145,987,1033
3146,992,1026
3147,995,1025
3148,998,1023
3149,997,1022
3150,997,1019
3151,998,1018
3152,998,1014
3153,999,1012
3154,1001,1010
3155,1004,1008
3156,1008,1009
3157,1008,1007
3158,1010,1004
3159,1010,1003
3160,1013,1002
3161,1011,998
3162,1012,998
3163,1012,997
3164,1012,993
3165,1013,991
3166,1018,991
3167,1021,991
3168,1027,990
3169,1028,992
3170,1030,992
3171,1026,993
3172,1019,995
3173,1016,996
3174,1013,994
3175,1012,999
3176,1011,1000
3177,1013,1004
3178,1012,1005
3179,1017,1009
3180,1017,1015
3181,1018,1019
3182,1016,1020
3183,1016,1024
3184,1013,1025
3185,1005,1028
3186,1001,1030
3187,998,1031
3188,996,1034
3189,996,1037
3190,998,1043
3191,997,1048
3192,995,1052
3193,997,1053
3194,996,1055
3195,990,1055
3196,991,1055
3197,989,1056
3198,986,1056
3199,984,1057
3200,982,1058
3201,980,1058
3202,978,1058
3203,978,1058
3204,982,1059
3205,986,1061
3206,984,1061
3207,979,1065
3208,974,1066
3209,970,1069
3210,967,1065
3211,971,1061
3212,974,1056
3213,981,1054
3214,985,1053
3215,988,1054
3216,995,1057
3217,995,1057
3218,996,1054
3219,996,1058
3220,992,1058
3221,982,1059
3222,976,1062
3223,967,1062
3224,966,1062
3225,969,1060
3226,973,1061
3227,977,1061
3228,984,1061
3229,987,1059
3230,993,1058
3231,994,1056
3232,996,1054
3233,995,1051
3234,988,1054
3235,979,1058
3236,975,1060
3237,969,1061
3238,972,1060
3239,976,1056
3240,979,1057
3241,983,1060
3242,986,1060
3243,987,1057
3244,983,1056
3245,988,1054
3246,988,1053
3247,986,1053
3248,985,1053
3249,983,1055
3250,983,1055
3251,982,1056
3252,984,1058
3253,987,1060
3254,987,1060
3255,981,1060
3256,980,1057
3257,979,1058
3258,979,1054
3259,978,1054
3260,975,1055
3261,976,1056
3262,977,1057
3263,980,1058
3264,984,1059
3265,985,1061
3266,981,1062
3267,977,1063
3268,976,1062
3269,974,1058
3270,975,1052
3271,978,1053
3272,977,1055
3273,979,1055
3274,975,1056
3275,978,1060
3276,978,1059
3277,978,1060
3278,978,1059
3279,977,1059
3280,977,1059
3281,975,1058
3282,974,1055
3283,972,1056
3284,973,1055
3285,972,1057
3286,976,1056
3287,979,1056
3288,983,1058
3289,983,1058
3290,982,1058
3291,978,1059
3292,977,1060
3293,972,1059
3294,969,1057
3295,968,1056
3296,968,1056
3297,971,1055
3298,977,1056
3299,979,1059
3300,983,1058
3301,982,1058
3302,984,1055
3303,982,1055
3304,982,1056
3305,979,1055
3306,974,1054
3307,972,1054
3308,970,1054
3309,972,1053
3310,973,1056
3311,976,1057
3312,975,1060
3313,974,1060
3314,974,1059
3315,973,1058
3316,978,1057
3317,978,1056
3318,979,1054
3319,976,1054
3320,975,1053
3321,975,1051
3322,977,1055
3323,980,1056
3324,979,1061
3325,975,1060
3326,973,1061
3327,973,1060
3328,972,1058
3329,973,1055
3330,973,1052
3331,971,1051
3332,971,1053
3333,973,1051
3334,975,1052
3335,980,1052
3336,983,1055
3337,983,1053
3338,979,1056
3339,974,1058
3340,971,1059
3341,969,1058
3342,968,1054
3343,970,1050
3344,971,1050
3345,973,1054
3346,974,1054
3347,972,1055
3348,970,1054
3349,973,1056
3350,978,1055
3351,980,1053
3352,979,1052
3353,979,1051
3354,977,1049
3355,973,1047
3356,971,1049
3357,973,1052
3358,975,1053
3359,978,1054
3360,978,1053
3361,979,1055
3362,976,1053
3363,974,1055
3364,971,1058
3365,967,1057
3366,967,1055
3367,965,1054
3368,967,1051
3369,969,1050
3370,973,1055
3371,976,1054
3372,976,1056
3373,976,1057
3374,974,1057
3375,972,1054
3376,971,1053
3377,969,1052
3378,972,1050
3379,972,1047
3380,977,1048
3381,977,1048
3382,974,1052
3383,971,1054
3384,969,1058
3385,967,1058
3386,968,1058
3387,969,1057
3388,972,1055
3389,973,1048
3390,976,1048
3391,979,1044
3392,981,1044
3393,979,1049
3394,976,1053
3395,976,1059
3396,972,1061
3397,966,1062
3398,963,1062
3399,964,1057
3400,965,1055
3401,971,1051
3402,974,1050
3403,973,1049
3404,970,1052
3405,970,1053
3406,972,1055
3407,972,1054
3408,975,1055
3409,982,1055
3410,983,1054
3411,980,1056
3412,974,1058
3413,968,1053
3414,967,1054
3415,967,1051
3416,974,1044
3417,980,1046
3418,981,1047
3419,981,1055
3420,972,1059
3421,965,1060
3422,960,1059
3423,960,1060
3424,964,1058
3425,971,1056
3426,975,1050
3427,978,1049
3428,979,1050
3429,979,1050
3430,975,1054
3431,972,1055
3432,969,1056
3433,972,1059
3434,975,1055
3435,975,1054
3436,979,1051
3437,978,1050
3438,975,1049
3439,975,1048
3440,970,1051
3441,967,1056
3442,967,1056
3443,967,1055
3444,973,1056
3445,977,1055
3446,978,1051
3447,980,1051
3448,981,1051
3449,978,1048
3450,977,1048
3451,977,1050
3452,975,1052
3453,971,1053
3454,968,1056
3455,969,1057
3456,970,1059
3457,970,1057
3458,972,1059
3459,970,1055
3460,971,1054
3461,973,1051
3462,974,1047
3463,974,1049
3464,974,1050
3465,974,1051
3466,970,1054
3467,971,1056
3468,972,1058
3469,974,1060
3470,977,1056
3471,978,1053
3472,980,1054
3473,978,1051
3474,975,1051
3475,968,1051
3476,966,1049
3477,967,1048
3478,967,1054
3479,967,1056
3480,962,1058
3481,967,1059
3482,970,1054
3483,972,1053
3484,974,1052
3485,975,1051
3486,971,1051
3487,973,1051
3488,970,1050
3489,968,1050
3490,967,1052
3491,965,1055
3492,966,1056
3493,967,1056
3494,972,1055
3495,970,1052
3496,971,1050
3497,971,1050
3498,966,1050
3499,969,1048
3500,966,1053
3501,965,1054
3502,968,1053
3503,968,1055
3504,970,1054
3505,971,1052
3506,975,1053
3507,978,1049
3508,979,1052
3509,977,1051
3510,970,1052
3511,964,1051
3512,960,1049
3513,961,1050
3514,965,1052
3515,967,1050
3516,969,1055
3517,970,1056
3518,973,1055
3519,974,1057
3520,976,1054
3521,972,1053
3522,969,1051
3523,969,1050
3524,965,1051
3525,965,1052
3526,966,1052
3527,966,1053
3528,970,1053
3529,973,1052
3530,974,1051
3531,976,1052
3532,975,1052
3533,974,1052
3534,973,1052
3535,969,1052
3536,968,1053
3537,965,1055
3538,966,1054
3539,965,1056
3540,966,1057
3541,967,1058
3542,968,1056
3543,971,1056
3544,971,1054
3545,971,1052
3546,970,1050
3547,968,1052
3548,965,1052
3549,965,1053
3550,964,1054
3551,965,1054
3552,967,1056
3553,970,1055
3554,973,1051
3555,977,1048
3556,980,1047
3557,983,1043
3558,981,1045
3559,978,1046
3560,971,1050
3561,964,1053
3562,962,1054
3563,961,1055
3564,963,1054
3565,968,1055
3566,971,1055
3567,969,1054
3568,970,1054
3569,964,1052
3570,961,1052
3571,959,1052
3572,961,1051
3573,968,1049
3574,972,1049
3575,978,1049
3576,981,1052
3577,983,1053
3578,978,1054
3579,973,1056
3580,969,1055
3581,965,1054
3582,966,1051
3583,972,1048
3584,975,1050
3585,980,1052
3586,983,1056
3587,979,1060
3588,978,1063
3589,976,1063
3590,980,1061
3591,984,1058
3592,992,1055
3593,993,1053
3594,994,1053
3595,990,1050
3596,984,1056
3597,978,1056
3598,970,1060
3599,970,1063
3600,970,1061
3601,974,1058
3602,980,1052
3603,984,1051
3604,985,1047
3605,986,1045
3606,988,1044
3607,987,1047
3608,985,1045
3609,979,1046
3610,976,1049
3611,976,1050
3612,978,1048
3613,979,1049
3614,980,1047
3615,977,1048
3616,975,1047
3617,974,1046
3618,974,1046
3619,975,1049
3620,973,1052
3621,971,1052
3622,968,1055
3623,964,1058
3624,965,1059
3625,966,1059
3626,968,1057
3627,966,1057
3628,970,1057
3629,968,1053
3630,969,1052
3631,964,1054
3632,959,1056
3633,959,1056
3634,958,1058
3635,962,1060
3636,967,1057
3637,972,1056
3638,976,1058
3639,975,1058
3640,974,1057
3641,967,1057
3642,966,1060
3643,963,1058
3644,962,1055
3645,963,1054
3646,968,1054
3647,973,1053
3648,974,1055
3649,977,1055
3650,977,1059
3651,972,1060
3652,970,1063
3653,965,1059
3654,964,1059
3655,964,1056
3656,970,1058
3657,970,1060
3658,973,1066
3659,976,1072
3660,978,1077
3661,985,1079
3662,992,1072
3663,999,1059
3664,1014,1039
3665,1026,1012
3666,1040,986
3667,1049,965
3668,1054,945
3669,1051,934
3670,1038,928
3671,1019,925
3672,992,932
3673,963,949
3674,935,980
3675,919,1018
3676,912,1060
3677,911,1095
3678,911,1122
3679,913,1136
3680,910,1141
3681,913,1143
3682,916,1139
3683,922,1140
3684,922,1140
3685,926,1143
3686,925,1147
3687,920,1154
3688,921,1158
3689,926,1162
3690,933,1165
3691,940,1163
3692,939,1170
3693,941,1174
3694,940,1176
3695,937,1181
3696,930,1181
3697,931,1178
3698,931,1165
3699,935,1152
3700,940,1136
3701,945,1120
3702,946,1104
3703,951,1087
3704,956,1077
3705,962,1068
3706,966,1063
3707,969,1054
3708,969,1053
3709,970,1053
3710,972,1051
3711,975,1053
3712,977,1050
3713,981,1046
3714,981,1044
3715,980,1042
3716,979,1043
3717,978,1043
3718,974,1045
3719,970,1047
3720,967,1050
3721,966,1051
3722,969,1045
3723,970,1046
3724,971,1044
3725,968,1041
3726,967,1043
3727,966,1043
3728,965,1043
3729,969,1045
3730,969,1047
3731,972,1045
3732,975,1048
3733,978,1049
3734,978,1047
3735,982,1045
3736,985,1042
3737,984,1041
3738,983,1042
3739,981,1040
3740,979,1042
3741,977,1045
3742,973,1047
3743,969,1049
3744,971,1047
3745,975,1048
3746,979,1044
3747,982,1041
3748,986,1041
3749,985,1037
3750,985,1032
3751,987,1027
3752,989,1024
3753,995,1024
3754,1001,1025
3755,1002,1030
3756,996,1036
3757,992,1039
3758,985,1037
3759,983,1030
3760,988,1024
3761,992,1021
3762,998,1016
3763,1000,1017
3764,995,1016
3765,990,1017
3766,988,1016
3767,992,1015
3768,997,1016
3769,1001,1014
3770,1005,1014
3771,1009,1010
3772,1010,1008
3773,1016,1003
3774,1018,998
3775,1019,995
3776,1017,996
3777,1016,998
3778,1012,1002
3779,1008,1006
3780,1006,1007
3781,1013,1011
3782,1016,1003
3783,1020,998
3784,1025,1000
3785,1026,1002
3786,1023,1006
3787,1011,1014
3788,1000,1022
3789,992,1024
3790,992,1022
3791,997,1024
3792,1004,1023
3793,1009,1025
3794,1013,1026
3795,1012,1028
3796,1010,1031
3797,1002,1036
3798,993,1039
3799,988,1040
3800,985,1038
3801,983,1040
3802,983,1042
3803,984,1044
3804,983,1046
3805,981,1047
3806,985,1047
3807,983,1047
3808,983,1044
3809,982,1043
3810,980,1042
3811,975,1043
3812,973,1042
3813,970,1043
3814,969,1043
3815,970,1046
3816,968,1048
3817,969,1052
3818,968,1048
3819,966,1046
3820,961,1042
3821,960,1037
3822,956,1036
3823,958,1037
3824,959,1036
3825,959,1041
3826,959,1045
3827,960,1044
3828,962,1049
3829,964,1048
3830,966,1049
3831,966,1048
3832,965,1047
3833,965,1044
3834,967,1044
3835,968,1042
3836,969,1043
3837,972,1043
3838,975,1043
3839,976,1047
3840,975,1049
3841,975,1050
3842,976,1045
3843,973,1044
3844,977,1042
3845,974,1041
3846,972,1043
3847,970,1041
3848,965,1040
3849,967,1041
3850,970,1042
3851,974,1043
3852,977,1045
3853,977,1044
3854,980,1045
3855,981,1046
3856,981,1049
3857,976,1052
3858,969,1052
3859,967,1055
3860,967,1055
3861,969,1053
3862,971,1056
3863,974,1053
3864,979,1054
3865,981,1053
3866,985,1055
3867,984,1056
3868,980,1053
3869,978,1057
3870,974,1057
3871,970,1055
3872,965,1055
3873,962,1056
3874,963,1056
3875,969,1058
3876,972,1057
3877,978,1057
3878,981,1058
3879,984,1053
3880,984,1055
3881,984,1055
3882,977,1055
3883,969,1057
3884,964,1056
3885,962,1057
3886,965,1057
3887,970,1056
3888,970,1058
3889,971,1058
3890,968,1062
3891,967,1061
3892,966,1060
3893,964,1057
3894,965,1054
3895,967,1054
3896,969,1053
3897,971,1053
3898,977,1054
3899,979,1059
3900,981,1063
3901,980,1066
3902,979,1068
3903,980,1071
3904,979,1066
3905,989,1052
3906,1003,1033
3907,1021,1010
3908,1042,987
3909,1063,969
3910,1075,952
3911,1078,942
3912,1060,944
3913,1027,955
3914,988,978
3915,947,1008
3916,921,1043
3917,907,1077
3918,904,1102
3919,911,1117
3920,916,1121
3921,924,1121
3922,936,1117
3923,939,1113
3924,939,1118
3925,931,1122
3926,923,1130
3927,914,1136
3928,916,1140
3929,921,1142
3930,930,1145
3931,939,1146
3932,941,1150
3933,942,1149
3934,937,1151
3935,932,1150
3936,931,1145
3937,930,1140
3938,937,1131
3939,940,1118
3940,941,1106
3941,945,1091
3942,946,1080
3943,945,1068
3944,948,1061
3945,950,1056
3946,951,1050
3947,955,1049
3948,958,1048
3949,968,1045
3950,973,1043
3951,979,1041
3952,983,1037
3953,986,1032
3954,989,1031
3955,984,1036
3956,974,1041
3957,966,1047
3958,955,1051
3959,947,1053
3960,947,1050
3961,952,1047
3962,960,1044
3963,963,1042
3964,968,1037
3965,970,1036
3966,969,1036
3967,972,1032
3968,979,1030
3969,987,1026
3970,993,1025
3971,996,1033
3972,990,1041
3973,976,1047
3974,964,1050
3975,954,1049
3976,952,1041
3977,956,1037
3978,959,1033
3979,967,1031
3980,967,1032
3981,974,1032
3982,974,1031
3983,976,1031
3984,977,1032
3985,981,1031
3986,984,1027
3987,983,1028
3988,985,1024
3989,985,1018
3990,988,1016
3991,990,1009
3992,997,1006
3993,1002,1008
3994,1000,1013
3995,990,1020
3996,980,1027
3997,974,1027
3998,972,1023
3999,977,1013
4000,986,1007
4001,993,1005
4002,998,998
4003,1000,997
4004,1001,999
4005,1000,996
4006,1002,997
4007,1007,996
4008,1011,997
4009,1014,996
4010,1018,995
4011,1019,996
4012,1016,994
4013,1021,995
4014,1019,994
4015,1014,996
4016,1008,1002
4017,1003,1005
4018,998,1008
4019,995,1010
4020,996,1014
4021,999,1017
4022,1002,1017
4023,1004,1018
4024,1007,1021
4025,1006,1021
4026,1001,1024
4027,998,1025
4028,997,1025
4029,999,1030
4030,999,1034
4031,997,1038
4032,988,1045
4033,986,1051
4034,979,1052
4035,975,1052
4036,975,1052
4037,971,1051
4038,970,1054
4039,965,1053
4040,962,1055
4041,962,1058
4042,965,1056
4043,969,1054
4044,974,1055
4045,976,1055
4046,979,1057
4047,977,1057
4048,977,1056
4049,973,1057
4050,966,1059
4051,962,1056
4052,957,1057
4053,952,1063
4054,952,1065
4055,951,1067
4056,953,1066
4057,961,1064
4058,966,1063
4059,967,1060
4060,969,1058
4061,967,1056
4062,968,1054
4063,964,1053
4064,962,1051
4065,964,1053
4066,965,1052
4067,971,1052
4068,972,1055
4069,974,1057
4070,974,1058
4071,974,1057
4072,971,1057
4073,967,1057
4074,965,1055
4075,962,1053
4076,961,1054
4077,962,1056
4078,964,1055
4079,969,1054
4080,972,1055
4081,975,1057
4082,976,1057
4083,974,1059
4084,970,1058
4085,967,1055
4086,963,1053
4087,959,1050
4088,956,1050
4089,960,1051
4090,959,1053
4091,961,1055
4092,963,1056
4093,966,1057
4094,970,1055
4095,970,1054
4096,973,1053
4097,973,1051
4098,971,1051
4099,970,1048
4100,970,1046
4101,971,1048
4102,970,1050
4103,972,1052
4104,970,1057
4105,966,1060
4106,964,1060
4107,960,1061
4108,962,1057
4109,965,1052
4110,969,1047
4111,973,1047
4112,971,1047
4113,970,1048
4114,967,1054
4115,963,1055
4116,961,1059
4117,961,1060
4118,960,1062
4119,960,1058
4120,961,1058
4121,962,1057
4122,962,1055
4123,963,1052
4124,964,1050
4125,967,1049
4126,970,1048
4127,973,1052
4128,972,1057
4129,966,1061
4130,961,1062
4131,953,1062
4132,953,1061
4133,952,1058
4134,952,1055
4135,956,1055
4136,956,1055
4137,961,1052
4138,966,1051
4139,967,1050
4140,971,1048
4141,978,1045
4142,990,1041
4143,995,1044
4144,991,1051
4145,976,1061
4146,953,1068
4147,935,1073
4148,924,1068
4149,927,1063
4150,935,1062
4151,950,1056
4152,961,1055
4153,969,1055
4154,973,1057
4155,972,1056
4156,969,1054
4157,963,1053
4158,961,1050
4159,960,1051
4160,958,1051
4161,959,1051
4162,962,1054
4163,964,1053
4164,969,1055
4165,971,1052
4166,978,1049
4167,979,1047
4168,982,1048
4169,976,1050
4170,969,1052
4171,959,1059
4172,955,1062
4173,948,1065
4174,944,1064
4175,945,1067
4176,947,1062
4177,956,1058
4178,962,1055
4179,967,1054
4180,969,1049
4181,969,1050
4182,969,1049
4183,963,1051
4184,960,1051
4185,958,1052
4186,956,1055
4187,956,1055
4188,958,1059
4189,960,1059
4190,961,1059
4191,963,1058
4192,963,1055
4193,963,1054
4194,962,1052
4195,962,1052
4196,960,1053
4197,961,1052
4198,965,1052
4199,966,1050
4200,970,1050
4201,977,1052
4202,979,1056
4203,972,1059
4204,967,1061
4205,960,1063
4206,955,1063
4207,951,1062
4208,948,1062
4209,949,1061
4210,951,1060
4211,953,1061
4212,958,1058
4213,966,1054
4214,975,1056
4215,979,1055
4216,977,1054
4217,973,1053
4218,967,1055
4219,961,1058
4220,955,1055
4221,951,1057
4222,949,1060
4223,951,1063
4224,950,1065
4225,953,1063
4226,957,1062
4227,961,1060
4228,963,1056
4229,965,1053
4230,967,1053
4231,968,1050
4232,969,1052
4233,967,1053
4234,967,1055
4235,966,1057
4236,966,1059
4237,964,1060
4238,964,1061
4239,963,1060
4240,964,1059
4241,965,1055
4242,965,1052
4243,967,1049
4244,968,1047
4245,972,1051
4246,975,1053
4247,975,1055
4248,972,1061
4249,969,1067
4250,962,1067
4251,957,1067
4252,959,1065
4253,962,1060
4254,961,1056
4255,965,1053
4256,966,1052
4257,966,1053
4258,969,1053
4259,971,1056
4260,970,1061
4261,966,1064
4262,964,1068
4263,959,1064
4264,961,1059
4265,964,1059
4266,967,1055
4267,966,1057
4268,963,1055
4269,967,1057
4270,967,1056
4271,967,1058
4272,970,1060
4273,974,1062
4274,970,1062
4275,968,1065
4276,963,1064
4277,961,1060
4278,956,1060
4279,956,1056
4280,962,1055
4281,965,1053
4282,968,1054
4283,970,1053
4284,975,1054
4285,978,1051
4286,977,1050
4287,977,1056
4288,969,1060
4289,962,1061
4290,955,1060
4291,953,1059
4292,958,1054
4293,965,1052
4294,970,1049
4295,973,1051
4296,973,1052
4297,968,1059
4298,966,1062
4299,962,1061
4300,960,1061
4301,961,1055
4302,965,1054
4303,965,1050
4304,967,1051
4305,965,1051
4306,967,1053
4307,966,1059
4308,964,1060
4309,965,1059
4310,964,1059
4311,966,1059
4312,966,1055
4313,968,1053
4314,968,1051
4315,967,1048
4316,966,1048
4317,967,1047
4318,972,1052
4319,977,1050
4320,979,1051
4321,980,1054
4322,982,1056
4323,975,1058
4324,966,1060
4325,959,1059
4326,955,1056
4327,956,1055
4328,955,1052
4329,957,1055
4330,963,1054
4331,966,1057
4332,971,1058
4333,974,1056
4334,972,1056
4335,975,1055
4336,976,1052
4337,976,1050
4338,976,1049
4339,977,1048
4340,974,1049
4341,974,1053
4342,972,1055
4343,968,1060
4344,965,1061
4345,963,1060
4346,966,1058
4347,967,1055
4348,971,1054
4349,974,1052
4350,975,1050
4351,974,1050
4352,976,1048
4353,977,1048
4354,978,1050
4355,978,1052
4356,975,1054
4357,974,1057
4358,974,1057
4359,974,1059
4360,974,1055
4361,973,1056
4362,971,1055
4363,971,1054
4364,967,1053
4365,966,1055
4366,967,1055
4367,969,1054
4368,968,1054
4369,973,1056
4370,973,1055
4371,972,1053
4372,972,1055
4373,969,1054
4374,967,1052
4375,967,1050
4376,966,1052
4377,964,1053
4378,969,1053
4379,970,1053
4380,971,1054
4381,972,1052
4382,975,1052
4383,974,1053
4384,974,1052
4385,977,1052
4386,973,1050
4387,971,1049
4388,968,1053
4389,967,1052
4390,967,1054
4391,967,1054
4392,971,1053
4393,976,1055
4394,978,1053
4395,976,1054
4396,975,1055
4397,970,1053
4398,969,1049
4399,970,1049
4400,970,1047
4401,972,1048
4402,972,1054
4403,972,1054
4404,973,1055
4405,973,1055
4406,978,1051
4407,976,1052
4408,975,1053
4409,973,1052
4410,967,1050
4411,963,1052
4412,961,1052
4413,962,1050
4414,966,1050
4415,971,1054
4416,975,1050
4417,979,1052
4418,981,1051
4419,982,1048
4420,984,1049
4421,981,1049
4422,980,1050
4423,977,1050
4424,974,1051
4425,971,1050
4426,971,1053
4427,971,1056
4428,972,1056
4429,976,1057
4430,980,1057
4431,985,1054
4432,986,1056
4433,988,1053
4434,989,1055
4435,990,1052
4436,988,1051
4437,990,1053
4438,988,1055
4439,986,1057
4440,983,1057
4441,983,1056
4442,986,1052
4443,989,1047
4444,990,1045
4445,993,1042
4446,995,1038
4447,997,1040
4448,993,1042
4449,986,1045
4450,980,1047
4451,974,1052
4452,971,1055
4453,968,1054
4454,971,1051
4455,974,1047
4456,981,1042
4457,985,1041
4458,988,1038
4459,987,1039
4460,984,1043
4461,981,1050
4462,979,1054
4463,972,1055
4464,971,1057
4465,970,1057
4466,972,1052
4467,974,1050
4468,971,1048
4469,976,1045
4470,977,1045
4471,978,1044
4472,980,1046
4473,976,1050
4474,971,1052
4475,966,1056
4476,964,1055
4477,965,1059
4478,968,1058
4479,970,1056
4480,971,1055
4481,973,1051
4482,971,1050
4483,971,1051
4484,968,1052
4485,966,1053
4486,964,1050
4487,969,1052
4488,973,1054
4489,972,1054
4490,973,1058
4491,971,1059
4492,969,1061
4493,965,1058
4494,964,1055
4495,962,1055
4496,964,1051
4497,968,1051
4498,974,1051
4499,979,1049
4500,982,1055
4501,987,1056
4502,989,1061
4503,991,1065
4504,993,1065
4505,996,1064
4506,1000,1057
4507,1002,1045
4508,1010,1026
4509,1027,1002
4510,1048,980
4511,1069,959
4512,1083,941
4513,1084,930
4514,1064,928
4515,1024,937
4516,979,954
4517,939,979
4518,916,1011
4519,905,1046
4520,905,1076
4521,914,1096
4522,920,1112
4523,923,1118
4524,928,1122
4525,929,1122
4526,930,1123
4527,929,1123
4528,929,1128
4529,925,1130
4530,922,1134
4531,924,1135
4532,928,1143
4533,936,1147
4534,938,1154
4535,941,1156
4536,943,1159
4537,942,1162
4538,941,1165
4539,937,1164
4540,935,1159
4541,932,1156
4542,928,1144
4543,927,1136
4544,928,1126
4545,933,1110
4546,940,1097
4547,947,1084
4548,958,1070
4549,964,1064
4550,970,1058
4551,970,1054
4552,972,1052
4553,971,1052
4554,967,1047
4555,966,1044
4556,967,1043
4557,967,1044
4558,969,1043
4559,972,1044
4560,976,1044
4561,980,1045
4562,980,1044
4563,980,1046
4564,977,1048
4565,974,1045
4566,971,1044
4567,969,1042
4568,967,1041
4569,968,1041
4570,969,1043
4571,969,1043
4572,972,1043
4573,976,1042
4574,982,1039
4575,984,1040
4576,984,1042
4577,979,1041
4578,973,1042
4579,969,1043
4580,966,1043
4581,968,1039
4582,975,1037
4583,984,1036
4584,989,1037
4585,990,1041
4586,986,1044
4587,977,1045
4588,971,1044
4589,969,1040
4590,972,1035
4591,977,1032
4592,983,1029
4593,987,1029
4594,990,1030
4595,985,1033
4596,986,1033
4597,985,1033
4598,987,1030
4599,986,1025
4600,986,1024
4601,989,1020
4602,992,1019
4603,994,1017
4604,994,1015
4605,1000,1011
4606,1003,1013
4607,1000,1015
4608,1003,1014
4609,1002,1015
4610,1007,1011
4611,1009,1010
4612,1009,1005
4613,1011,1003
4614,1011,1002
4615,1008,1000
4616,1005,1000
4617,1004,999
4618,1003,999
4619,1006,998
4620,1006,999
4621,1010,998
4622,1015,997
4623,1019,995
4624,1020,996
4625,1018,996
4626,1015,994
4627,1014,996
4628,1011,996
4629,1012,999
4630,1011,1001
4631,1012,1007
4632,1011,1010
4633,1012,1011
4634,1013,1015
4635,1013,1016
4636,1012,1018
4637,1014,1018
4638,1012,1021
4639,1013,1023
4640,1012,1020
4641,1012,1027
4642,1010,1030
4643,1007,1034
4644,1004,1040
4645,1001,1047
4646,999,1049
4647,995,1051
4648,991,1051
4649,989,1050
4650,992,1047
4651,990,1044
4652,990,1045
4653,988,1047
4654,990,1049
4655,987,1054
4656,986,1056
4657,979,1059
4658,976,1060
4659,970,1056
4660,969,1057
4661,971,1049
4662,971,1046
4663,972,1042
4664,971,1041
4665,970,1040
4666,968,1041
4667,968,1043
4668,967,1046
4669,968,1051
4670,969,1048
4671,968,1047
4672,972,1047
4673,973,1046
4674,973,1044
4675,972,1042
4676,974,1043
4677,976,1046
4678,982,1044
4679,987,1046
4680,991,1048
4681,992,1050
4682,990,1050
4683,988,1047
4684,984,1048
4685,982,1047
4686,980,1048
4687,977,1047
4688,975,1046
4689,975,1046
4690,976,1043
4691,980,1046
4692,980,1046
4693,984,1047
4694,986,1047
4695,987,1045
4696,986,1045
4697,986,1047
4698,988,1042
4699,990,1042
4700,989,1042
4701,989,1047
4702,986,1051
4703,980,1060
4704,974,1066
4705,973,1068
4706,974,1066
4707,977,1059
4708,983,1052
4709,989,1050
4710,994,1048
4711,991,1049
4712,989,1052
4713,981,1057
4714,976,1059
4715,974,1062
4716,971,1063
4717,975,1061
4718,981,1058
4719,984,1057
4720,989,1056
4721,991,1054
4722,987,1056
4723,983,1057
4724,977,1056
4725,971,1056
4726,973,1055
4727,975,1058
4728,978,1062
4729,980,1058
4730,983,1057
4731,984,1059
4732,987,1055
4733,986,1054
4734,987,1051
4735,987,1050
4736,987,1052
4737,986,1051
4738,980,1058
4739,976,1061
4740,973,1066
4741,976,1071
4742,976,1074
4743,978,1077
4744,980,1078
4745,979,1077
4746,984,1066
4747,996,1047
4748,1011,1019
4749,1034,989
4750,1060,961
4751,1076,938
4752,1086,926
4753,1075,923
4754,1049,928
4755,1010,943
4756,969,966
4757,932,995
4758,915,1029
4759,913,1066
4760,917,1100
4761,926,1121
4762,939,1133
4763,945,1134
4764,946,1134
4765,949,1131
4766,948,1126
4767,944,1128
4768,944,1127
4769,946,1129
4770,949,1133
4771,951,1141
4772,953,1149
4773,950,1160
4774,945,1166
4775,939,1170
4776,934,1174
4777,932,1173
4778,931,1171
4779,933,1164
4780,935,1155
4781,936,1142
4782,938,1130
4783,942,1113
4784,947,1095
4785,953,1079
4786,959,1064
4787,972,1051
4788,983,1039
4789,995,1035
4790,997,1031
4791,992,1035
4792,984,1040
4793,975,1044
4794,963,1045
4795,958,1042
4796,960,1039
4797,962,1039
4798,967,1038
4799,974,1037
4800,976,1036
4801,981,1036
4802,982,1034
4803,980,1035
4804,982,1034
4805,983,1031
4806,985,1028
4807,984,1030
4808,980,1032
4809,974,1035
4810,973,1037
4811,972,1037
4812,976,1038
4813,981,1035
4814,982,1033
4815,984,1032
4816,987,1031
4817,984,1031
4818,979,1029
4819,975,1030
4820,971,1028
4821,970,1027
4822,974,1029
4823,978,1027
4824,980,1028
4825,987,1028
4826,989,1027
4827,994,1023
4828,993,1023
4829,993,1019
4830,990,1018
4831,986,1018
4832,984,1018
4833,982,1018
4834,984,1014
4835,989,1014
4836,997,1010
4837,1002,1009
4838,1003,1010
4839,1002,1008
4840,1001,1006
4841,998,1001
4842,1000,997
4843,1005,995
4844,1007,991
4845,1012,990
4846,1013,995
4847,1015,996
4848,1011,999
4849,1009,999
4850,1008,996
4851,1009,993
4852,1011,990
4853,1012,988
4854,1015,987
4855,1017,986
4856,1016,989
4857,1013,990
4858,1009,991
4859,1007,993
4860,1009,995
4861,1012,998
4862,1016,1002
4863,1018,1006
4864,1016,1008
4865,1014,1008
4866,1012,1009
4867,1009,1010
4868,1005,1011
4869,1007,1016
4870,1007,1018
4871,1005,1023
4872,1002,1032
4873,998,1033
4874,993,1036
4875,988,1042
4876,984,1043
4877,983,1041
4878,984,1042
4879,988,1040
4880,991,1043
4881,991,1046
4882,985,1048
4883,978,1052
4884,979,1051
4885,977,1053
4886,975,1054
4887,972,1055
4888,969,1057
4889,965,1055
4890,966,1051
4891,967,1048
4892,970,1046
4893,973,1048
4894,974,1051
4895,972,1053
4896,967,1055
4897,967,1055
4898,969,1055
4899,972,1054
4900,973,1051
4901,976,1050
4902,974,1051
4903,976,1046
4904,976,1047
4905,978,1045
4906,979,1048
4907,976,1051
4908,975,1053
4909,976,1053
4910,973,1053
4911,975,1052
4912,976,1051
4913,975,1051
4914,975,1051
4915,974,1047
4916,972,1048
4917,973,1048
4918,974,1049
4919,976,1050
4920,979,1050
4921,979,1052
4922,977,1053
4923,975,1051
4924,976,1052
4925,973,1048
4926,974,1045
4927,974,1043
4928,975,1048
4929,975,1049
4930,976,1051
4931,978,1051
4932,978,1053
4933,981,1050
4934,984,1051
4935,985,1050
4936,984,1051
4937,979,1051
4938,973,1048
4939,970,1046
4940,969,1047
4941,971,1048
4942,976,1049
4943,978,1049
4944,980,1049
4945,977,1050
4946,975,1054
4947,973,1053
4948,972,1054
4949,967,1053
4950,969,1048
4951,970,1045
4952,971,1044
4953,974,1045
4954,976,1048
4955,977,1048
4956,975,1051
4957,972,1052
4958,976,1051
4959,975,1049
4960,976,1048
4961,981,1047
4962,977,1048
4963,976,1046
4964,974,1044
4965,974,1045
4966,975,1048
4967,976,1049
4968,972,1052
4969,971,1051
4970,972,1051
4971,969,1051
4972,972,1053
4973,971,1052
4974,973,1048
4975,971,1048
4976,971,1048
4977,969,1046
4978,967,1048
4979,969,1049
4980,971,1050
4981,975,1050
4982,979,1049
4983,979,1048
4984,977,1050
4985,974,1047
4986,971,1047
4987,970,1045
4988,970,1045
4989,973,1045
4990,972,1047
4991,974,1047
4992,975,1052
4993,976,1052
4994,978,1051
4995,978,1050
4996,978,1051
4997,978,1050
4998,975,1048
4999,974,1045
5000,973,1045
5001,971,1046
5002,973,1045
5003,975,1047
5004,976,1046
5005,976,1050
5006,974,1049
5007,977,1049
5008,977,1052
5009,976,1047
5010,973,1044
5011,972,1043
5012,971,1044
5013,972,1045
5014,973,1051
5015,971,1051
5016,973,1051
5017,972,1050
5018,976,1045
5019,976,1047
5020,976,1046
5021,975,1046
5022,969,1049
5023,964,1051
5024,960,1051
5025,961,1051
5026,966,1047
5027,970,1049
5028,974,1049
5029,978,1047
5030,983,1046
5031,981,1046
5032,982,1046
5033,980,1046
5034,977,1044
5035,974,1043
5036,973,1047
5037,966,1049
5038,960,1052
5039,959,1051
5040,960,1052
5041,964,1050
5042,971,1048
5043,976,1047
5044,981,1047
5045,983,1045
5046,979,1051
5047,972,1047
5048,963,1050
5049,962,1048
5050,965,1048
5051,968,1046
5052,972,1047
5053,977,1049
5054,981,1049
5055,980,1048
5056,976,1050
5057,974,1048
5058,971,1048
5059,967,1043
5060,969,1044
5061,969,1044
5062,969,1045
5063,973,1046
5064,974,1049
5065,973,1048
5066,975,1045
5067,976,1045
5068,981,1043
5069,983,1039
5070,985,1038
5071,984,1041
5072,979,1040
5073,976,1042
5074,967,1046
5075,965,1048
5076,961,1051
5077,962,1050
5078,968,1046
5079,971,1044
5080,978,1044
5081,979,1043
5082,978,1041
5083,974,1041
5084,970,1040
5085,971,1040
5086,974,1039
5087,976,1044
5088,975,1044
5089,973,1051
5090,972,1050
5091,967,1049
5092,969,1048
5093,972,1045
5094,970,1045
5095,971,1043
5096,970,1041
5097,974,1045
5098,976,1044
5099,979,1044
5100,981,1046
5101,981,1050
5102,979,1051
5103,976,1052
5104,973,1051
5105,972,1048
5106,971,1046
5107,970,1045
5108,971,1043
5109,973,1045
5110,972,1047
5111,970,1048
5112,971,1051
5113,969,1050
5114,971,1053
5115,972,1052
5116,971,1050
5117,973,1045
5118,974,1046
5119,975,1040
5120,978,1040
5121,980,1040
5122,980,1043
5123,979,1048
5124,974,1050
5125,969,1054
5126,967,1050
5127,967,1049
5128,972,1046
5129,977,1044
5130,979,1041
5131,978,1043
5132,975,1042
5133,972,1044
5134,971,1044
5135,972,1044
5136,978,1042
5137,980,1044
5138,983,1045
5139,981,1044
5140,981,1046
5141,982,1043
5142,979,1047
5143,976,1046
5144,972,1047
5145,967,1047
5146,967,1048
5147,970,1046
5148,975,1046
5149,980,1046
5150,981,1047
5151,979,1046
5152,976,1049
5153,976,1046
5154,972,1046
5155,972,1041
5156,971,1043
5157,974,1042
5158,976,1043
5159,975,1045
5160,977,1050
5161,976,1050
5162,976,1051
5163,975,1048
5164,976,1047
5165,977,1048
5166,973,1045
5167,972,1045
5168,975,1042
5169,976,1042
5170,980,1043
5171,980,1045
5172,981,1050
5173,978,1052
5174,978,1051
5175,975,1050
5176,976,1049
5177,978,1047
5178,973,1046
5179,972,1046
5180,970,1045
5181,961,1046
5182,966,1045
5183,971,1045
5184,976,1043
5185,984,1044
5186,988,1045
5187,989,1045
5188,979,1048
5189,973,1052
5190,964,1051
5191,960,1047
5192,961,1046
5193,965,1045
5194,969,1045
5195,975,1045
5196,978,1043
5197,981,1043
5198,986,1042
5199,989,1041
5200,987,1043
5201,983,1043
5202,977,1045
5203,972,1043
5204,970,1045
5205,970,1046
5206,966,1049
5207,965,1050
5208,963,1051
5209,965,1053
5210,970,1049
5211,975,1045
5212,977,1041
5213,981,1039
5214,982,1037
5215,982,1036
5216,980,1036
5217,980,1038
5218,982,1040
5219,983,1045
5220,978,1046
5221,971,1055
5222,968,1054
5223,961,1054
5224,962,1051
5225,965,1047
5226,968,1041
5227,972,1038
5228,975,1037
5229,974,1038
5230,975,1041
5231,976,1041
5232,977,1041
5233,982,1041
5234,986,1039
5235,987,1040
5236,987,1042
5237,980,1042
5238,971,1043
5239,965,1045
5240,965,1043
5241,966,1041
5242,968,1043
5243,969,1042
5244,969,1045
5245,975,1044
5246,978,1041
5247,981,1041
5248,985,1038
5249,986,1040
5250,983,1042
5251,977,1042
5252,971,1044
5253,968,1046
5254,971,1047
5255,970,1045
5256,973,1044
5257,976,1045
5258,981,1045
5259,982,1044
5260,980,1044
5261,981,1046
5262,983,1045
5263,983,1045
5264,986,1043
5265,987,1044
5266,990,1047
5267,992,1049
5268,992,1050
5269,994,1052
5270,994,1055
5271,992,1052
5272,990,1049
5273,987,1044
5274,990,1042
5275,989,1039
5276,991,1038
5277,990,1038
5278,987,1037
5279,985,1039
5280,985,1039
5281,986,1040
5282,990,1039
5283,992,1040
5284,991,1038
5285,987,1040
5286,980,1038
5287,977,1035
5288,976,1036
5289,979,1037
5290,977,1036
5291,978,1040
5292,976,1044
5293,976,1048
5294,977,1051
5295,975,1046
5296,976,1046
5297,976,1043
5298,975,1044
5299,974,1040
5300,973,1041
5301,973,1040
5302,969,1040
5303,973,1045
5304,976,1044
5305,978,1048
5306,980,1045
5307,982,1043
5308,982,1046
5309,980,1044
5310,980,1042
5311,976,1042
5312,974,1043
5313,970,1045
5314,967,1044
5315,970,1047
5316,969,1046
5317,971,1048
5318,975,1045
5319,978,1045
5320,979,1046
5321,979,1044
5322,974,1045
5323,971,1046
5324,970,1045
5325,966,1047
5326,969,1045
5327,969,1047
5328,973,1048
5329,983,1049
5330,987,1050
5331,991,1052
5332,995,1054
5333,1000,1054
5334,1003,1054
5335,1002,1049
5336,999,1042
5337,999,1029
5338,1005,1012
5339,1012,993
5340,1025,971
5341,1040,950
5342,1058,930
5343,1068,917
5344,1061,909
5345,1039,911
5346,1001,926
5347,963,954
5348,934,988
5349,919,1030
5350,917,1065
5351,918,1094
5352,926,1114
5353,930,1123
5354,933,1125
5355,935,1125
5356,934,1121
5357,931,1123
5358,930,1122
5359,927,1128
5360,925,1131
5361,930,1138
5362,935,1144
5363,943,1149
5364,948,1157
5365,949,1161
5366,945,1166
5367,940,1166
5368,933,1164
5369,932,1159
5370,932,1151
5371,934,1142
5372,937,1128
5373,943,1113
5374,946,1104
5375,951,1090
5376,957,1080
5377,960,1068
5378,964,1059
5379,966,1050
5380,970,1044
5381,975,1039
5382,977,1036
5383,979,1037
5384,979,1034
5385,976,1036
5386,975,1035
5387,978,1035
5388,982,1037
5389,984,1040
5390,980,1041
5391,973,1041
5392,973,1038
5393,974,1037
5394,976,1034
5395,975,1031
5396,977,1033
5397,977,1032
5398,977,1032
5399,982,1032
5400,981,1032
5401,985,1032
5402,985,1033
5403,985,1035
5404,984,1034
5405,979,1034
5406,977,1033
5407,975,1034
5408,971,1027
5409,974,1026
5410,977,1023
5411,984,1024
5412,989,1025
5413,990,1031
5414,987,1032
5415,985,1031
5416,982,1029
5417,985,1026
5418,987,1021
5419,990,1020
5420,989,1021
5421,987,1025
5422,984,1023
5423,982,1021
5424,982,1020
5425,989,1019
5426,993,1018
5427,998,1017
5428,998,1014
5429,996,1010
5430,994,1007
5431,994,1005
5432,996,1005
5433,997,1002
5434,1001,1002
5435,1001,1001
5436,1001,1002
5437,1002,1000
5438,1003,999
5439,1004,998
5440,1004,994
5441,1008,992
5442,1007,991
5443,1007,992
5444,1007,989
5445,1008,987
5446,1008,986
5447,1010,987
5448,1012,987
5449,1013,988
5450,1014,991
5451,1013,990
5452,1013,990
5453,1011,991
5454,1012,988
5455,1017,990
5456,1016,987
5457,1015,991
5458,1013,992
5459,1011,998
5460,1012,999
5461,1014,1004
5462,1016,1005
5463,1017,1004
5464,1019,1009
5465,1018,1011
5466,1015,1015
5467,1012,1018
5468,1007,1021
5469,1002,1027
5470,997,1029
5471,994,1032
5472,993,1037
5473,994,1040
5474,998,1041
5475,999,1040
5476,1001,1041
5477,1000,1039
5478,998,1038
5479,997,1038
5480,993,1040
5481,991,1040
5482,988,1040
5483,988,1039
5484,987,1046
5485,985,1048
5486,982,1049
5487,976,1048
5488,976,1046
5489,977,1043
5490,976,1039
5491,975,1035
5492,974,1035
5493,973,1036
5494,974,1036
5495,974,1037
5496,980,1037
5497,986,1037
5498,989,1037
5499,987,1040
5500,984,1037
5501,982,1038
5502,978,1035
5503,979,1033
5504,982,1032
5505,990,1029
5506,998,1031
5507,1002,1035
5508,1003,1042
5509,995,1048
5510,988,1052
5511,981,1048
5512,975,1047
5513,976,1043
5514,982,1038
5515,987,1037
5516,992,1034
5517,995,1037
5518,997,1041
5519,996,1042
5520,994,1043
5521,992,1045
5522,992,1047
5523,989,1046
5524,989,1044
5525,987,1044
5526,989,1045
5527,991,1046
5528,994,1045
5529,995,1048
5530,995,1050
5531,998,1055
5532,998,1056
5533,997,1057
5534,1000,1059
5535,1000,1058
5536,997,1055
5537,996,1053
5538,996,1048
5539,992,1049
5540,994,1047
5541,997,1049
5542,998,1048
5543,998,1051
5544,998,1051
5545,998,1054
5546,998,1053
5547,1001,1051
5548,1007,1051
5549,1009,1051
5550,1006,1047
5551,1002,1053
5552,998,1052
5553,992,1054
5554,988,1055
5555,992,1051
5556,997,1051
5557,1003,1051
5558,1005,1050
5559,1003,1048
5560,1000,1049
5561,999,1051
5562,998,1050
5563,996,1050
5564,992,1049
5565,989,1049
5566,995,1048
5567,998,1048
5568,1003,1050
5569,1002,1054
5570,999,1054
5571,996,1056
5572,997,1058
5573,1002,1057
5574,1007,1057
5575,1010,1058
5576,1008,1060
5577,1005,1063
5578,1005,1060
5579,1004,1050
5580,1011,1034
5581,1025,1011
5582,1043,987
5583,1060,965
5584,1072,949
5585,1087,931
5586,1088,924
5587,1076,923
5588,1047,930
5589,1009,949
5590,974,976
5591,947,1009
5592,937,1046
5593,941,1076
5594,954,1099
5595,966,1113
5596,973,1117
5597,975,1120
5598,972,1117
5599,965,1114
5600,952,1117
5601,944,1120
5602,938,1126
5603,944,1131
5604,954,1138
5605,969,1141
5606,981,1145
5607,983,1149
5608,981,1149
5609,974,1151
5610,970,1151
5611,959,1147
5612,953,1141
5613,947,1136
5614,950,1125
5615,954,1116
5616,965,1102
5617,973,1088
5618,982,1076
5619,988,1065
5620,991,1054
5621,992,1046
5622,995,1035
5623,998,1034
5624,1005,1028
5625,1007,1030
5626,1008,1031
5627,1009,1036
5628,1003,1039
5629,997,1043
5630,994,1046
5631,990,1042
5632,990,1038
5633,993,1034
5634,1001,1030
5635,1007,1028
5636,1011,1026
5637,1008,1030
5638,1003,1030
5639,998,1034
5640,996,1036
5641,994,1033
5642,997,1035
5643,999,1032
5644,1003,1028
5645,1008,1023
5646,1008,1020
5647,1009,1021
5648,1007,1021
5649,1004,1022
5650,1004,1021
5651,1003,1022
5652,1007,1022
5653,1008,1023
5654,1012,1022
5655,1013,1023
5656,1012,1018
5657,1013,1016
5658,1007,1016
5659,1008,1015
5660,1009,1012
5661,1007,1015
5662,1011,1015
5663,1010,1015
5664,1010,1018
5665,1009,1015
5666,1012,1015
5667,1015,1013
5668,1016,1013
5669,1020,1008
5670,1019,1004
5671,1020,1003
5672,1020,1001
5673,1019,997
5674,1023,997
5675,1027,998
5676,1028,997
5677,1030,995
5678,1033,995
5679,1034,993
5680,1035,992
5681,1034,988
5682,1035,984
5683,1034,981
5684,1036,981
5685,1042,979
5686,1044,981
5687,1045,984
5688,1040,986
5689,1039,987
5690,1037,984
5691,1042,983
5692,1046,980
5693,1045,977
5694,1047,977
5695,1047,978
5696,1045,981
5697,1044,983
5698,1041,986
5699,1039,990
5700,1039,994
5701,1040,998
5702,1040,1003
5703,1038,1005
5704,1035,1007
5705,1034,1008
5706,1033,1006
5707,1033,1007
5708,1028,1010
5709,1026,1017
5710,1025,1021
5711,1021,1025
5712,1016,1030
5713,1014,1034
5714,1012,1034
5715,1011,1034
5716,1010,1033
5717,1010,1033
5718,1009,1032
5719,1007,1033
5720,1007,1033
5721,1006,1033
5722,1008,1036
5723,1008,1042
5724,1005,1047
5725,1002,1048
5726,1000,1047
5727,998,1045
5728,1001,1043
5729,1003,1043
5730,1002,1039
5731,998,1040
5732,993,1043
5733,986,1046
5734,984,1043
5735,983,1048
5736,986,1047
5737,988,1046
5738,992,1046
5739,994,1046
5740,998,1046
5741,999,1043
5742,998,1042
5743,996,1038
5744,995,1039
5745,994,1038
5746,994,1037
5747,995,1043
5748,998,1039
5749,1003,1040
5750,1006,1041
5751,1005,1040
5752,998,1042
5753,996,1041
5754,990,1041
5755,985,1040
5756,988,1039
5757,992,1034
5758,1000,1034
5759,1003,1040
5760,997,1040
5761,996,1042
5762,991,1041
5763,987,1041
5764,984,1038
5765,984,1034
5766,984,1029
5767,981,1028
5768,980,1025
5769,981,1028
5770,982,1029
5771,981,1032
5772,986,1032
5773,989,1035
5774,991,1036
5775,988,1035
5776,988,1033
5777,985,1032
5778,986,1033
5779,987,1030
5780,988,1031
5781,994,1033
5782,1001,1030
5783,1005,1032
5784,1006,1037
5785,1004,1038
5786,997,1043
5787,991,1043
5788,987,1039
5789,986,1035
5790,990,1033
5791,992,1027
5792,994,1029
5793,996,1029
5794,994,1031
5795,990,1032
5796,990,1032
5797,990,1035
5798,990,1035
5799,989,1038
5800,988,1040
5801,981,1043
5802,977,1044
5803,975,1042
5804,981,1039
5805,986,1040
5806,991,1040
5807,994,1042
5808,999,1043
5809,1000,1044
5810,997,1049
5811,990,1052
5812,983,1052
5813,978,1050
5814,973,1051
5815,975,1046
5816,979,1045
5817,984,1044
5818,987,1043
5819,992,1042
5820,994,1044
5821,998,1044
5822,1003,1043
5823,1006,1044
5824,1003,1046
5825,995,1045
5826,986,1048
5827,973,1052
5828,970,1050
5829,968,1049
5830,968,1047
5831,974,1049
5832,982,1049
5833,988,1047
5834,992,1048
5835,997,1042
5836,1002,1037
5837,1010,1034
5838,1012,1033
5839,1008,1037
5840,1000,1045
5841,988,1052
5842,974,1057
5843,969,1063
5844,970,1064
5845,977,1063
5846,984,1064
5847,995,1060
5848,1002,1060
5849,1009,1057
5850,1017,1048
5851,1023,1035
5852,1036,1021
5853,1050,997
5854,1066,978
5855,1084,958
5856,1100,942
5857,1105,930
5858,1093,929
5859,1055,934
5860,1003,948
5861,958,972
5862,926,999
5863,913,1032
5864,911,1068
5865,917,1096
5866,927,1111
5867,936,1118
5868,944,1118
5869,955,1120
5870,960,1116
5871,958,1116
5872,952,1120
5873,943,1124
5874,933,1133
5875,929,1136
5876,932,1139
5877,938,1144
5878,946,1147
5879,953,1149
5880,956,1151
5881,953,1151
5882,950,1154
5883,946,1147
5884,945,1143
5885,942,1133
5886,944,1123
5887,947,1108
5888,949,1094
5889,954,1081
5890,962,1069
5891,970,1057
5892,978,1047
5893,981,1044
5894,987,1037
5895,990,1032
5896,995,1030
5897,995,1028
5898,992,1030
5899,986,1031
5900,976,1034
5901,973,1034
5902,972,1035
5903,975,1034
5904,981,1034
5905,986,1035
5906,993,1031
5907,993,1031
5908,995,1029
5909,988,1028
5910,986,1030
5911,982,1033
5912,979,1033
5913,978,1029
5914,980,1032
5915,981,1033
5916,984,1032
5917,987,1028
5918,991,1029
5919,992,1029
5920,993,1028
5921,989,1027
5922,987,1025
5923,985,1025
5924,982,1024
5925,986,1023
5926,990,1025
5927,989,1026
5928,989,1028
5929,988,1029
5930,990,1029
5931,995,1026
5932,997,1021
5933,1005,1014
5934,1012,1009
5935,1013,1009
5936,1008,1015
5937,1000,1018
5938,991,1020
5939,984,1021
5940,980,1018
5941,983,1019
5942,988,1013
5943,993,1011
5944,1001,1005
5945,1006,998
5946,1013,998
5947,1014,990
5948,1019,986
5949,1023,986
5950,1026,989
5951,1027,991
5952,1020,996
5953,1014,998
5954,1012,996
5955,1011,993
5956,1015,989
5957,1020,983
5958,1024,978
5959,1030,977
5960,1030,979
5961,1028,981
5962,1025,983
5963,1025,985
5964,1025,990
5965,1027,990
5966,1030,992
5967,1033,994
5968,1033,995
5969,1029,995
5970,1023,999
5971,1015,1001
5972,1012,1006
5973,1009,1012
5974,1009,1016
5975,1010,1020
5976,1007,1023
5977,1006,1026
5978,1008,1027
5979,1010,1028
5980,1011,1034
5981,1008,1037
5982,1003,1037
5983,996,1038
5984,992,1039
5985,990,1040
5986,987,1043
5987,988,1047
5988,990,1047
5989,991,1045
5990,991,1046
5991,990,1043
5992,986,1047
5993,988,1043
5994,985,1046
5995,983,1043
5996,983,1042
5997,981,1041
5998,983,1041
5999,986,1041
6000,991,1044
6001,993,1043
6002,995,1047
6003,991,1048
6004,987,1048
6005,984,1048
6006,981,1047
6007,978,1045
6008,980,1045
6009,979,1045
6010,981,1043
6011,979,1046
6012,981,1047
6013,980,1049
6014,981,1051
6015,982,1049
6016,984,1048
6017,985,1042
6018,986,1043
6019,987,1039
6020,989,1039
6021,990,1040
6022,992,1041
6023,993,1042
6024,992,1044
6025,991,1046
6026,989,1048
6027,989,1048
6028,989,1043
6029,990,1040
6030,991,1038
6031,993,1037
6032,993,1038
6033,989,1041
6034,988,1042
6035,985,1046
6036,983,1044
6037,986,1043
6038,990,1046
6039,994,1043
6040,994,1043
6041,994,1041
6042,994,1039
6043,989,1039
6044,984,1044
6045,979,1043
6046,976,1043
6047,978,1046
6048,980,1045
6049,983,1047
6050,983,1046
6051,985,1043
6052,989,1040
6053,992,1038
6054,992,1035
6055,991,1036
6056,989,1039
6057,986,1039
6058,983,1040
6059,985,1040
6060,984,1043
6061,985,1047
6062,986,1046
6063,983,1047
6064,983,1046
6065,982,1043
6066,979,1041
6067,977,1038
6068,978,1038
6069,978,1039
6070,980,1041
6071,983,1043
6072,984,1043
6073,984,1046
6074,983,1048
6075,981,1049
6076,979,1048
6077,981,1045
6078,979,1041
6079,983,1040
6080,989,1035
6081,992,1036
6082,994,1037
6083,993,1042
6084,986,1046
6085,978,1048
6086,976,1050
6087,974,1047
6088,977,1044
6089,984,1042
6090,990,1042
6091,989,1041
6092,985,1042
6093,980,1044
6094,977,1047
6095,976,1045
6096,980,1045
6097,981,1044
6098,987,1044
6099,988,1046
6100,988,1043
6101,986,1047
6102,982,1043
6103,981,1041
6104,980,1040
6105,979,1039
6106,979,1043
6107,978,1045
6108,980,1044
6109,980,1045
6110,985,1045
6111,985,1043
6112,987,1042
6113,990,1040
6114,992,1037
6115,992,1039
6116,986,1041
6117,981,1045
6118,979,1044
6119,979,1042
6120,982,1045
6121,982,1045
6122,984,1047
6123,979,1048
6124,978,1046
6125,976,1044
6126,976,1043
6127,976,1040
6128,979,1034
6129,981,1037
6130,985,1034
6131,989,1038
6132,992,1039
6133,990,1046
6134,988,1049
6135,984,1048
6136,980,1045
6137,982,1043
6138,980,1039
6139,975,1039
6140,976,1039
6141,975,1040
6142,977,1042
6143,980,1044
6144,979,1047
6145,978,1047
6146,979,1045
6147,981,1044
6148,984,1045
6149,985,1043
6150,985,1042
6151,983,1041
6152,981,1040
6153,980,1037
6154,982,1039
6155,982,1041
6156,982,1044
6157,984,1044
6158,983,1043
6159,982,1042
6160,980,1045
6161,983,1044
6162,981,1044
6163,980,1039
6164,981,1039
6165,981,1039
6166,985,1042
6167,984,1044
6168,982,1047
6169,982,1049
6170,980,1047
6171,979,1045
6172,982,1045
6173,985,1041
6174,986,1040
6175,987,1037
6176,989,1035
6177,985,1038
6178,984,1038
6179,982,1043
6180,980,1046
6181,977,1047
6182,978,1046
6183,980,1045
6184,983,1044
6185,985,1044
6186,986,1042
6187,986,1038
6188,984,1037
6189,985,1037
6190,985,1038
6191,986,1039
6192,989,1043
6193,987,1045
6194,982,1047
6195,978,1046
6196,975,1047
6197,973,1044
6198,976,1041
6199,976,1038
6200,980,1037
6201,984,1038
6202,985,1041
6203,983,1046
6204,981,1046
6205,979,1046
6206,980,1046
6207,983,1042
6208,984,1041
6209,983,1039
6210,983,1041
6211,983,1038
6212,981,1036
6213,982,1035
6214,981,1040
6215,977,1040
6216,974,1044
6217,975,1046
6218,977,1044
6219,979,1041
6220,984,1040
6221,989,1035
6222,990,1035
6223,991,1033
6224,986,1036
6225,985,1039
6226,981,1039
6227,981,1042
6228,984,1040
6229,987,1040
6230,987,1041
6231,984,1041
6232,982,1041
6233,975,1043
6234,969,1042
6235,966,1042
6236,966,1036
6237,972,1036
6238,976,1035
6239,980,1035
6240,985,1036
6241,988,1041
6242,987,1045
6243,982,1044
6244,979,1046
6245,977,1043
6246,976,1037
6247,976,1035
6248,980,1033
6249,980,1033
6250,981,1035
6251,981,1041
6252,978,1043
6253,977,1044
6254,981,1043
6255,981,1039
6256,985,1037
6257,985,1035
6258,984,1034
6259,983,1037
6260,980,1037
6261,976,1035
6262,979,1035
6263,982,1036
6264,982,1040
6265,979,1041
6266,981,1039
6267,981,1036
6268,983,1034
6269,985,1036
6270,981,1035
6271,978,1037
6272,975,1037
6273,975,1040
6274,973,1039
6275,979,1041
6276,981,1041
6277,983,1042
6278,986,1041
6279,985,1038
6280,985,1039
6281,982,1039
6282,980,1037
6283,976,1034
6284,977,1032
6285,979,1033
6286,983,1034
6287,985,1036
6288,986,1038
6289,985,1040
6290,983,1041
6291,983,1040
6292,983,1039
6293,984,1040
6294,979,1038
6295,978,1038
6296,979,1034
6297,980,1033
6298,983,1035
6299,981,1034
6300,986,1033
6301,985,1039
6302,989,1039
6303,985,1040
6304,982,1040
6305,979,1039
6306,976,1036
6307,973,1038
6308,972,1037
6309,974,1038
6310,975,1039
6311,979,1038
6312,984,1037
6313,985,1038
6314,988,1035
6315,991,1034
6316,993,1039
6317,990,1039
6318,985,1040
6319,977,1038
6320,973,1039
6321,970,1040
6322,971,1038
6323,974,1038
6324,978,1038
6325,980,1038
6326,986,1038
6327,988,1036
6328,990,1036
6329,993,1037
6330,991,1035
6331,987,1031
6332,983,1037
6333,979,1036
6334,973,1036
6335,974,1038
6336,978,1038
6337,984,1037
6338,988,1038
6339,986,1039
6340,981,1043
6341,975,1039
6342,977,1042
6343,975,1041
6344,974,1039
6345,974,1038
6346,979,1036
6347,984,1035
6348,986,1035
6349,990,1037
6350,994,1034
6351,996,1035
6352,992,1035
6353,988,1037
6354,981,1039
6355,971,1041
6356,967,1040
6357,968,1038
6358,974,1035
6359,977,1035
6360,983,1035
6361,986,1038
6362,986,1040
6363,983,1044
6364,977,1046
6365,972,1045
6366,966,1043
6367,963,1041
6368,963,1038
6369,968,1037
6370,976,1035
6371,980,1037
6372,984,1040
6373,986,1041
6374,983,1044
6375,981,1042
6376,978,1042
6377,974,1041
6378,970,1039
6379,971,1033
6380,974,1033
6381,981,1031
6382,988,1031
6383,991,1036
6384,992,1039
6385,991,1040
6386,987,1042
6387,984,1042
6388,981,1041
6389,979,1042
6390,979,1041
6391,978,1038
6392,978,1037
6393,978,1038
6394,978,1036
6395,981,1039
6396,985,1037
6397,987,1039
6398,989,1040
6399,984,1042
6400,980,1045
6401,976,1046
6402,974,1044
6403,974,1044
6404,978,1040
6405,981,1039
6406,990,1039
6407,992,1043
6408,993,1044
6409,993,1047
6410,992,1048
6411,994,1045
6412,996,1042
6413,997,1041
6414,995,1039
6415,994,1038
6416,992,1038
6417,988,1037
6418,987,1037
6419,989,1036
6420,992,1035
6421,994,1034
6422,995,1038
6423,993,1038
6424,989,1039
6425,983,1037
6426,981,1037
6427,978,1034
6428,978,1030
6429,980,1029
6430,984,1031
6431,986,1033
6432,986,1032
6433,987,1036
6434,988,1038
6435,988,1043
6436,983,1044
6437,981,1047
6438,976,1043
6439,977,1038
6440,978,1038
6441,980,1035
6442,980,1035
6443,981,1038
6444,979,1042
6445,979,1042
6446,975,1043
6447,973,1043
6448,973,1041
6449,974,1040
6450,973,1038
6451,971,1037
6452,977,1037
6453,978,1041
6454,980,1043
6455,979,1042
6456,977,1045
6457,975,1044
6458,980,1044
6459,981,1042
6460,984,1040
6461,981,1041
6462,978,1041
6463,973,1041
6464,969,1041
6465,967,1041
6466,971,1040
6467,974,1043
6468,979,1041
6469,984,1043
6470,985,1048
6471,980,1053
6472,973,1055
6473,970,1057
6474,974,1057
6475,982,1055
6476,992,1048
6477,1001,1042
6478,1008,1030
6479,1019,1015
6480,1031,994
6481,1048,971
6482,1063,948
6483,1073,929
6484,1071,915
6485,1054,911
6486,1017,919
6487,976,939
6488,940,971
6489,920,1011
6490,914,1047
6491,919,1080
6492,927,1103
6493,931,1116
6494,935,1123
6495,935,1123
6496,935,1121
6497,932,1121
6498,927,1120
6499,924,1124
6500,922,1127
6501,923,1131
6502,929,1136
6503,935,1141
6504,940,1149
6505,946,1155
6506,945,1160
6507,943,1161
6508,936,1162
6509,935,1157
6510,931,1146
6511,931,1138
6512,933,1126
6513,937,1116
6514,945,1103
6515,948,1091
6516,952,1081
6517,958,1068
6518,963,1057
6519,971,1045
6520,976,1041
6521,982,1036
6522,982,1034
6523,982,1036
6524,975,1037
6525,974,1036
6526,976,1033
6527,980,1035
6528,986,1034
6529,986,1039
6530,981,1042
6531,974,1042
6532,966,1044
6533,968,1038
6534,969,1035
6535,971,1033
6536,973,1031
6537,972,1036
6538,971,1035
6539,970,1036
6540,969,1036
6541,971,1037
6542,972,1034
6543,973,1036
6544,975,1033
6545,974,1032
6546,978,1031
6547,978,1030
6548,976,1027
6549,981,1027
6550,983,1031
6551,982,1029
6552,982,1030
6553,985,1030
6554,985,1028
6555,980,1027
6556,983,1023
6557,984,1020
6558,986,1017
6559,994,1016
6560,996,1017
6561,992,1022
6562,985,1024
6563,975,1025
6564,973,1024
6565,978,1020
6566,984,1017
6567,990,1015
6568,998,1014
6569,999,1016
6570,994,1013
6571,992,1011
6572,990,1006
6573,988,1004
6574,990,1003
6575,995,1000
6576,1000,1000
6577,1004,998
6578,1009,999
6579,1005,1000
6580,1003,999
6581,1001,996
6582,1007,995
6583,1010,989
6584,1010,988
6585,1008,987
6586,1010,986
6587,1010,988
6588,1011,988
6589,1011,992
6590,1012,992
6591,1013,990
6592,1010,993
6593,1009,993
6594,1007,986
6595,1009,985
6596,1012,984
6597,1013,987
6598,1017,989
6599,1016,995
6600,1014,998
6601,1010,1001
6602,1015,996
6603,1016,1000
6604,1018,1008
6605,1014,1011
6606,1010,1011
6607,1005,1013
6608,1001,1015
6609,1003,1016
6610,1005,1022
6611,1000,1026
6612,995,1028
6613,992,1030
6614,994,1031
6615,995,1033
6616,992,1036
6617,992,1040
6618,990,1042
6619,987,1037
6620,987,1037
6621,986,1039
6622,984,1040
6623,980,1044
6624,978,1044
6625,976,1046
6626,977,1045
6627,972,1047
6628,964,1046
6629,958,1042
6630,955,1038
6631,953,1033
6632,955,1032
6633,961,1031
6634,967,1030
6635,971,1033
6636,974,1033
6637,974,1036
6638,973,1037
6639,974,1039
6640,973,1040
6641,973,1036
6642,969,1035
6643,969,1034
6644,969,1032
6645,972,1032
6646,977,1034
6647,980,1037
6648,980,1040
6649,981,1042
6650,980,1044
6651,979,1047
6652,975,1044
6653,977,1043
6654,972,1039
6655,971,1038
6656,968,1039
6657,970,1038
6658,972,1038
6659,978,1039
6660,981,1038
6661,982,1039
6662,982,1037
6663,981,1041
6664,976,1040
6665,975,1041
6666,971,1039
6667,972,1038
6668,974,1037
6669,979,1037
6670,983,1039
6671,984,1043
6672,984,1050
6673,980,1055
6674,978,1057
6675,976,1053
6676,977,1051
6677,979,1047
6678,980,1042
6679,984,1040
6680,986,1041
6681,984,1044
6682,981,1046
6683,975,1050
6684,971,1051
6685,972,1052
6686,975,1048
6687,981,1046
6688,987,1043
6689,989,1045
6690,983,1048
6691,977,1050
6692,967,1055
6693,965,1054
6694,964,1055
6695,967,1053
6696,971,1053
6697,975,1049
6698,979,1051
6699,980,1051
6700,979,1050
6701,979,1049
6702,973,1050
6703,972,1045
6704,972,1047
6705,974,1044
6706,977,1043
6707,982,1043
6708,983,1048
6709,984,1050
6710,985,1052
6711,985,1057
6712,985,1063
6713,983,1066
6714,978,1069
6715,972,1064
6716,976,1053
6717,987,1033
6718,1004,1008
6719,1023,984
6720,1043,958
6721,1053,939
6722,1058,923
6723,1049,918
6724,1030,920
6725,1000,931
6726,969,951
6727,945,983
6728,928,1024
6729,923,1065
6730,924,1098
6731,933,1116
6732,937,1125
6733,943,1124
6734,948,1123
6735,951,1116
6736,950,1113
6737,949,1115
6738,947,1121
6739,941,1132
6740,933,1143
6741,930,1150
6742,928,1157
6743,930,1157
6744,932,1157
6745,936,1158
6746,938,1155
6747,939,1151
6748,939,1144
6749,944,1134
6750,944,1125
6751,942,1110
6752,941,1096
6753,946,1077
6754,950,1063
6755,958,1055
6756,964,1044
6757,972,1036
6758,981,1033
6759,991,1027
6760,994,1024
6761,996,1025
6762,990,1027
6763,982,1030
6764,975,1031
6765,972,1031
6766,969,1030
6767,970,1028
6768,974,1029
6769,982,1029
6770,985,1032
6771,981,1034
6772,976,1032
6773,974,1028
6774,970,1025
6775,973,1022
6776,976,1023
6777,973,1024
6778,976,1027
6779,977,1027
6780,977,1026
6781,980,1027
6782,983,1027
6783,985,1024
6784,987,1023
6785,992,1020
6786,989,1021
6787,987,1019
6788,984,1017
6789,981,1017
6790,983,1017
6791,986,1015
6792,991,1018
6793,992,1017
6794,992,1020
6795,992,1020
6796,988,1020
6797,989,1015
6798,990,1012
6799,994,1007
6800,997,1004
6801,1002,1002
6802,1005,1002
6803,1001,1009
6804,998,1008
6805,993,1012
6806,994,1011
6807,993,1008
6808,995,1006
6809,999,999
6810,1003,993
6811,1007,992
6812,1007,988
6813,1009,985
6814,1015,986
6815,1020,987
6816,1022,985
6817,1026,984
6818,1026,985
6819,1030,980
6820,1031,979
6821,1034,976
6822,1032,976
6823,1032,977
6824,1023,983
6825,1017,984
6826,1013,987
6827,1014,987
6828,1017,985
6829,1022,985
6830,1029,987
6831,1034,988
6832,1038,994
6833,1033,997
6834,1026,1003
6835,1019,1003
6836,1013,1005
6837,1010,1008
6838,1011,1010
6839,1014,1011
6840,1018,1017
6841,1017,1023
6842,1015,1030
6843,1007,1031
6844,999,1035
6845,992,1036
6846,986,1036
6847,982,1037
6848,976,1040
6849,976,1041
6850,978,1040
6851,983,1041
6852,986,1043
6853,989,1044
6854,991,1043
6855,989,1043
6856,988,1041
6857,985,1040
6858,981,1040
6859,978,1040
6860,977,1042
6861,977,1039
6862,981,1038
6863,981,1039
6864,981,1042
6865,981,1042
6866,983,1044
6867,982,1042
6868,981,1042
6869,983,1044
6870,978,1043
6871,973,1039
6872,975,1039
6873,975,1038
6874,977,1040
6875,977,1039
6876,980,1040
6877,982,1041
6878,984,1041
6879,984,1042
6880,985,1041
6881,986,1040
6882,983,1039
6883,980,1035
6884,982,1036
6885,984,1033
6886,984,1033
6887,984,1036
6888,985,1035
6889,979,1042
6890,974,1042
6891,970,1040
6892,966,1036
6893,968,1031
6894,969,1028
6895,971,1025
6896,974,1025
6897,975,1024
6898,974,1029
6899,975,1031
6900,975,1035
6901,975,1033
6902,978,1034
6903,977,1033
6904,978,1030
6905,977,1030
6906,976,1028
6907,983,1028
6908,983,1030
6909,985,1031
6910,984,1033
6911,985,1034
6912,988,1034
6913,990,1035
6914,992,1033
6915,990,1035
6916,988,1038
6917,985,1035
6918,982,1036
6919,980,1031
6920,977,1028
6921,977,1028
6922,978,1028
6923,978,1028
6924,980,1030
6925,983,1030
6926,987,1032
6927,988,1031
6928,990,1036
6929,990,1033
6930,988,1032
6931,987,1031
6932,986,1034
6933,982,1037
6934,982,1044
6935,976,1046
6936,975,1046
6937,973,1043
6938,979,1045
6939,981,1042
6940,981,1042
6941,980,1043
6942,980,1044
6943,977,1044
6944,978,1044
6945,978,1044
6946,980,1042
6947,981,1045
6948,981,1044
6949,984,1045
6950,987,1044
6951,984,1044
6952,986,1045
6953,986,1043
6954,984,1042
6955,985,1042
6956,983,1040
6957,983,1041
6958,982,1040
6959,983,1044
6960,987,1042
6961,988,1045
6962,991,1047
6963,993,1045
6964,993,1043
6965,990,1043
6966,990,1042
6967,989,1039
6968,989,1039
6969,990,1042
6970,993,1041
6971,997,1043
6972,999,1048
6973,1003,1054
6974,1003,1060
6975,999,1058
6976,999,1056
6977,1005,1046
6978,1016,1032
6979,1034,1008
6980,1056,987
6981,1076,963
6982,1096,945
6983,1105,933
6984,1099,927
6985,1072,934
6986,1030,954
6987,981,982
6988,944,1020
6989,920,1054
6990,910,1082
6991,912,1097
6992,920,1105
6993,930,1106
6994,938,1105
6995,945,1101
6996,948,1101
6997,946,1105
6998,946,1107
6999,940,1114
7000,942,1117
7001,949,1120
7002,955,1120
7003,962,1124
7004,967,1126
7005,966,1128
7006,962,1133
7007,956,1133
7008,948,1133
7009,945,1131
7010,945,1123
7011,952,1113
7012,955,1101
7013,961,1085
7014,966,1072
7015,970,1058
7016,971,1047
7017,975,1039
7018,978,1035
7019,980,1027
7020,984,1028
7021,985,1028
7022,989,1031
7023,984,1029
7024,987,1028
7025,987,1025
7026,989,1022
7027,990,1021
7028,991,1022
7029,988,1025
7030,983,1027
7031,978,1028
7032,977,1029
7033,977,1029
7034,986,1027
7035,990,1022
7036,993,1022
7037,995,1019
7038,994,1019
7039,996,1017
7040,993,1021
7041,989,1021
7042,988,1020
7043,989,1019
7044,989,1021
7045,987,1022
7046,992,1018
7047,997,1015
7048,1000,1015
7049,1000,1014
7050,999,1016
7051,997,1017
7052,991,1017
7053,989,1013
7054,991,1012
7055,994,1011
7056,998,1013
7057,998,1014
7058,1001,1014
7059,1003,1011
7060,1006,1008
7061,1007,1008
7062,1001,1007
7063,996,1005
7064,991,1002
7065,993,996
7066,1001,991
7067,1009,988
7068,1017,990
7069,1024,991
7070,1023,989
7071,1021,989
7072,1019,985
7073,1019,984
7074,1021,979
7075,1026,974
7076,1028,971
7077,1031,973
7078,1031,974
7079,1028,981
7080,1024,979
7081,1025,980
7082,1027,980
7083,1030,978
7084,1031,982
7085,1034,979
7086,1035,980
7087,1032,982
7088,1031,981
7089,1029,985
7090,1030,986
7091,1027,989
7092,1026,995
7093,1028,998
7094,1026,1002
7095,1025,999
7096,1026,1002
7097,1026,1004
7098,1028,1003
7099,1026,1007
7100,1020,1012
7101,1012,1018
7102,1006,1024
7103,997,1032
7104,992,1034
7105,990,1035
7106,991,1036
7107,991,1035
7108,991,1033
7109,994,1033
7110,993,1035
7111,993,1035
7112,992,1031
7113,991,1032
7114,989,1031
7115,988,1033
7116,986,1034
7117,989,1035
7118,989,1036
7119,989,1037
7120,987,1039
7121,988,1037
7122,987,1037
7123,984,1034
7124,987,1032
7125,988,1033
7126,990,1033
7127,991,1036
7128,989,1041
7129,985,1044
7130,980,1044
7131,976,1043
7132,976,1042
7133,979,1040
7134,981,1039
7135,981,1036
7136,977,1036
7137,978,1034
7138,975,1035
7139,976,1036
7140,971,1036
7141,974,1038
7142,975,1036
7143,978,1031
7144,977,1029
7145,983,1024
7146,983,1022
7147,983,1018
7148,983,1018
7149,983,1023
7150,984,1029
7151,981,1031
7152,980,1034
7153,978,1032
7154,978,1030
7155,977,1032
7156,979,1031
7157,983,1030
7158,985,1028
7159,991,1027
7160,995,1025
7161,996,1029
7162,993,1028
7163,991,1030
7164,988,1031
7165,983,1034
7166,984,1029
7167,984,1031
7168,986,1029
7169,987,1028
7170,987,1024
7171,989,1023
7172,989,1022
7173,989,1022
7174,986,1025
7175,981,1029
7176,979,1033
7177,972,1038
7178,973,1036
7179,973,1038
7180,976,1034
7181,983,1029
7182,990,1030
7183,996,1031
7184,994,1034
7185,988,1039
7186,985,1041
7187,978,1046
7188,976,1044
7189,977,1043
7190,977,1046
7191,978,1044
7192,978,1041
7193,979,1038
7194,982,1037
7195,980,1035
7196,981,1035
7197,984,1034
7198,987,1034
7199,988,1038
7200,985,1038
7201,987,1041
7202,986,1043
7203,983,1043
7204,982,1044
7205,982,1041
7206,984,1037
7207,989,1035
7208,992,1034
7209,993,1036
7210,990,1038
7211,983,1042
7212,973,1044
7213,973,1044
7214,975,1045
7215,976,1042
7216,979,1043
7217,981,1042
7218,983,1039
7219,985,1035
7220,985,1035
7221,987,1039
7222,990,1044
7223,994,1047
7224,998,1049
7225,1001,1052
7226,1007,1049
7227,1017,1042
7228,1029,1025
7229,1051,1006
7230,1074,988
7231,1097,967
7232,1115,954
7233,1127,944
7234,1126,940
7235,1107,941
7236,1068,947
7237,1019,966
7238,972,990
7239,939,1017
7240,921,1043
7241,916,1068
7242,917,1085
7243,922,1092
7244,926,1092
7245,930,1093
7246,935,1091
7247,936,1091
7248,939,1094
7249,938,1099
7250,934,1105
7251,931,1113
7252,928,1117
7253,931,1118
7254,941,1118
7255,947,1119
7256,952,1119
7257,956,1122
7258,955,1127
7259,953,1128
7260,947,1128
7261,947,1125
7262,946,1120
7263,945,1113
7264,943,1103
7265,942,1092
7266,944,1079
7267,947,1066
7268,950,1056
7269,956,1049
7270,962,1042
7271,971,1036
7272,979,1033
7273,982,1031
7274,981,1030
7275,982,1031
7276,982,1029
7277,983,1027
7278,984,1023
7279,987,1022
7280,985,1022
7281,982,1022
7282,975,1026
7283,975,1028
7284,973,1031
7285,973,1028
7286,977,1028
7287,983,1027
7288,986,1025
7289,988,1022
7290,986,1022
7291,986,1021
7292,982,1021
7293,978,1024
7294,972,1028
7295,969,1031
7296,972,1032
7297,971,1031
7298,977,1028
7299,979,1023
7300,980,1026
7301,983,1022
7302,982,1022
7303,983,1022
7304,983,1019
7305,979,1019
7306,979,1018
7307,982,1019
7308,985,1019
7309,989,1017
7310,994,1021
7311,997,1019
7312,999,1017
7313,999,1015
7314,996,1013
7315,993,1011
7316,991,1007
7317,990,1006
7318,996,1006
7319,995,1004
7320,1000,1005
7321,1002,1006
7322,1007,1005
7323,1008,1001
7324,1012,997
7325,1014,996
7326,1015,993
7327,1018,987
7328,1018,988
7329,1019,986
7330,1022,985
7331,1026,984
7332,1027,985
7333,1027,986
7334,1027,986
7335,1026,986
7336,1024,985
7337,1024,986
7338,1023,982
7339,1024,982
7340,1025,981
7341,1029,983
7342,1029,981
7343,1032,983
7344,1032,989
7345,1033,994
7346,1031,997
7347,1026,1002
7348,1022,1004
7349,1019,1002
7350,1016,1004
7351,1014,1005
7352,1015,1007
7353,1012,1011
7354,1008,1016
7355,1004,1020
7356,1002,1023
7357,1001,1027
7358,998,1030
7359,995,1033
7360,994,1034
7361,993,1035
7362,994,1035
7363,992,1032
7364,993,1031
7365,990,1033
7366,987,1034
7367,985,1036
7368,989,1036
7369,988,1036
7370,991,1038
7371,993,1037
7372,990,1037
7373,990,1036
7374,983,1039
7375,978,1036
7376,979,1034
7377,979,1032
7378,978,1034
7379,979,1036
7380,976,1044
7381,976,1047
7382,974,1047
7383,972,1045
7384,975,1040
7385,975,1041
7386,972,1041
7387,970,1042
7388,966,1041
7389,964,1042
7390,966,1042
7391,968,1040
7392,971,1041
7393,975,1042
7394,978,1044
7395,975,1041
7396,975,1039
7397,975,1035
7398,973,1035
7399,971,1033
7400,969,1034
7401,968,1034
7402,967,1035
7403,964,1034
7404,966,1033
7405,970,1030
7406,973,1030
7407,973,1029
7408,971,1027
7409,969,1029
7410,969,1028
7411,968,1027
7412,971,1025
7413,973,1025
7414,976,1023
7415,981,1025
7416,981,1028
7417,983,1033
7418,980,1037
7419,976,1039
7420,976,1039
7421,976,1037
7422,978,1034
7423,978,1032
7424,980,1030
7425,979,1030
7426,979,1028
7427,979,1030
7428,979,1031
7429,979,1032
7430,981,1034
7431,977,1032
7432,976,1031
7433,977,1032
7434,973,1030
7435,971,1028
7436,972,1026
7437,976,1025
7438,980,1027
7439,983,1031
7440,987,1035
7441,983,1039
7442,980,1043
7443,975,1046
7444,969,1047
7445,969,1045
7446,971,1044
7447,973,1040
7448,974,1036
7449,975,1036
7450,976,1035
7451,978,1036
7452,980,1039
7453,980,1044
7454,979,1048
7455,978,1046
7456,976,1047
7457,976,1045
7458,973,1044
7459,972,1041
7460,971,1043
7461,969,1041
7462,970,1042
7463,971,1045
7464,969,1046
7465,973,1047
7466,975,1044
7467,977,1043
7468,980,1042
7469,982,1041
7470,982,1043
7471,979,1042
7472,975,1043
7473,971,1043
7474,968,1040
7475,970,1042
7476,974,1041
7477,977,1041
7478,984,1041
7479,987,1044
7480,990,1044
7481,992,1044
7482,992,1043
7483,992,1044
7484,993,1047
7485,993,1050
7486,995,1050
7487,1006,1049
7488,1017,1039
7489,1035,1028
7490,1059,1016
7491,1079,998
7492,1098,979
7493,1115,960
7494,1122,948
7495,1116,938
7496,1087,936
7497,1043,946
7498,990,963
7499,948,993
7500,917,1024
7501,902,1056
7502,897,1083
7503,901,1097
7504,912,1101
7505,924,1101
7506,933,1099
7507,940,1094
7508,939,1096
7509,933,1102
7510,927,1109
7511,923,1115
7512,921,1119
7513,925,1121
7514,935,1124
7515,945,1128
7516,954,1129
7517,955,1131
7518,951,1131
7519,943,1130
7520,937,1129
7521,933,1123
7522,930,1119
7523,931,1113
7524,936,1108
7525,937,1100
7526,943,1091
7527,945,1079
7528,952,1065
7529,956,1048
7530,968,1038
7531,975,1029
7532,985,1022
7533,990,1019
7534,994,1020
7535,992,1026
7536,986,1029
7537,977,1032
7538,970,1034
7539,966,1032
7540,965,1032
7541,968,1025
7542,972,1026
7543,971,1024
7544,974,1020
7545,973,1021
7546,976,1022
7547,980,1021
7548,982,1022
7549,984,1025
7550,994,1025
7551,996,1025
7552,991,1027
7553,984,1027
7554,977,1028
7555,972,1024
7556,970,1026
7557,968,1023
7558,969,1025
7559,970,1024
7560,971,1024
7561,975,1023
7562,979,1023
7563,982,1022
7564,985,1022
7565,986,1017
7566,988,1017
7567,988,1015
7568,990,1017
7569,987,1017
7570,984,1022
7571,982,1017
7572,983,1016
7573,986,1014
7574,995,1010
7575,1002,1012
7576,1005,1010
7577,1002,1008
7578,1001,1006
7579,1000,1004
7580,996,1002
7581,994,1002
7582,996,1001
7583,996,996
7584,1007,997
7585,1014,996
7586,1021,996
7587,1023,992
7588,1023,992
7589,1024,989
7590,1023,989
7591,1022,987
7592,1022,987
7593,1022,987
7594,1021,985
7595,1024,983
7596,1027,983
7597,1027,988
7598,1028,988
7599,1030,986
7600,1031,985
7601,1032,984
7602,1033,982
7603,1035,983
7604,1032,985
7605,1032,987
7606,1027,994
7607,1024,997
7608,1020,1004
7609,1017,1004
7610,1018,1008
7611,1017,1011
7612,1014,1010
7613,1014,1011
7614,1011,1013
7615,1006,1015
7616,1001,1014
7617,1000,1018
7618,999,1024
7619,998,1029
7620,990,1033
7621,988,1035
7622,987,1038
7623,986,1037
7624,987,1036
7625,992,1033
7626,989,1033
7627,989,1034
7628,984,1032
7629,981,1033
7630,979,1035
7631,979,1036
7632,981,1039
7633,980,1040
7634,979,1040
7635,979,1040
7636,979,1041
7637,981,1038
7638,976,1041
7639,971,1041
7640,965,1040
7641,962,1041
7642,963,1038
7643,970,1038
7644,977,1036
7645,982,1037
7646,984,1039
7647,980,1041
7648,973,1041
7649,967,1045
7650,959,1042
7651,957,1044
7652,954,1041
7653,955,1040
7654,960,1040
7655,965,1040
7656,967,1039
7657,972,1036
7658,974,1037
7659,976,1037
7660,977,1037
7661,970,1039
7662,964,1039
7663,956,1039
7664,950,1032
7665,952,1030
7666,951,1029
7667,955,1033
7668,961,1034
7669,964,1033
7670,968,1035
7671,970,1034
7672,972,1029
7673,976,1028
7674,976,1027
7675,977,1026
7676,970,1027
7677,971,1030
7678,972,1034
7679,976,1035
7680,976,1041
7681,976,1043
7682,974,1043
7683,975,1038
7684,975,1037
7685,977,1034
7686,977,1029
7687,979,1026
7688,978,1025
7689,982,1024
7690,985,1024
7691,985,1030
7692,980,1033
7693,973,1040
7694,963,1043
7695,959,1043
7696,955,1042
7697,958,1037
7698,962,1034
7699,967,1032
7700,972,1029
7701,976,1032
7702,979,1030
7703,981,1036
7704,983,1039
7705,985,1042
7706,988,1043
7707,989,1043
7708,988,1040
7709,985,1044
7710,979,1043
7711,974,1044
7712,965,1042
7713,957,1045
7714,958,1043
7715,960,1045
7716,964,1046
7717,972,1047
7718,980,1047
7719,985,1044
7720,986,1043
7721,986,1038
7722,985,1036
7723,985,1035
7724,984,1039
7725,980,1043
7726,977,1044
7727,976,1047
7728,973,1047
7729,972,1051
7730,968,1052
7731,969,1053
7732,966,1049
7733,969,1048
7734,972,1043
7735,976,1042
7736,978,1040
7737,977,1039
7738,975,1041
7739,981,1043
7740,981,1046
7741,985,1047
7742,986,1050
7743,990,1051
7744,992,1053
7745,994,1054
7746,995,1056
7747,999,1055
7748,1007,1050
7749,1024,1041
7750,1043,1027
7751,1064,1010
7752,1087,994
7753,1106,979
7754,1121,963
7755,1127,950
7756,1116,943
7757,1084,943
7758,1036,945
7759,989,963
7760,948,988
7761,919,1015
7762,904,1047
7763,895,1076
7764,900,1092
7765,906,1105
7766,916,1109
7767,925,1111
7768,927,1110
7769,932,1106
7770,929,1108
7771,927,1109
7772,924,1114
7773,925,1119
7774,927,1124
7775,931,1127
7776,940,1133
7777,948,1135
7778,951,1137
7779,949,1140
7780,948,1137
7781,945,1133
7782,945,1127
7783,941,1120
7784,942,1112
7785,939,1105
7786,936,1093
7787,938,1083
7788,947,1069
7789,955,1058
7790,964,1048
7791,974,1039
7792,980,1035
7793,982,1031
7794,980,1028
7795,980,1027
7796,977,1028
7797,975,1028
7798,977,1028
7799,975,1028
7800,975,1032
7801,974,1033
7802,973,1036
7803,975,1032
7804,977,1029
7805,979,1027
7806,980,1026
7807,982,1027
7808,982,1025
7809,978,1027
7810,978,1031
7811,976,1031
7812,977,1031
7813,975,1032
7814,977,1033
7815,977,1030
7816,978,1028
7817,981,1026
7818,981,1024
7819,981,1024
7820,981,1022
7821,979,1022
7822,983,1022
7823,986,1021
7824,990,1023
7825,992,1023
7826,994,1025
7827,994,1023
7828,994,1023
7829,992,1021
7830,989,1021
7831,990,1017
7832,988,1014
7833,991,1014
7834,991,1012
7835,996,1013
7836,997,1013
7837,1002,1012
7838,1003,1013
7839,1003,1011
7840,1003,1010
7841,1008,1007
7842,1011,1003
7843,1014,996
7844,1017,994
7845,1019,994
7846,1020,993
7847,1023,994
7848,1026,995
7849,1029,994
7850,1029,995
7851,1030,993
7852,1030,993
7853,1032,991
7854,1032,987
7855,1030,984
7856,1029,987
7857,1025,990
7858,1023,992
7859,1022,996
7860,1027,996
7861,1029,996
7862,1033,1000
7863,1033,1000
7864,1027,1008
7865,1023,1008
7866,1020,1012
7867,1013,1010
7868,1011,1012
7869,1010,1014
7870,1006,1020
7871,1002,1024
7872,999,1028
7873,995,1029
7874,996,1033
7875,998,1033
7876,997,1035
7877,998,1037
7878,994,1039
7879,991,1041
7880,983,1041
7881,982,1040
7882,983,1038
7883,982,1041
7884,981,1043
7885,979,1045
7886,979,1048
7887,974,1049
7888,972,1050
7889,972,1047
7890,972,1042
7891,972,1041
7892,969,1038
7893,971,1040
7894,972,1038
7895,971,1042
7896,976,1042
7897,981,1044
7898,986,1042
7899,987,1046
7900,980,1044
7901,973,1048
7902,965,1048
7903,960,1046
7904,956,1046
7905,956,1044
7906,961,1045
7907,963,1043
7908,968,1045
7909,966,1043
7910,971,1047
7911,969,1045
7912,965,1044
7913,958,1046
7914,956,1043
7915,958,1039
7916,957,1037
7917,955,1036
7918,959,1033
7919,960,1031
7920,965,1034
7921,971,1036
7922,973,1038
7923,973,1040
7924,968,1044
7925,962,1045
7926,958,1044
7927,954,1042
7928,954,1040
7929,957,1039
7930,962,1040
7931,969,1040
7932,973,1043
7933,980,1042
7934,983,1041
7935,984,1042
7936,979,1041
7937,976,1039
7938,973,1038
7939,970,1039
7940,964,1038
7941,964,1037
7942,967,1035
7943,970,1034
7944,970,1036
7945,971,1035
7946,972,1036
7947,972,1042
7948,969,1042
7949,970,1040
7950,970,1039
7951,970,1038
7952,973,1039
7953,974,1039
7954,975,1044
7955,975,1045
7956,975,1048
7957,972,1051
7958,971,1052
7959,971,1054
7960,969,1051
7961,968,1048
7962,966,1047
7963,964,1046
7964,962,1047
7965,962,1048
7966,968,1045
7967,970,1048
7968,973,1048
7969,975,1050
7970,978,1051
7971,978,1049
7972,976,1051
7973,973,1049
7974,975,1046
7975,979,1043
7976,978,1043
7977,976,1041
7978,976,1045
7979,974,1048
7980,970,1051
7981,968,1055
7982,965,1054
7983,968,1054
7984,969,1052
7985,976,1048
7986,979,1046
7987,979,1045
7988,979,1047
7989,976,1051
7990,975,1051
7991,976,1053
7992,979,1054
7993,984,1061
7994,989,1063
7995,992,1064
7996,995,1064
7997,1003,1062
7998,1009,1052
7999,1023,1039
8000,1041,1022
8001,1062,1004
8002,1083,988
8003,1105,973
8004,1116,959
8005,1110,950
8006,1085,947
8007,1039,951
8008,984,972
8009,939,994
8010,906,1024
8011,893,1055
8012,894,1080
8013,902,1099
8014,910,1113
8015,914,1117
8016,918,1117
8017,919,1119
8018,918,1120
8019,919,1122
8020,921,1120
8021,923,1124
8022,925,1127
8023,934,1130
8024,939,1133
8025,944,1134
8026,949,1135
8027,952,1134
8028,955,1136
8029,955,1136
8030,953,1137
8031,943,1134
8032,937,1129
8033,925,1122
8034,921,1109
8035,920,1095
8036,924,1079
8037,933,1064
8038,943,1051
8039,955,1043
8040,966,1037
8041,977,1037
8042,982,1036
8043,981,1037
8044,979,1038
8045,976,1036
8046,976,1030
8047,976,1027
8048,978,1025
8049,983,1022
8050,990,1023
8051,990,1028
8052,983,1034
8053,972,1040
8054,964,1042
8055,956,1046
8056,956,1043
8057,960,1038
8058,964,1035
8059,972,1030
8060,976,1027
8061,980,1023
8062,981,1025
8063,983,1025
8064,984,1026
8065,988,1026
8066,989,1030
8067,987,1035
8068,979,1039
8069,973,1036
8070,967,1035
8071,963,1032
8072,965,1030
8073,966,1028
8074,969,1028
8075,975,1030
8076,979,1028
8077,983,1030
8078,985,1027
8079,988,1025
8080,988,1023
8081,987,1022
8082,988,1017
8083,990,1016
8084,991,1014
8085,990,1012
8086,991,1011
8087,992,1013
8088,995,1009
8089,997,1010
8090,998,1007
8091,1003,1008
8092,1006,1005
8093,1009,1001
8094,1011,996
8095,1013,993
8096,1016,990
8097,1016,990
8098,1018,990
8099,1023,989
8100,1027,988
8101,1029,991
8102,1033,989
8103,1033,988
8104,1034,988
8105,1032,990
8106,1030,990
8107,1025,989
8108,1019,991
8109,1012,995
8110,1009,996
8111,1012,998
8112,1013,1001
8113,1020,1002
8114,1022,1006
8115,1023,1006
8116,1022,1009
8117,1022,1010
8118,1019,1011
8119,1016,1011
8120,1014,1012
8121,1010,1015
8122,1005,1021
8123,1001,1025
8124,998,1030
8125,998,1034
8126,996,1038
8127,996,1038
8128,991,1039
8129,990,1042
8130,984,1043
8131,980,1041
8132,976,1041
8133,978,1039
8134,979,1042
8135,981,1042
8136,982,1042
8137,983,1046
8138,981,1047
8139,978,1048
8140,979,1044
8141,980,1046
8142,977,1043
8143,976,1041
8144,976,1039
8145,978,1040
8146,976,1040
8147,976,1044
8148,968,1048
8149,963,1052
8150,962,1051
8151,960,1050
8152,960,1051
8153,961,1049
8154,963,1048
8155,964,1045
8156,964,1044
8157,965,1045
8158,964,1046
8159,961,1048
8160,962,1048
8161,963,1049
8162,963,1049
8163,962,1050
8164,960,1045
8165,958,1046
8166,956,1044
8167,955,1037
8168,958,1036
8169,959,1036
8170,960,1037
8171,959,1035
8172,961,1037
8173,961,1039
8174,962,1040
8175,967,1038
8176,968,1039
8177,970,1034
8178,971,1031
8179,972,1031
8180,971,1032
8181,970,1037
8182,970,1040
8183,970,1041
8184,970,1047
8185,970,1046
8186,974,1044
8187,976,1042
8188,977,1040
8189,976,1038
8190,974,1037
8191,972,1036
8192,970,1036
8193,970,1035
8194,973,1035
8195,975,1033
8196,974,1032
8197,975,1034
8198,974,1034
8199,970,1037
8200,970,1035
8201,970,1038
8202,970,1035
8203,970,1035
8204,971,1033
8205,974,1037
8206,977,1038
8207,979,1040
8208,983,1043
8209,982,1049
8210,980,1049
8211,980,1044
8212,976,1045
8213,977,1042
8214,973,1042
8215,972,1041
8216,972,1044
8217,970,1045
8218,968,1043
8219,967,1046
8220,968,1046
8221,971,1046
8222,972,1046
8223,975,1047
8224,976,1046
8225,978,1046
8226,978,1043
8227,979,1042
8228,981,1043
8229,981,1043
8230,976,1043
8231,974,1044
8232,973,1045
8233,974,1048
8234,975,1044
8235,981,1046
8236,982,1046
8237,986,1040
8238,986,1045
8239,987,1042
8240,986,1044
8241,983,1045
8242,981,1046
8243,977,1048
8244,980,1052
8245,983,1054
8246,992,1050
8247,1002,1050
8248,1012,1048
8249,1020,1043
8250,1028,1038
8251,1036,1028
8252,1042,1015
8253,1061,1001
8254,1083,983
8255,1103,970
8256,1115,958
8257,1104,954
8258,1083,954
8259,1035,962
8260,984,978
8261,944,999
8262,917,1023
8263,903,1047
8264,900,1072
8265,905,1086
8266,915,1095
8267,922,1100
8268,931,1102
8269,935,1106
8270,933,1108
8271,931,1107
8272,930,1109
8273,928,1113
8274,929,1115
8275,935,1116
8276,942,1117
8277,948,1122
8278,956,1124
8279,956,1128
8280,956,1128
8281,950,1131
8282,952,1127
8283,951,1123
8284,944,1114
8285,941,1105
8286,939,1089
8287,941,1080
8288,945,1065
8289,954,1056
8290,963,1047
8291,970,1044
8292,975,1041
8293,979,1038
8294,978,1035
8295,980,1034
8296,981,1030
8297,981,1031
8298,982,1028
8299,981,1026
8300,980,1029
8301,981,1027
8302,980,1027
8303,978,1027
8304,976,1030
8305,974,1030
8306,972,1030
8307,972,1031
8308,972,1029
8309,974,1028
8310,978,1022
8311,982,1021
8312,983,1022
8313,979,1022
8314,977,1021
8315,971,1026
8316,972,1028
8317,972,1023
8318,977,1023
8319,985,1022
8320,990,1020
8321,992,1019
8322,988,1019
8323,984,1018
8324,976,1020
8325,969,1020
8326,971,1016
8327,975,1019
8328,981,1017
8329,988,1017
8330,992,1016
8331,994,1015
8332,997,1011
8333,998,1010
8334,1002,1007
8335,1005,1003
8336,1005,1002
8337,1008,1000
8338,1007,998
8339,1004,1000
8340,1004,999
8341,1002,1002
8342,1002,1003
8343,1002,999
8344,1005,996
8345,1009,992
8346,1017,987
8347,1022,981
8348,1032,979
8349,1036,981
8350,1035,985
8351,1027,987
8352,1021,988
8353,1018,988
8354,1019,987
8355,1025,986
8356,1030,983
8357,1035,982
8358,1036,980
8359,1034,983
8360,1030,979
8361,1028,981
8362,1029,984
8363,1032,989
8364,1033,994
8365,1032,999
8366,1025,1006
8367,1018,1011
8368,1011,1013
8369,1008,1015
8370,1005,1012
8371,1006,1015
8372,1003,1013
8373,1003,1018
8374,1002,1019
8375,1003,1021
8376,1004,1022
8377,1004,1025
8378,1003,1027
8379,1006,1028
8380,999,1031
8381,994,1035
8382,984,1039
8383,977,1039
8384,969,1039
8385,966,1040
8386,962,1039
8387,966,1039
8388,969,1039
8389,975,1040
8390,977,1041
8391,983,1039
8392,985,1037
8393,985,1034
8394,986,1031
8395,985,1031
8396,983,1027
8397,979,1031
8398,973,1034
8399,970,1038
8400,964,1043
8401,962,1044
8402,958,1046
8403,962,1043
8404,969,1040
8405,976,1039
8406,976,1037
8407,981,1037
8408,977,1037
8409,976,1037
8410,974,1039
8411,973,1038
8412,975,1042
8413,973,1043
8414,973,1044
8415,970,1047
8416,968,1048
8417,971,1042
8418,973,1041
8419,976,1039
8420,980,1035
8421,984,1035
8422,983,1037
8423,980,1039
8424,978,1042
8425,975,1044
8426,973,1046
8427,974,1045
8428,977,1042
8429,978,1038
8430,980,1038
8431,979,1037
8432,977,1038
8433,974,1039
8434,973,1040
8435,970,1040
8436,972,1041
8437,971,1042
8438,976,1044
8439,977,1039
8440,979,1041
8441,978,1039
8442,975,1038
8443,974,1036
8444,976,1034
8445,978,1035
8446,979,1033
8447,979,1035
8448,979,1034
8449,978,1037
8450,976,1039
8451,976,1038
8452,977,1036
8453,977,1032
8454,977,1030
8455,979,1036
8456,974,1034
8457,970,1037
8458,969,1038
8459,968,1042
8460,971,1039
8461,975,1042
8462,976,1041
8463,981,1039
8464,977,1039
8465,973,1038
8466,973,1038
8467,974,1035
8468,972,1036
8469,970,1033
8470,973,1036
8471,970,1037
8472,970,1041
8473,969,1040
8474,969,1043
8475,972,1039
8476,975,1039
8477,977,1037
8478,978,1036
8479,976,1033
8480,977,1034
8481,974,1034
8482,974,1036
8483,971,1039
8484,971,1039
8485,969,1042
8486,973,1040
8487,974,1039
8488,977,1035
8489,980,1035
8490,976,1033
8491,975,1035
8492,973,1033
8493,972,1032
8494,971,1034
8495,971,1036
8496,971,1038
8497,972,1044
8498,971,1044
8499,970,1042
8500,969,1038
8501,973,1036
8502,975,1033
8503,977,1033
8504,979,1033
8505,979,1032
8506,979,1031
8507,978,1033
8508,981,1033
8509,982,1034
8510,984,1038
8511,979,1039
8512,974,1041
8513,969,1039
8514,964,1039
8515,961,1035
8516,963,1036
8517,964,1038
8518,967,1037
8519,965,1039
8520,970,1038
8521,971,1039
8522,978,1039
8523,981,1033
8524,981,1033
8525,984,1031
8526,983,1033
8527,980,1033
8528,977,1036
8529,973,1037
8530,970,1039
8531,962,1036
8532,963,1037
8533,961,1040
8534,967,1039
8535,973,1033
8536,978,1032
8537,982,1033
8538,984,1030
8539,986,1029
8540,985,1028
8541,984,1029
8542,978,1033
8543,972,1036
8544,966,1040
8545,963,1039
8546,964,1042
8547,966,1039
8548,966,1037
8549,969,1033
8550,972,1031
8551,976,1028
8552,973,1027
8553,977,1029
8554,979,1028
8555,984,1026
8556,989,1029
8557,991,1034
8558,988,1037
8559,979,1039
8560,971,1041
8561,967,1037
8562,967,1034
8563,969,1032
8564,973,1030
8565,973,1030
8566,975,1029
8567,975,1034
8568,977,1032
8569,980,1035
8570,982,1037
8571,982,1035
8572,980,1036
8573,976,1037
8574,971,1036
8575,971,1035
8576,971,1031
8577,970,1034
8578,976,1032
8579,979,1033
8580,982,1035
8581,981,1037
8582,983,1038
8583,980,1036
8584,979,1036
8585,976,1035
8586,975,1032
8587,975,1033
