'sample #','MLII','V1'
0,1005,1026
1,1005,1026
2,1005,1026
3,1005,1026
4,1005,1026
5,1005,1026
6,1005,1026
7,1005,1026
8,1005,1026
9,1006,1028
10,1007,1032
11,1010,1030
12,1012,1031
13,1016,1028
14,1018,1027
15,1021,1024
16,1026,1024
17,1035,1025
18,1043,1025
19,1054,1024
20,1067,1026
21,1082,1026
22,1097,1025
23,1113,1022
24,1133,1023
25,1152,1019
26,1175,1017
27,1194,1013
28,1203,1004
29,1199,994
30,1173,983
31,1122,968
32,1050,956
33,959,946
34,871,944
35,794,942
36,734,944
37,690,944
38,659,937
39,633,933
40,611,930
41,594,932
42,578,941
43,571,960
44,566,982
45,573,1015
46,581,1048
47,596,1084
48,614,1115
49,638,1143
50,660,1167
51,681,1185
52,706,1198
53,723,1207
54,738,1215
55,752,1223
56,766,1229
57,782,1231
58,802,1225
59,825,1215
60,848,1194
61,868,1160
62,884,1116
63,898,1069
64,909,1022
65,918,983
66,926,954
67,935,939
68,955,936
69,978,940
70,1006,952
71,1031,962
72,1061,972
73,1078,983
74,1090,990
75,1094,998
76,1094,1001
77,1089,1002
78,1084,1002
79,1086,998
80,1087,1001
81,1090,1002
82,1094,1003
83,1099,1003
84,1103,1006
85,1102,1006
86,1106,1005
87,1111,1005
88,1113,1002
89,1114,1001
90,1116,998
91,1117,997
92,1120,996
93,1120,996
94,1126,998
95,1131,1002
96,1136,1004
97,1139,1001
98,1146,1003
99,1150,1002
100,1151,998
101,1152,997
102,1155,995
103,1158,993
104,1161,994
105,1165,995
106,1169,996
107,1174,998
108,1179,998
109,1185,1000
110,1189,996
111,1194,994
112,1196,990
113,1197,988
114,1199,990
115,1203,989
116,1206,987
117,1209,990
118,1211,987
119,1213,988
120,1214,985
121,1214,984
122,1213,982
123,1212,980
124,1212,979
125,1209,976
126,1205,974
127,1200,971
128,1194,972
129,1188,972
130,1186,972
131,1180,970
132,1176,972
133,1171,973
134,1164,973
135,1157,975
136,1149,975
137,1141,973
138,1134,971
139,1125,971
140,1118,973
141,1110,978
142,1104,980
143,1102,985
144,1096,990
145,1092,992
146,1086,996
147,1080,1000
148,1072,1000
149,1066,1004
150,1060,1005
151,1055,1008
152,1050,1010
153,1045,1013
154,1042,1017
155,1041,1021
156,1037,1025
157,1036,1028
158,1032,1030
159,1029,1027
160,1027,1028
161,1023,1026
162,1020,1025
163,1022,1026
164,1020,1028
165,1020,1028
166,1020,1031
167,1022,1031
168,1024,1033
169,1026,1029
170,1024,1029
171,1023,1031
172,1023,1030
173,1022,1031
174,1022,1029
175,1020,1028
176,1022,1029
177,1022,1030
178,1021,1030
179,1023,1029
180,1023,1030
181,1025,1034
182,1023,1032
183,1022,1031
184,1021,1028
185,1019,1029
186,1016,1029
187,1016,1026
188,1016,1028
189,1014,1028
190,1015,1029
191,1014,1032
192,1018,1034
193,1018,1035
194,1019,1033
195,1017,1033
196,1014,1031
197,1013,1028
198,1012,1025
199,1010,1023
200,1010,1023
201,1011,1027
202,1013,1029
203,1015,1032
204,1016,1033
205,1016,1034
206,1014,1031
207,1013,1030
208,1012,1026
209,1011,1025
210,1008,1024
211,1008,1023
212,1009,1027
213,1005,1027
214,1007,1027
215,1010,1029
216,1011,1030
217,1013,1029
218,1012,1025
219,1009,1025
220,1009,1026
221,1005,1024
222,1007,1027
223,1004,1025
224,1004,1024
225,1006,1025
226,1006,1025
227,1007,1026
228,1007,1024
229,1010,1025
230,1004,1027
231,1007,1026
232,1009,1023
233,1007,1022
234,1007,1024
235,1004,1020
236,1004,1021
237,1004,1022
238,1006,1020
239,1004,1022
240,1007,1025
241,1008,1027
242,1006,1026
243,1005,1028
244,1007,1025
245,1007,1021
246,1007,1021
247,1005,1020
248,1005,1021
249,1006,1023
250,1006,1024
251,1006,1027
252,1008,1024
253,1009,1026
254,1008,1026
255,1012,1025
256,1016,1025
257,1017,1029
258,1018,1035
259,1022,1038
260,1026,1047
261,1029,1053
262,1033,1061
263,1037,1061
264,1040,1059
265,1044,1062
266,1048,1057
267,1053,1055
268,1060,1049
269,1064,1041
270,1067,1037
271,1067,1032
272,1067,1026
273,1060,1024
274,1055,1021
275,1053,1025
276,1055,1024
277,1057,1026
278,1058,1026
279,1058,1021
280,1054,1014
281,1049,1008
282,1043,1002
283,1035,1001
284,1030,1001
285,1024,1008
286,1019,1015
287,1017,1018
288,1015,1020
289,1015,1023
290,1011,1020
291,1007,1021
292,1001,1016
293,996,1016
294,995,1014
295,995,1015
296,993,1016
297,997,1017
298,997,1016
299,997,1015
300,998,1015
301,1003,1015
302,1003,1013
303,1005,1015
304,1003,1016
305,1002,1020
306,1001,1024
307,1004,1028
308,1014,1040
309,1030,1045
310,1058,1050
311,1096,1039
312,1133,1025
313,1175,999
314,1215,959
315,1251,912
316,1284,853
317,1316,781
318,1340,710
319,1355,646
320,1360,600
321,1354,580
322,1338,583
323,1308,602
324,1263,632
325,1206,671
326,1146,714
327,1092,763
328,1050,812
329,1021,853
330,1006,888
331,997,909
332,994,929
333,990,942
334,988,959
335,984,971
336,977,987
337,968,1000
338,964,1007
339,962,1016
340,960,1019
341,958,1023
342,958,1025
343,956,1024
344,955,1025
345,954,1030
346,955,1032
347,955,1035
348,954,1036
349,953,1041
350,954,1038
351,953,1041
352,953,1039
353,953,1042
354,951,1041
355,948,1043
356,948,1044
357,947,1043
358,948,1046
359,950,1047
360,950,1052
361,952,1057
362,950,1059
363,949,1062
364,947,1059
365,947,1059
366,947,1059
367,943,1057
368,944,1058
369,943,1062
370,942,1067
371,942,1070
372,940,1073
373,939,1079
374,940,1076
375,939,1072
376,935,1074
377,933,1075
378,929,1074
379,926,1078
380,925,1077
381,922,1083
382,919,1089
383,919,1089
384,917,1090
385,913,1093
386,912,1092
387,909,1093
388,904,1093
389,898,1094
390,893,1096
391,891,1096
392,891,1099
393,888,1102
394,885,1105
395,885,1105
396,884,1106
397,884,1107
398,884,1108
399,883,1108
400,880,1108
401,880,1108
402,881,1109
403,881,1107
404,883,1107
405,887,1105
406,890,1105
407,894,1104
408,897,1105
409,903,1104
410,906,1101
411,913,1097
412,915,1093
413,920,1088
414,924,1082
415,929,1075
416,937,1071
417,942,1070
418,950,1069
419,955,1066
420,959,1065
421,965,1063
422,969,1055
423,973,1054
424,975,1048
425,978,1042
426,980,1038
427,980,1036
428,984,1034
429,986,1036
430,987,1037
431,988,1038
432,990,1037
433,990,1035
434,991,1033
435,994,1031
436,992,1030
437,991,1028
438,988,1029
439,989,1028
440,990,1029
441,989,1031
442,992,1032
443,993,1031
444,991,1031
445,994,1031
446,994,1031
447,991,1032
448,991,1029
449,987,1031
450,989,1030
451,986,1031
452,985,1031
453,986,1031
454,985,1032
455,990,1032
456,992,1031
457,992,1033
458,991,1035
459,991,1034
460,992,1035
461,987,1033
462,986,1034
463,985,1034
464,987,1031
465,986,1031
466,994,1033
467,997,1035
468,1003,1038
469,1009,1040
470,1014,1041
471,1019,1044
472,1023,1049
473,1024,1053
474,1029,1059
475,1031,1063
476,1037,1071
477,1041,1079
478,1049,1085
479,1059,1088
480,1069,1095
481,1084,1098
482,1100,1099
483,1123,1100
484,1144,1091
485,1167,1080
486,1184,1068
487,1198,1055
488,1210,1045
489,1220,1037
490,1228,1029
491,1245,1024
492,1263,1019
493,1281,1009
494,1302,997
495,1317,980
496,1327,957
497,1334,932
498,1333,903
499,1324,878
500,1301,853
501,1263,834
502,1201,818
503,1123,803
504,1032,785
505,932,762
506,843,740
507,771,711
508,715,692
509,688,683
510,684,682
511,693,694
512,711,709
513,736,729
514,764,756
515,784,777
516,804,808
517,822,839
518,840,871
519,863,905
520,884,935
521,907,958
522,924,974
523,933,989
524,938,998
525,940,1004
526,940,1011
527,939,1016
528,938,1020
529,940,1023
530,942,1026
531,942,1025
532,943,1027
533,943,1027
534,941,1024
535,942,1026
536,940,1027
537,938,1033
538,938,1035
539,941,1036
540,941,1039
541,946,1039
542,944,1038
543,944,1040
544,943,1041
545,940,1041
546,941,1043
547,941,1040
548,939,1044
549,939,1046
550,939,1048
551,938,1048
552,938,1049
553,940,1051
554,941,1053
555,941,1054
556,940,1058
557,940,1059
558,938,1056
559,937,1058
560,937,1059
561,938,1063
562,938,1068
563,941,1073
564,942,1077
565,943,1079
566,943,1081
567,949,1083
568,950,1084
569,949,1086
570,952,1089
571,954,1090
572,958,1092
573,959,1098
574,963,1101
575,967,1106
576,970,1109
577,975,1112
578,977,1111
579,979,1112
580,983,1110
581,984,1108
582,984,1109
583,986,1111
584,987,1111
585,989,1113
586,990,1111
587,990,1113
588,992,1113
589,995,1110
590,993,1109
591,994,1107
592,992,1103
593,989,1100
594,986,1094
595,984,1093
596,978,1089
597,975,1087
598,976,1083
599,975,1081
600,974,1076
601,969,1075
602,967,1072
603,963,1068
604,961,1065
605,957,1059
606,954,1053
607,954,1052
608,951,1048
609,952,1046
610,950,1046
611,951,1048
612,951,1050
613,951,1050
614,953,1047
615,949,1046
616,948,1042
617,948,1041
618,948,1040
619,946,1039
620,945,1039
621,942,1040
622,944,1042
623,944,1044
624,945,1042
625,946,1046
626,948,1045
627,948,1045
628,949,1041
629,945,1039
630,944,1037
631,941,1037
632,940,1037
633,941,1040
634,944,1043
635,944,1046
636,947,1047
637,949,1045
638,950,1045
639,948,1045
640,948,1041
641,947,1041
642,945,1042
643,942,1041
644,941,1042
645,944,1041
646,944,1041
647,946,1043
648,945,1044
649,949,1044
650,947,1043
651,947,1042
652,946,1041
653,945,1042
654,943,1038
655,942,1035
656,942,1036
657,940,1037
658,938,1041
659,939,1040
660,941,1041
661,943,1043
662,944,1043
663,943,1043
664,942,1037
665,941,1036
666,939,1035
667,941,1036
668,937,1035
669,939,1034
670,939,1036
671,941,1041
672,941,1041
673,942,1040
674,942,1043
675,940,1038
676,942,1037
677,940,1035
678,938,1032
679,937,1035
680,940,1035
681,943,1038
682,946,1043
683,950,1047
684,953,1053
685,958,1058
686,960,1063
687,962,1069
688,964,1072
689,968,1072
690,968,1071
691,969,1071
692,971,1072
693,977,1068
694,985,1065
695,989,1064
696,995,1061
697,1001,1055
698,1002,1049
699,997,1045
700,993,1039
701,987,1037
702,983,1038
703,983,1036
704,980,1033
705,984,1033
706,985,1030
707,985,1025
708,984,1023
709,979,1021
710,970,1017
711,964,1017
712,957,1016
713,949,1021
714,944,1022
715,941,1024
716,937,1026
717,935,1025
718,934,1027
719,931,1029
720,929,1031
721,931,1033
722,926,1032
723,925,1032
724,925,1029
725,922,1025
726,924,1025
727,922,1024
728,921,1024
729,923,1024
730,924,1027
731,925,1027
732,927,1031
733,928,1028
734,926,1033
735,930,1038
736,932,1042
737,938,1050
738,952,1056
739,975,1063
740,1006,1058
741,1046,1040
742,1087,1018
743,1127,985
744,1163,945
745,1197,894
746,1231,828
747,1257,754
748,1281,681
749,1292,621
750,1293,582
751,1282,571
752,1257,580
753,1224,602
754,1176,636
755,1118,672
756,1062,718
757,1013,770
758,977,820
759,952,870
760,936,901
761,928,929
762,922,943
763,918,955
764,914,969
765,908,982
766,900,1000
767,898,1014
768,894,1029
769,892,1037
770,892,1039
771,891,1042
772,890,1040
773,888,1038
774,885,1041
775,886,1042
776,882,1046
777,881,1048
778,883,1052
779,883,1055
780,884,1060
781,883,1059
782,884,1060
783,883,1059
784,884,1060
785,880,1062
786,877,1059
787,877,1064
788,875,1064
789,876,1069
790,879,1071
791,879,1072
792,881,1073
793,879,1076
794,881,1073
795,880,1077
796,880,1075
797,876,1076
798,875,1080
799,875,1079
800,873,1080
801,873,1083
802,873,1083
803,872,1087
804,873,1090
805,874,1093
806,872,1093
807,870,1095
808,866,1097
809,864,1099
810,862,1099
811,858,1100
812,856,1100
813,855,1102
814,851,1106
815,850,1106
816,849,1111
817,850,1113
818,844,1115
819,843,1117
820,839,1120
821,836,1117
822,834,1117
823,830,1117
824,827,1118
825,823,1120
826,824,1123
827,824,1128
828,824,1130
829,822,1132
830,822,1130
831,823,1129
832,824,1125
833,825,1125
834,827,1122
835,827,1122
836,827,1121
837,833,1122
838,837,1121
839,841,1120
840,849,1119
841,854,1113
842,859,1110
843,863,1105
844,868,1098
845,872,1095
846,877,1090
847,881,1087
848,883,1082
849,887,1082
850,892,1077
851,899,1073
852,903,1068
853,909,1067
854,911,1063
855,912,1059
856,912,1058
857,913,1055
858,913,1049
859,914,1048
860,915,1048
861,915,1047
862,917,1049
863,918,1048
864,919,1047
865,922,1049
866,922,1050
867,921,1048
868,922,1044
869,922,1043
870,919,1040
871,918,1042
872,918,1043
873,918,1041
874,920,1044
875,918,1047
876,920,1050
877,923,1050
878,924,1050
879,924,1047
880,920,1047
881,921,1045
882,919,1044
883,918,1044
884,918,1044
885,918,1047
886,919,1049
887,920,1048
888,922,1051
889,923,1052
890,924,1051
891,924,1052
892,920,1049
893,920,1049
894,917,1048
895,916,1050
896,920,1051
897,922,1054
898,924,1055
899,927,1059
900,931,1064
901,936,1070
902,941,1076
903,944,1083
904,948,1084
905,948,1083
906,952,1085
907,952,1084
908,957,1082
909,961,1084
910,969,1081
911,978,1080
912,987,1077
913,992,1070
914,990,1061
915,988,1056
916,983,1048
917,979,1044
918,975,1043
919,975,1043
920,976,1041
921,977,1038
922,977,1038
923,974,1034
924,969,1029
925,965,1026
926,957,1025
927,949,1029
928,942,1033
929,936,1035
930,931,1037
931,930,1037
932,924,1038
933,924,1038
934,919,1039
935,917,1041
936,918,1040
937,919,1039
938,919,1036
939,918,1036
940,922,1037
941,919,1033
942,919,1035
943,917,1030
944,917,1032
945,919,1031
946,923,1033
947,921,1033
948,923,1037
949,927,1043
950,928,1051
951,932,1059
952,941,1068
953,959,1071
954,987,1071
955,1024,1059
956,1063,1036
957,1104,1006
958,1146,973
959,1182,922
960,1213,865
961,1245,794
962,1269,716
963,1287,647
964,1291,598
965,1285,568
966,1269,563
967,1243,580
968,1204,607
969,1155,642
970,1098,684
971,1043,732
972,1000,784
973,969,837
974,948,877
975,935,912
976,929,934
977,924,951
978,919,965
979,916,981
980,910,995
981,904,1011
982,899,1022
983,898,1032
984,899,1041
985,898,1045
986,900,1046
987,898,1048
988,899,1049
989,894,1051
990,895,1051
991,894,1049
992,893,1052
993,893,1054
994,893,1058
995,894,1059
996,895,1063
997,898,1067
998,898,1066
999,894,1070
1000,892,1068
1001,891,1067
1002,890,1068
1003,889,1070
1004,888,1068
1005,890,1073
1006,894,1078
1007,894,1080
1008,897,1081
1009,895,1083
1010,895,1084
1011,895,1084
1012,891,1084
1013,891,1086
1014,887,1087
1015,886,1090
1016,885,1092
1017,887,1097
1018,885,1098
1019,884,1103
1020,887,1105
1021,885,1105
1022,881,1109
1023,880,1107
1024,877,1110
1025,874,1112
1026,871,1114
1027,870,1119
1028,869,1119
1029,867,1125
1030,866,1127
1031,865,1129
1032,863,1131
1033,865,1133
1034,860,1134
1035,862,1136
1036,863,1137
1037,860,1138
1038,857,1138
1039,857,1137
1040,855,1137
1041,856,1140
1042,858,1140
1043,861,1143
1044,864,1143
1045,868,1142
1046,870,1139
1047,874,1138
1048,876,1133
1049,880,1128
1050,881,1124
1051,885,1120
1052,888,1112
1053,895,1111
1054,899,1108
1055,903,1105
1056,909,1101
1057,914,1096
1058,916,1090
1059,920,1083
1060,921,1078
1061,923,1072
1062,926,1067
1063,927,1069
1064,928,1062
1065,931,1061
1066,931,1059
1067,935,1059
1068,937,1059
1069,940,1055
1070,938,1053
1071,940,1050
1072,939,1046
1073,941,1045
1074,942,1046
1075,941,1045
1076,945,1045
1077,949,1047
1078,952,1048
1079,956,1046
1080,965,1048
1081,970,1045
1082,978,1047
1083,986,1046
1084,995,1045
1085,1003,1044
1086,1015,1041
1087,1028,1040
1088,1044,1038
1089,1062,1037
1090,1080,1033
1091,1104,1034
1092,1124,1031
1093,1135,1023
1094,1130,1016
1095,1108,1002
1096,1060,988
1097,987,972
1098,899,960
1099,807,955
1100,728,952
1101,668,955
1102,623,953
1103,596,953
1104,578,947
1105,560,942
1106,548,943
1107,537,953
1108,530,971
1109,530,997
1110,533,1031
1111,540,1070
1112,557,1108
1113,576,1145
1114,598,1174
1115,621,1203
1116,645,1223
1117,666,1242
1118,688,1258
1119,704,1265
1120,714,1272
1121,726,1272
1122,743,1268
1123,766,1252
1124,792,1217
1125,820,1169
1126,839,1111
1127,852,1046
1128,860,992
1129,866,953
1130,876,936
1131,894,938
1132,920,948
1133,951,964
1134,988,975
1135,1019,986
1136,1040,992
1137,1054,997
1138,1058,1000
1139,1054,1005
1140,1051,1008
1141,1047,1010
1142,1045,1014
1143,1047,1014
1144,1051,1014
1145,1055,1013
1146,1057,1014
1147,1061,1013
1148,1064,1016
1149,1065,1017
1150,1068,1020
1151,1073,1020
1152,1079,1021
1153,1082,1021
1154,1086,1017
1155,1087,1016
1156,1091,1012
1157,1092,1012
1158,1095,1012
1159,1098,1012
1160,1100,1014
1161,1105,1014
1162,1111,1016
1163,1115,1016
1164,1122,1017
1165,1124,1013
1166,1130,1014
1167,1135,1011
1168,1135,1009
1169,1138,1010
1170,1141,1011
1171,1146,1009
1172,1153,1008
1173,1157,1007
1174,1162,1007
1175,1166,1006
1176,1171,1009
1177,1175,1007
1178,1178,1006
1179,1179,1004
1180,1179,1001
1181,1180,999
1182,1178,997
1183,1176,994
1184,1176,993
1185,1173,992
1186,1175,993
1187,1173,991
1188,1170,989
1189,1166,988
1190,1161,989
1191,1154,986
1192,1145,981
1193,1136,980
1194,1127,982
1195,1119,982
1196,1113,983
1197,1107,987
1198,1099,991
1199,1093,994
1200,1085,995
1201,1076,997
1202,1070,1002
1203,1061,1002
1204,1052,1006
1205,1044,1009
1206,1037,1011
1207,1030,1017
1208,1025,1023
1209,1020,1027
1210,1014,1028
1211,1012,1032
1212,1012,1035
1213,1008,1038
1214,1002,1039
1215,999,1041
1216,995,1041
1217,992,1040
1218,988,1040
1219,986,1042
1220,987,1041
1221,986,1043
1222,984,1046
1223,986,1047
1224,988,1048
1225,985,1045
1226,986,1047
1227,983,1044
1228,981,1045
1229,981,1042
1230,979,1040
1231,976,1041
1232,978,1042
1233,980,1047
1234,981,1047
1235,982,1048
1236,984,1048
1237,985,1049
1238,985,1047
1239,986,1044
1240,982,1042
1241,982,1043
1242,981,1039
1243,979,1043
1244,980,1044
1245,980,1046
1246,979,1045
1247,979,1047
1248,982,1048
1249,982,1044
1250,983,1044
1251,982,1044
1252,980,1042
1253,977,1041
1254,977,1043
1255,975,1042
1256,974,1043
1257,976,1041
1258,976,1043
1259,977,1043
1260,980,1044
1261,979,1046
1262,978,1044
1263,976,1043
1264,976,1040
1265,973,1039
1266,972,1039
1267,972,1037
1268,970,1038
1269,970,1040
1270,973,1039
1271,972,1042
1272,975,1043
1273,974,1041
1274,977,1043
1275,977,1041
1276,976,1038
1277,976,1038
1278,973,1036
1279,972,1037
1280,971,1038
1281,975,1037
1282,975,1038
1283,977,1037
1284,978,1039
1285,978,1036
1286,976,1037
1287,975,1035
1288,975,1033
1289,973,1034
1290,973,1034
1291,975,1034
1292,976,1035
1293,975,1036
1294,974,1036
1295,976,1036
1296,978,1039
1297,980,1038
1298,978,1040
1299,980,1039
1300,979,1035
1301,977,1032
1302,975,1030
1303,978,1032
1304,978,1031
1305,976,1035
1306,977,1037
1307,979,1037
1308,984,1037
1309,984,1036
1310,984,1037
1311,984,1034
1312,982,1031
1313,980,1032
1314,982,1031
1315,982,1033
1316,986,1035
1317,989,1039
1318,993,1042
1319,1000,1049
1320,1003,1057
1321,1008,1062
1322,1010,1068
1323,1015,1071
1324,1016,1072
1325,1015,1071
1326,1014,1070
1327,1018,1068
1328,1023,1067
1329,1031,1065
1330,1038,1060
1331,1049,1055
1332,1056,1050
1333,1057,1046
1334,1054,1044
1335,1046,1038
1336,1040,1033
1337,1039,1028
1338,1037,1030
1339,1036,1025
1340,1040,1027
1341,1042,1023
1342,1041,1018
1343,1037,1013
1344,1035,1013
1345,1027,1010
1346,1019,1011
1347,1015,1011
1348,1010,1013
1349,1001,1018
1350,997,1017
1351,993,1017
1352,990,1019
1353,986,1025
1354,985,1023
1355,986,1027
1356,986,1029
1357,983,1026
1358,984,1024
1359,984,1023
1360,983,1020
1361,983,1018
1362,984,1016
1363,982,1018
1364,982,1018
1365,983,1019
1366,984,1021
1367,986,1022
1368,987,1027
1369,990,1031
1370,994,1038
1371,1002,1045
1372,1014,1053
1373,1035,1054
1374,1065,1051
1375,1100,1032
1376,1141,1005
1377,1182,971
1378,1220,929
1379,1252,877
1380,1287,813
1381,1313,742
1382,1338,670
1383,1352,611
1384,1351,570
1385,1340,555
1386,1320,563
1387,1289,581
1388,1243,612
1389,1190,648
1390,1133,693
1391,1085,743
1392,1048,797
1393,1021,847
1394,1007,883
1395,996,911
1396,989,927
1397,986,943
1398,978,955
1399,970,968
1400,964,983
1401,959,999
1402,957,1012
1403,955,1023
1404,955,1030
1405,956,1032
1406,955,1031
1407,956,1030
1408,953,1033
1409,951,1032
1410,950,1033
1411,946,1034
1412,948,1040
1413,950,1041
1414,948,1044
1415,950,1046
1416,949,1050
1417,951,1049
1418,949,1050
1419,950,1050
1420,950,1052
1421,946,1052
1422,946,1050
1423,943,1053
1424,944,1055
1425,943,1059
1426,945,1061
1427,946,1061
1428,946,1061
1429,945,1066
1430,943,1065
1431,944,1068
1432,943,1066
1433,938,1069
1434,938,1067
1435,936,1068
1436,937,1072
1437,934,1072
1438,935,1074
1439,935,1080
1440,935,1081
1441,932,1083
1442,929,1086
1443,925,1084
1444,922,1084
1445,919,1085
1446,915,1085
1447,912,1088
1448,910,1090
1449,906,1093
1450,904,1099
1451,903,1098
1452,902,1102
1453,898,1104
1454,896,1104
1455,892,1103
1456,888,1101
1457,883,1103
1458,881,1100
1459,877,1101
1460,875,1105
1461,876,1108
1462,875,1110
1463,876,1111
1464,876,1112
1465,879,1111
1466,878,1112
1467,879,1109
1468,879,1105
1469,879,1106
1470,883,1103
1471,884,1102
1472,888,1101
1473,893,1100
1474,899,1097
1475,904,1096
1476,911,1096
1477,915,1092
1478,921,1085
1479,927,1083
1480,931,1079
1481,936,1072
1482,941,1068
1483,946,1063
1484,950,1060
1485,956,1057
1486,964,1053
1487,969,1050
1488,973,1047
1489,976,1045
1490,979,1041
1491,985,1038
1492,984,1036
1493,985,1032
1494,986,1029
1495,985,1027
1496,987,1027
1497,989,1029
1498,989,1029
1499,993,1033
1500,993,1031
1501,995,1029
1502,994,1029
1503,994,1025
1504,993,1024
1505,994,1025
1506,992,1023
1507,994,1025
1508,993,1028
1509,995,1028
1510,996,1025
1511,997,1030
1512,1000,1028
1513,1000,1028
1514,998,1027
1515,998,1027
1516,997,1026
1517,997,1026
1518,995,1026
1519,993,1026
1520,994,1026
1521,995,1027
1522,995,1030
1523,997,1030
1524,1001,1033
1525,1000,1032
1526,1000,1034
1527,1001,1034
1528,1002,1033
1529,1002,1033
1530,1003,1030
1531,1004,1031
1532,1008,1028
1533,1012,1032
1534,1018,1035
1535,1024,1038
1536,1031,1047
1537,1036,1049
1538,1038,1055
1539,1043,1065
1540,1049,1070
1541,1053,1075
1542,1060,1079
1543,1069,1082
1544,1081,1084
1545,1094,1091
1546,1112,1096
1547,1135,1097
1548,1158,1089
1549,1182,1081
1550,1199,1066
1551,1217,1051
1552,1227,1036
1553,1236,1025
1554,1245,1014
1555,1259,1008
1556,1277,1004
1557,1294,994
1558,1314,981
1559,1329,961
1560,1339,938
1561,1343,910
1562,1337,880
1563,1319,853
1564,1287,828
1565,1239,808
1566,1169,794
1567,1084,778
1568,988,761
1569,895,741
1570,815,719
1571,752,692
1572,713,682
1573,696,679
1574,696,682
1575,710,692
1576,728,701
1577,753,720
1578,776,742
1579,794,765
1580,809,792
1581,826,820
1582,845,856
1583,870,889
1584,891,918
1585,914,942
1586,935,966
1587,954,979
1588,960,990
1589,968,998
1590,965,1001
1591,963,1006
1592,963,1009
1593,965,1014
1594,967,1020
1595,967,1022
1596,969,1025
1597,971,1026
1598,973,1025
1599,975,1025
1600,972,1027
1601,972,1024
1602,970,1022
1603,972,1025
1604,970,1029
1605,973,1033
1606,975,1036
1607,973,1036
1608,975,1036
1609,976,1038
1610,978,1039
1611,976,1036
1612,975,1037
1613,974,1036
1614,974,1038
1615,972,1040
1616,973,1042
1617,973,1044
1618,976,1046
1619,977,1049
1620,978,1051
1621,978,1053
1622,978,1052
1623,977,1055
1624,975,1054
1625,976,1057
1626,975,1060
1627,976,1061
1628,978,1064
1629,979,1065
1630,979,1069
1631,985,1073
1632,988,1076
1633,990,1080
1634,991,1084
1635,995,1084
1636,997,1086
1637,996,1089
1638,999,1089
1639,999,1092
1640,1002,1094
1641,1007,1097
1642,1011,1102
1643,1014,1106
1644,1019,1109
1645,1023,1110
1646,1026,1112
1647,1029,1111
1648,1031,1111
1649,1028,1109
1650,1028,1107
1651,1029,1108
1652,1032,1109
1653,1033,1112
1654,1033,1112
1655,1038,1108
1656,1037,1107
1657,1038,1104
1658,1036,1102
1659,1033,1097
1660,1030,1094
1661,1027,1089
1662,1023,1086
1663,1020,1083
1664,1020,1083
1665,1017,1076
1666,1016,1076
1667,1014,1069
1668,1013,1069
1669,1012,1063
1670,1010,1061
1671,1008,1054
1672,1002,1052
1673,1001,1047
1674,1000,1046
1675,997,1045
1676,998,1044
1677,997,1040
1678,999,1042
1679,996,1040
1680,1000,1041
1681,998,1039
1682,998,1040
1683,997,1036
1684,995,1036
1685,992,1032
1686,993,1033
1687,992,1032
1688,990,1030
1689,992,1033
1690,992,1032
1691,996,1034
1692,997,1037
1693,998,1037
1694,997,1034
1695,996,1035
1696,997,1032
1697,996,1030
1698,996,1027
1699,995,1029
1700,995,1030
1701,998,1035
1702,1000,1036
1703,1001,1039
1704,1005,1036
1705,1003,1035
1706,1002,1035
1707,1000,1031
1708,1000,1031
1709,1000,1030
1710,1001,1028
1711,999,1028
1712,998,1033
1713,999,1034
1714,1002,1033
1715,1002,1035
1716,1003,1036
1717,1003,1035
1718,1003,1034
1719,1002,1032
1720,1000,1031
1721,1000,1030
1722,999,1029
1723,997,1029
1724,996,1028
1725,999,1028
1726,1001,1029
1727,1001,1032
1728,1002,1032
1729,1003,1031
1730,1000,1030
1731,1002,1032
1732,1000,1030
1733,999,1029
1734,1000,1027
1735,1001,1027
1736,1001,1026
1737,1001,1026
1738,1002,1028
1739,1002,1031
1740,1003,1031
1741,1005,1029
1742,1001,1029
1743,1002,1028
1744,1001,1025
1745,1003,1023
1746,999,1020
1747,1001,1021
1748,1002,1022
1749,1006,1025
1750,1008,1029
1751,1011,1030
1752,1014,1035
1753,1018,1038
1754,1021,1043
1755,1023,1046
1756,1025,1050
1757,1026,1054
1758,1026,1058
1759,1031,1062
1760,1033,1061
1761,1032,1066
1762,1037,1065
1763,1042,1063
1764,1051,1063
1765,1056,1058
1766,1062,1053
1767,1070,1047
1768,1071,1040
1769,1068,1033
1770,1066,1030
1771,1061,1027
1772,1057,1027
1773,1055,1026
1774,1056,1025
1775,1057,1025
1776,1060,1023
1777,1062,1018
1778,1058,1014
1779,1056,1008
1780,1050,1002
1781,1042,1001
1782,1036,1000
1783,1029,1002
1784,1023,1005
1785,1016,1010
1786,1013,1015
1787,1012,1019
1788,1011,1020
1789,1005,1017
1790,1005,1020
1791,1003,1017
1792,998,1018
1793,995,1014
1794,993,1015
1795,994,1012
1796,993,1012
1797,995,1013
1798,1000,1013
1799,999,1014
1800,1000,1015
1801,1002,1016
1802,1003,1017
1803,1004,1014
1804,1004,1014
1805,1002,1016
1806,1006,1023
1807,1011,1034
1808,1020,1046
1809,1041,1052
1810,1072,1050
1811,1110,1035
1812,1149,1010
1813,1191,975
1814,1226,932
1815,1259,877
1816,1290,812
1817,1317,740
1818,1338,665
1819,1349,601
1820,1351,560
1821,1339,546
1822,1318,554
1823,1288,576
1824,1243,607
1825,1191,645
1826,1135,693
1827,1091,744
1828,1052,799
1829,1032,847
1830,1014,883
1831,1007,909
1832,1003,928
1833,998,946
1834,993,962
1835,986,980
1836,980,996
1837,975,1009
1838,973,1017
1839,970,1022
1840,968,1023
1841,967,1024
1842,965,1026
1843,965,1028
1844,965,1029
1845,965,1034
1846,965,1039
1847,967,1043
1848,966,1044
1849,967,1045
1850,966,1046
1851,966,1047
1852,964,1045
1853,963,1049
1854,960,1048
1855,961,1049
1856,960,1052
1857,963,1055
1858,961,1058
1859,963,1060
1860,962,1061
1861,961,1060
1862,961,1062
1863,962,1063
1864,958,1063
1865,957,1063
1866,956,1065
1867,954,1068
1868,953,1070
1869,952,1072
1870,951,1074
1871,950,1078
1872,951,1078
1873,953,1082
1874,952,1083
1875,948,1083
1876,944,1083
1877,942,1084
1878,937,1082
1879,931,1085
1880,930,1087
1881,929,1090
1882,926,1093
1883,925,1097
1884,924,1102
1885,922,1102
1886,920,1101
1887,917,1102
1888,914,1103
1889,912,1102
1890,909,1102
1891,906,1105
1892,903,1108
1893,903,1109
1894,900,1114
1895,899,1112
1896,902,1114
1897,907,1112
1898,908,1111
1899,908,1109
1900,910,1109
1901,911,1106
1902,912,1105
1903,914,1102
1904,918,1103
1905,922,1099
1906,926,1098
1907,930,1097
1908,938,1095
1909,945,1088
1910,947,1085
1911,954,1082
1912,957,1077
1913,961,1073
1914,963,1065
1915,967,1064
1916,973,1058
1917,978,1054
1918,984,1052
1919,989,1051
1920,994,1049
1921,998,1045
1922,999,1040
1923,1004,1037
1924,1002,1035
1925,1002,1031
1926,1001,1028
1927,999,1029
1928,1001,1028
1929,1002,1026
1930,1005,1027
1931,1004,1030
1932,1006,1030
1933,1006,1028
1934,1008,1027
1935,1008,1027
1936,1007,1023
1937,1007,1020
1938,1006,1019
1939,1004,1022
1940,1005,1021
1941,1006,1025
1942,1007,1028
1943,1006,1028
1944,1008,1029
1945,1006,1026
1946,1007,1027
1947,1005,1023
1948,1004,1024
1949,1005,1024
1950,1005,1024
1951,1004,1024
1952,1004,1025
1953,1005,1026
1954,1005,1026
1955,1005,1028
1956,1004,1027
1957,1008,1028
1958,1007,1030
1959,1008,1028
1960,1007,1027
1961,1006,1027
1962,1005,1028
1963,1004,1029
1964,1006,1029
1965,1009,1031
1966,1012,1030
1967,1014,1035
1968,1015,1039
1969,1021,1041
1970,1023,1046
1971,1028,1051
1972,1032,1053
1973,1034,1058
1974,1038,1058
1975,1039,1060
1976,1042,1062
1977,1046,1062
1978,1048,1064
1979,1055,1063
1980,1061,1061
1981,1071,1055
1982,1072,1048
1983,1075,1036
1984,1073,1030
1985,1069,1025
1986,1063,1019
1987,1061,1018
1988,1057,1020
1989,1055,1020
1990,1062,1020
1991,1062,1016
1992,1063,1012
1993,1060,1006
1994,1055,1004
1995,1049,1001
1996,1041,1001
1997,1034,1002
1998,1027,1007
1999,1025,1012
2000,1019,1014
2001,1020,1016
2002,1017,1016
2003,1015,1017
2004,1012,1015
2005,1010,1016
2006,1008,1017
2007,1006,1017
2008,1004,1014
2009,1003,1014
2010,1003,1013
2011,1002,1013
2012,1004,1011
2013,1004,1011
2014,1007,1011
2015,1009,1013
2016,1011,1015
2017,1011,1016
2018,1009,1017
2019,1009,1015
2020,1005,1016
2021,1007,1020
2022,1010,1026
2023,1016,1036
2024,1029,1044
2025,1055,1049
2026,1083,1048
2027,1122,1034
2028,1163,1007
2029,1204,971
2030,1240,926
2031,1275,865
2032,1306,793
2033,1327,714
2034,1344,639
2035,1351,582
2036,1346,550
2037,1332,544
2038,1307,558
2039,1269,582
2040,1227,620
2041,1172,661
2042,1121,713
2043,1080,766
2044,1047,814
2045,1029,862
2046,1018,894
2047,1008,915
2048,1007,931
2049,1005,944
2050,999,959
2051,994,975
2052,987,988
2053,983,1000
2054,978,1011
2055,979,1017
2056,978,1020
2057,978,1021
2058,976,1020
2059,973,1022
2060,973,1025
2061,972,1026
2062,972,1029
2063,972,1034
2064,973,1037
2065,973,1039
2066,974,1040
2067,972,1040
2068,971,1042
2069,971,1041
2070,972,1039
2071,968,1042
2072,968,1046
2073,967,1048
2074,970,1050
2075,972,1053
2076,971,1056
2077,972,1055
2078,970,1057
2079,968,1057
2080,966,1058
2081,964,1059
2082,963,1058
2083,962,1061
2084,959,1063
2085,956,1067
2086,956,1072
2087,960,1074
2088,959,1075
2089,959,1076
2090,955,1077
2091,955,1078
2092,951,1082
2093,949,1084
2094,944,1084
2095,942,1087
2096,940,1089
2097,937,1093
2098,935,1095
2099,933,1101
2100,932,1105
2101,930,1107
2102,929,1106
2103,925,1109
2104,924,1106
2105,920,1106
2106,919,1106
2107,916,1108
2108,916,1109
2109,912,1111
2110,916,1115
2111,919,1116
2112,919,1117
2113,921,1118
2114,924,1116
2115,926,1112
2116,926,1111
2117,929,1105
2118,931,1101
2119,934,1095
2120,936,1094
2121,944,1091
2122,949,1089
2123,954,1083
2124,960,1080
2125,964,1070
2126,967,1067
2127,970,1061
2128,972,1055
2129,972,1048
2130,975,1043
2131,975,1039
2132,977,1036
2133,981,1036
2134,983,1034
2135,984,1031
2136,986,1029
2137,986,1027
2138,988,1026
2139,986,1024
2140,987,1022
2141,986,1020
2142,983,1019
2143,984,1015
2144,985,1018
2145,983,1018
2146,992,1018
2147,994,1021
2148,999,1022
2149,1007,1024
2150,1011,1021
2151,1020,1020
2152,1030,1018
2153,1040,1014
2154,1052,1012
2155,1063,1011
2156,1080,1011
2157,1096,1013
2158,1120,1010
2159,1142,1008
2160,1160,1001
2161,1164,992
2162,1148,975
2163,1102,959
2164,1024,941
2165,926,927
2166,821,921
2167,729,921
2168,657,921
2169,606,920
2170,576,918
2171,555,917
2172,544,920
2173,535,933
2174,533,955
2175,535,983
2176,538,1015
2177,546,1051
2178,558,1088
2179,574,1119
2180,598,1150
2181,621,1178
2182,646,1201
2183,670,1223
2184,690,1235
2185,704,1244
2186,715,1251
2187,728,1254
2188,744,1247
2189,768,1229
2190,792,1194
2191,816,1145
2192,833,1088
2193,846,1030
2194,854,978
2195,860,939
2196,869,914
2197,881,908
2198,901,914
2199,930,925
2200,963,936
2201,993,945
2202,1021,955
2203,1037,963
2204,1045,967
2205,1049,976
2206,1047,980
2207,1043,983
2208,1043,985
2209,1046,987
2210,1048,988
2211,1053,989
2212,1053,989
2213,1056,988
2214,1058,989
2215,1058,987
2216,1061,986
2217,1066,987
2218,1067,987
2219,1071,991
2220,1075,989
2221,1081,989
2222,1083,989
2223,1085,985
2224,1086,983
2225,1087,980
2226,1090,981
2227,1093,980
2228,1096,983
2229,1101,984
2230,1106,984
2231,1110,987
2232,1118,985
2233,1125,984
2234,1124,985
2235,1128,982
2236,1134,979
2237,1137,980
2238,1138,979
2239,1139,978
2240,1144,976
2241,1146,974
2242,1147,975
2243,1151,975
2244,1154,973
2245,1154,972
2246,1155,972
2247,1153,971
2248,1149,968
2249,1144,964
2250,1139,963
2251,1135,961
2252,1131,959
2253,1128,958
2254,1125,958
2255,1117,959
2256,1111,961
2257,1105,960
2258,1096,957
2259,1084,958
2260,1072,955
2261,1064,955
2262,1055,957
2263,1048,962
2264,1038,963
2265,1032,969
2266,1027,972
2267,1020,977
2268,1014,978
2269,1007,983
2270,1000,985
2271,992,989
2272,986,992
2273,980,993
2274,972,998
2275,963,1001
2276,957,1006
2277,952,1008
2278,950,1011
2279,948,1014
2280,946,1017
2281,945,1020
2282,942,1018
2283,938,1017
2284,934,1017
2285,930,1019
2286,926,1022
2287,922,1021
2288,921,1021
2289,921,1022
2290,923,1021
2291,921,1020
2292,920,1023
2293,922,1022
2294,919,1023
2295,919,1024
2296,916,1024
2297,914,1024
2298,911,1022
2299,910,1021
2300,910,1020
2301,907,1020
2302,909,1021
2303,912,1024
2304,911,1027
2305,912,1026
2306,911,1027
2307,912,1025
2308,910,1025
2309,911,1020
2310,910,1017
2311,908,1017
2312,908,1017
2313,904,1019
2314,904,1026
2315,899,1027
2316,899,1030
2317,900,1029
2318,899,1023
2319,902,1023
2320,900,1019
2321,898,1018
2322,897,1017
2323,891,1020
2324,889,1025
2325,889,1026
2326,890,1031
2327,890,1033
2328,890,1031
2329,893,1027
2330,892,1026
2331,889,1024
2332,886,1025
2333,887,1022
2334,885,1024
2335,886,1023
2336,885,1025
2337,885,1024
2338,887,1025
2339,885,1021
2340,887,1021
2341,886,1021
2342,883,1019
2343,883,1019
2344,880,1020
2345,879,1022
2346,877,1020
2347,874,1021
2348,876,1024
2349,877,1021
2350,880,1027
2351,883,1024
2352,886,1022
2353,887,1022
2354,882,1022
2355,879,1023
2356,876,1022
2357,873,1021
2358,871,1015
2359,871,1008
2360,871,1008
2361,870,1011
2362,871,1020
2363,870,1028
2364,870,1033
2365,868,1030
2366,867,1025
2367,864,1020
2368,864,1018
2369,865,1016
2370,863,1013
2371,864,1014
2372,867,1018
2373,865,1021
2374,866,1025
2375,867,1027
2376,866,1030
2377,865,1030
2378,865,1031
2379,868,1025
2380,868,1024
2381,867,1025
2382,866,1027
2383,862,1027
2384,859,1027
2385,858,1024
2386,859,1026
2387,864,1029
2388,868,1037
2389,877,1045
2390,881,1056
2391,881,1065
2392,879,1068
2393,878,1071
2394,878,1067
2395,879,1067
2396,883,1064
2397,891,1065
2398,895,1066
2399,902,1063
2400,908,1058
2401,909,1054
2402,913,1050
2403,911,1048
2404,907,1042
2405,907,1038
2406,907,1036
2407,906,1031
2408,908,1030
2409,906,1027
2410,903,1026
2411,893,1025
2412,889,1023
2413,880,1021
2414,872,1021
2415,864,1021
2416,856,1027
2417,853,1032
2418,851,1037
2419,846,1035
2420,844,1032
2421,843,1029
2422,843,1026
2423,843,1028
2424,843,1026
2425,844,1026
2426,842,1028
2427,840,1025
2428,837,1025
2429,835,1025
2430,832,1025
2431,836,1025
2432,836,1028
2433,836,1028
2434,838,1028
2435,838,1034
2436,842,1042
2437,850,1050
2438,856,1056
2439,880,1060
2440,911,1058
2441,952,1046
2442,999,1032
2443,1043,1005
2444,1088,968
2445,1128,925
2446,1165,872
2447,1198,812
2448,1225,747
2449,1240,690
2450,1242,653
2451,1229,633
2452,1194,632
2453,1143,652
2454,1076,679
2455,1001,723
2456,931,768
2457,880,815
2458,850,860
2459,840,899
2460,842,927
2461,846,947
2462,847,961
2463,846,974
2464,838,986
2465,829,999
2466,818,1010
2467,811,1021
2468,809,1026
2469,808,1034
2470,808,1039
2471,808,1044
2472,811,1045
2473,813,1049
2474,810,1051
2475,810,1053
2476,806,1054
2477,800,1051
2478,799,1050
2479,797,1051
2480,799,1055
2481,800,1057
2482,802,1061
2483,803,1064
2484,802,1067
2485,804,1065
2486,804,1067
2487,803,1066
2488,801,1063
2489,799,1065
2490,797,1065
2491,795,1068
2492,795,1070
2493,799,1073
2494,798,1072
2495,803,1076
2496,803,1075
2497,800,1075
2498,799,1075
2499,798,1076
2500,796,1076
2501,792,1078
2502,792,1081
2503,785,1086
2504,788,1083
2505,786,1086
2506,786,1089
2507,785,1089
2508,785,1093
2509,785,1095
2510,783,1095
2511,779,1096
2512,775,1095
2513,773,1096
2514,770,1097
2515,763,1097
2516,764,1100
2517,760,1103
2518,759,1105
2519,760,1109
2520,759,1111
2521,756,1114
2522,754,1114
2523,748,1114
2524,748,1112
2525,746,1113
2526,742,1110
2527,740,1112
2528,739,1111
2529,737,1116
2530,737,1118
2531,738,1122
2532,739,1124
2533,739,1123
2534,739,1124
2535,740,1121
2536,741,1116
2537,745,1114
2538,747,1112
2539,750,1111
2540,755,1111
2541,756,1112
2542,762,1112
2543,768,1110
2544,774,1108
2545,780,1103
2546,786,1099
2547,793,1095
2548,798,1089
2549,804,1086
2550,808,1082
2551,812,1079
2552,818,1075
2553,822,1074
2554,828,1071
2555,834,1068
2556,836,1065
2557,844,1065
2558,843,1063
2559,848,1059
2560,853,1059
2561,851,1057
2562,850,1054
2563,848,1052
2564,850,1052
2565,852,1053
2566,851,1054
2567,853,1055
2568,853,1057
2569,855,1056
2570,852,1055
2571,852,1052
2572,852,1052
2573,855,1053
2574,853,1049
2575,853,1051
2576,853,1050
2577,853,1052
2578,855,1055
2579,856,1057
2580,858,1059
2581,861,1057
2582,863,1056
2583,864,1052
2584,864,1052
2585,860,1048
2586,858,1051
2587,855,1055
2588,856,1057
2589,857,1059
2590,858,1063
2591,859,1062
2592,861,1060
2593,859,1059
2594,863,1057
2595,865,1058
2596,863,1059
2597,864,1058
2598,863,1059
2599,864,1059
2600,865,1061
2601,866,1062
2602,868,1061
2603,872,1062
2604,874,1064
2605,875,1069
2606,878,1070
2607,881,1078
2608,885,1081
2609,887,1081
2610,889,1084
2611,891,1084
2612,895,1083
2613,894,1084
2614,897,1085
2615,902,1087
2616,907,1090
2617,915,1089
2618,922,1081
2619,927,1076
2620,930,1070
2621,929,1061
2622,928,1055
2623,923,1049
2624,920,1050
2625,919,1054
2626,921,1055
2627,922,1057
2628,924,1055
2629,926,1052
2630,925,1048
2631,923,1043
2632,915,1038
2633,908,1033
2634,903,1032
2635,896,1034
2636,893,1038
2637,891,1041
2638,887,1049
2639,885,1051
2640,884,1052
2641,880,1050
2642,878,1050
2643,875,1048
2644,874,1045
2645,871,1044
2646,870,1044
2647,870,1044
2648,871,1045
2649,871,1046
2650,872,1046
2651,873,1045
2652,874,1045
2653,876,1044
2654,877,1046
2655,880,1046
2656,880,1046
2657,880,1048
2658,878,1052
2659,883,1061
2660,895,1067
2661,912,1076
2662,942,1078
2663,981,1071
2664,1026,1055
2665,1077,1031
2666,1120,993
2667,1163,944
2668,1201,880
2669,1234,811
2670,1260,736
2671,1277,672
2672,1280,632
2673,1266,613
2674,1238,619
2675,1194,642
2676,1131,678
2677,1059,721
2678,986,770
2679,936,821
2680,900,865
2681,882,904
2682,875,930
2683,879,952
2684,880,968
2685,879,984
2686,876,1000
2687,870,1017
2688,867,1031
2689,861,1042
2690,860,1051
2691,861,1051
2692,860,1052
2693,858,1053
2694,857,1057
2695,854,1057
2696,855,1057
2697,854,1061
2698,856,1064
2699,857,1066
2700,860,1067
2701,861,1070
2702,859,1072
2703,857,1070
2704,857,1071
2705,856,1071
2706,855,1070
2707,853,1071
2708,855,1073
2709,856,1074
2710,853,1078
2711,854,1082
2712,855,1083
2713,855,1087
2714,857,1083
2715,854,1083
2716,851,1082
2717,854,1084
2718,852,1087
2719,851,1089
2720,849,1092
2721,851,1093
2722,853,1097
2723,853,1099
2724,853,1101
2725,849,1102
2726,849,1104
2727,844,1107
2728,843,1107
2729,841,1110
2730,838,1111
2731,833,1111
2732,835,1111
2733,832,1114
2734,832,1117
2735,830,1119
2736,831,1123
2737,829,1127
2738,831,1125
2739,828,1127
2740,826,1128
2741,822,1128
2742,819,1131
2743,819,1129
2744,821,1127
2745,823,1132
2746,824,1134
2747,824,1137
2748,826,1137
2749,828,1139
2750,830,1136
2751,833,1132
2752,835,1127
2753,836,1125
2754,841,1122
2755,843,1120
2756,850,1114
2757,855,1115
2758,862,1112
2759,867,1107
2760,874,1103
2761,880,1098
2762,884,1093
2763,886,1087
2764,888,1084
2765,891,1078
2766,891,1075
2767,894,1072
2768,896,1070
2769,898,1068
2770,900,1068
2771,903,1066
2772,904,1064
2773,907,1060
2774,906,1060
2775,905,1056
2776,907,1058
2777,904,1056
2778,903,1055
2779,904,1055
2780,904,1053
2781,908,1054
2782,909,1050
2783,907,1053
2784,911,1055
2785,908,1055
2786,909,1057
2787,912,1056
2788,910,1054
2789,909,1052
2790,908,1050
2791,909,1046
2792,908,1049
2793,909,1051
2794,908,1053
2795,909,1056
2796,913,1058
2797,914,1057
2798,915,1055
2799,917,1054
2800,915,1051
2801,915,1048
2802,914,1048
2803,913,1049
2804,913,1050
2805,915,1050
2806,913,1052
2807,915,1054
2808,917,1056
2809,918,1057
2810,922,1054
2811,921,1054
2812,920,1052
2813,921,1052
2814,922,1053
2815,922,1055
2816,924,1060
2817,925,1061
2818,931,1065
2819,936,1071
2820,941,1077
2821,946,1082
2822,948,1086
2823,950,1085
2824,951,1085
2825,953,1084
2826,956,1082
2827,962,1080
2828,967,1076
2829,976,1070
2830,981,1070
2831,984,1063
2832,986,1062
2833,984,1054
2834,981,1050
2835,979,1051
2836,977,1046
2837,974,1048
2838,976,1045
2839,978,1047
2840,980,1042
2841,980,1039
2842,978,1035
2843,974,1036
2844,967,1035
2845,961,1035
2846,954,1036
2847,948,1040
2848,945,1042
2849,942,1043
2850,939,1041
2851,938,1040
2852,936,1038
2853,937,1041
2854,935,1043
2855,934,1045
2856,934,1046
2857,933,1046
2858,933,1044
2859,935,1041
2860,933,1039
2861,933,1039
2862,931,1037
2863,931,1038
2864,933,1037
2865,935,1038
2866,935,1039
2867,937,1037
2868,937,1042
2869,940,1043
2870,942,1047
2871,946,1054
2872,954,1064
2873,966,1068
2874,990,1074
2875,1020,1070
2876,1062,1056
2877,1104,1031
2878,1150,1007
2879,1188,965
2880,1228,915
2881,1264,856
2882,1295,787
2883,1321,717
2884,1336,660
2885,1339,620
2886,1327,606
2887,1304,610
2888,1269,629
2889,1219,658
2890,1156,696
2891,1089,738
2892,1035,786
2893,991,834
2894,964,875
2895,954,903
2896,950,929
2897,948,946
2898,947,962
2899,946,976
2900,939,989
2901,932,1004
2902,920,1019
2903,919,1031
2904,921,1039
2905,921,1044
2906,920,1045
2907,920,1048
2908,921,1046
2909,918,1043
2910,915,1049
2911,913,1049
2912,913,1051
2913,913,1054
2914,917,1058
2915,919,1061
2916,922,1063
2917,921,1063
2918,917,1063
2919,919,1063
2920,918,1063
2921,917,1063
2922,917,1063
2923,916,1065
2924,917,1065
2925,919,1067
2926,920,1071
2927,918,1072
2928,917,1074
2929,918,1074
2930,917,1074
2931,914,1076
2932,915,1077
2933,913,1074
2934,911,1075
2935,911,1078
2936,911,1081
2937,911,1082
2938,912,1084
2939,911,1087
2940,912,1091
2941,910,1090
2942,910,1094
2943,909,1097
2944,906,1096
2945,904,1095
2946,899,1095
2947,896,1097
2948,895,1099
2949,893,1103
2950,891,1105
2951,890,1112
2952,890,1115
2953,891,1118
2954,888,1116
2955,886,1117
2956,884,1117
2957,881,1115
2958,878,1118
2959,875,1117
2960,873,1120
2961,872,1125
2962,872,1126
2963,875,1126
2964,877,1128
2965,878,1127
2966,880,1125
2967,883,1123
2968,886,1120
2969,888,1118
2970,888,1114
2971,892,1111
2972,897,1111
2973,903,1107
2974,909,1103
2975,915,1100
2976,920,1097
2977,925,1093
2978,930,1086
2979,934,1082
2980,939,1075
2981,942,1070
2982,944,1069
2983,946,1064
2984,951,1059
2985,955,1057
2986,960,1054
2987,962,1050
2988,967,1051
2989,971,1047
2990,968,1046
2991,970,1044
2992,971,1042
2993,968,1040
2994,966,1035
2995,969,1033
2996,971,1034
2997,974,1034
2998,978,1037
2999,983,1039
3000,988,1041
3001,997,1037
3002,1004,1037
3003,1012,1038
3004,1020,1032
3005,1029,1029
3006,1039,1030
3007,1052,1025
3008,1067,1027
3009,1084,1025
3010,1105,1024
3011,1128,1024
3012,1147,1024
3013,1163,1020
3014,1165,1010
3015,1149,1001
3016,1113,987
3017,1053,972
3018,978,962
3019,898,954
3020,827,953
3021,764,952
3022,719,958
3023,689,952
3024,665,950
3025,647,946
3026,630,945
3027,614,948
3028,599,962
3029,589,982
3030,586,1009
3031,589,1042
3032,599,1070
3033,617,1101
3034,632,1128
3035,650,1151
3036,671,1173
3037,694,1191
3038,713,1202
3039,732,1216
3040,744,1222
3041,756,1226
3042,770,1229
3043,785,1227
3044,807,1212
3045,836,1184
3046,863,1142
3047,885,1089
3048,903,1035
3049,913,989
3050,919,956
3051,924,942
3052,935,937
3053,952,948
3054,974,958
3055,1006,968
3056,1041,981
3057,1066,989
3058,1083,995
3059,1089,996
3060,1088,999
3061,1084,1000
3062,1078,999
3063,1073,1001
3064,1074,1003
3065,1075,1005
3066,1076,1004
3067,1080,1004
3068,1082,1004
3069,1086,1007
3070,1089,1006
3071,1092,1008
3072,1096,1006
3073,1098,1006
3074,1101,1008
3075,1103,1004
3076,1107,1002
3077,1105,1002
3078,1108,1002
3079,1109,1001
3080,1113,1000
3081,1115,1002
3082,1123,1000
3083,1127,1000
3084,1133,1002
3085,1136,1004
3086,1140,1002
3087,1144,1001
3088,1145,1000
3089,1151,998
3090,1153,997
3091,1157,995
3092,1161,993
3093,1165,994
3094,1170,996
3095,1176,998
3096,1185,997
3097,1188,998
3098,1192,996
3099,1195,994
3100,1195,989
3101,1196,988
3102,1196,985
3103,1197,984
3104,1197,985
3105,1199,986
3106,1199,987
3107,1198,983
3108,1192,985
3109,1190,983
3110,1188,981
3111,1183,979
3112,1177,975
3113,1170,977
3114,1166,972
3115,1159,974
3116,1151,972
3117,1147,974
3118,1141,973
3119,1133,976
3120,1124,979
3121,1119,980
3122,1110,981
3123,1104,982
3124,1096,984
3125,1086,990
3126,1080,988
3127,1070,991
3128,1067,993
3129,1060,996
3130,1056,998
3131,1053,1005
3132,1049,1009
3133,1045,1013
3134,1039,1013
3135,1037,1016
3136,1036,1018
3137,1031,1017
3138,1028,1018
3139,1025,1016
3140,1022,1017
3141,1020,1021
3142,1019,1023
3143,1019,1024
3144,1016,1025
3145,1017,1023
3146,1018,1023
3147,1017,1021
3148,1017,1020
3149,1015,1018
3150,1015,1018
3151,1012,1021
3152,1013,1021
3153,1014,1021
3154,1015,1020
3155,1017,1022
3156,1017,1022
3157,1019,1023
3158,1016,1021
3159,1017,1018
3160,1015,1019
3161,1015,1020
3162,1016,1017
3163,1013,1016
3164,1015,1017
3165,1013,1019
3166,1016,1017
3167,1014,1019
3168,1017,1019
3169,1018,1019
3170,1017,1020
3171,1018,1019
3172,1017,1018
3173,1013,1017
3174,1012,1014
3175,1010,1013
3176,1009,1011
3177,1011,1012
3178,1007,1016
3179,1010,1018
3180,1012,1020
3181,1014,1018
3182,1013,1020
3183,1016,1017
3184,1012,1014
3185,1010,1015
3186,1007,1012
3187,1007,1012
3188,1009,1010
3189,1009,1011
3190,1010,1011
3191,1010,1012
3192,1012,1016
3193,1012,1014
3194,1012,1015
3195,1011,1013
3196,1008,1012
3197,1004,1009
3198,1005,1007
3199,1004,1006
3200,1003,1007
3201,1006,1010
3202,1009,1011
3203,1009,1011
3204,1010,1012
3205,1012,1010
3206,1010,1010
3207,1009,1009
3208,1008,1008
3209,1006,1007
3210,1008,1008
3211,1007,1007
3212,1008,1007
3213,1004,1006
3214,1007,1008
3215,1008,1008
3216,1010,1010
3217,1014,1009
3218,1013,1006
3219,1013,1005
3220,1011,1004
3221,1011,1002
3222,1008,1003
3223,1010,1001
3224,1008,1006
3225,1010,1004
3226,1012,1004
3227,1011,1007
3228,1012,1005
3229,1014,1006
3230,1012,1006
3231,1014,1005
3232,1013,1004
3233,1012,1001
3234,1013,999
3235,1012,1001
3236,1010,1001
3237,1013,1001
3238,1015,1002
3239,1014,1002
3240,1017,1004
3241,1019,1007
3242,1022,1006
3243,1022,1009
3244,1024,1011
3245,1025,1013
3246,1029,1016
3247,1032,1024
3248,1037,1030
3249,1042,1033
3250,1043,1033
3251,1046,1038
3252,1050,1036
3253,1053,1036
3254,1057,1030
3255,1063,1026
3256,1068,1017
3257,1074,1011
3258,1077,1005
3259,1078,1003
3260,1076,1000
3261,1072,1002
3262,1068,999
3263,1067,1001
3264,1068,1002
3265,1071,998
3266,1068,993
3267,1071,986
3268,1070,984
3269,1064,978
3270,1058,977
3271,1049,979
3272,1044,979
3273,1039,984
3274,1035,989
3275,1034,991
3276,1033,991
3277,1028,992
3278,1027,993
3279,1023,991
3280,1020,993
3281,1018,991
3282,1016,988
3283,1014,986
3284,1014,986
3285,1016,984
3286,1018,986
3287,1019,985
3288,1024,988
3289,1024,988
3290,1023,988
3291,1024,989
3292,1022,989
3293,1022,992
3294,1023,995
3295,1024,1005
3296,1036,1010
3297,1053,1019
3298,1083,1019
3299,1121,1010
3300,1163,990
3301,1207,957
3302,1246,914
3303,1282,860
3304,1318,793
3305,1352,718
3306,1381,641
3307,1399,581
3308,1405,546
3309,1398,538
3310,1376,551
3311,1341,579
3312,1290,614
3313,1226,656
3314,1162,702
3315,1109,754
3316,1069,799
3317,1041,840
3318,1029,867
3319,1024,886
3320,1024,902
3321,1021,916
3322,1018,931
3323,1013,947
3324,1005,960
3325,1000,976
3326,997,982
3327,995,991
3328,995,993
3329,993,990
3330,991,989
3331,992,990
3332,989,992
3333,992,993
3334,992,998
3335,992,1002
3336,993,1005
3337,992,1006
3338,991,1008
3339,990,1008
3340,986,1009
3341,989,1008
3342,988,1007
3343,988,1006
3344,986,1009
3345,987,1012
3346,986,1016
3347,987,1018
3348,988,1020
3349,990,1021
3350,986,1020
3351,987,1019
3352,986,1020
3353,986,1021
3354,984,1024
3355,984,1025
3356,981,1027
3357,981,1028
3358,980,1030
3359,981,1032
3360,979,1033
3361,978,1037
3362,978,1040
3363,976,1039
3364,973,1041
3365,970,1039
3366,969,1042
3367,965,1041
3368,964,1042
3369,960,1044
3370,959,1046
3371,958,1049
3372,956,1054
3373,954,1057
3374,953,1059
3375,950,1058
3376,945,1061
3377,938,1059
3378,936,1060
3379,930,1056
3380,928,1060
3381,926,1063
3382,925,1067
3383,922,1068
3384,924,1072
3385,924,1072
3386,923,1070
3387,924,1069
3388,924,1067
3389,925,1063
3390,924,1064
3391,925,1062
3392,926,1064
3393,930,1063
3394,932,1061
3395,938,1058
3396,944,1059
3397,952,1056
3398,957,1050
3399,962,1048
3400,967,1042
3401,973,1037
3402,980,1033
3403,984,1028
3404,992,1021
3405,999,1019
3406,1006,1015
3407,1011,1013
3408,1018,1008
3409,1023,1005
3410,1027,1002
3411,1027,999
3412,1033,995
3413,1037,993
3414,1037,989
3415,1037,985
3416,1037,983
3417,1039,983
3418,1041,984
3419,1040,986
3420,1045,988
3421,1047,986
3422,1047,985
3423,1049,984
3424,1048,982
3425,1047,981
3426,1044,980
3427,1043,978
3428,1045,979
3429,1047,981
3430,1049,984
3431,1049,985
3432,1049,986
3433,1052,986
3434,1053,985
3435,1053,983
3436,1050,981
3437,1049,981
3438,1048,979
3439,1050,982
3440,1048,984
3441,1047,983
3442,1047,985
3443,1052,984
3444,1052,984
3445,1051,986
3446,1052,986
3447,1052,988
3448,1053,987
3449,1051,987
3450,1052,985
3451,1051,988
3452,1055,989
3453,1057,991
3454,1062,996
3455,1066,1000
3456,1070,1008
3457,1077,1012
3458,1077,1017
3459,1080,1022
3460,1084,1022
3461,1084,1021
3462,1085,1019
3463,1088,1014
3464,1092,1014
3465,1098,1012
3466,1105,1008
3467,1113,1005
3468,1121,1001
3469,1125,994
3470,1122,989
3471,1116,982
3472,1112,980
3473,1109,977
3474,1106,978
3475,1107,977
3476,1108,974
3477,1111,974
3478,1112,971
3479,1108,968
3480,1106,964
3481,1102,962
3482,1096,958
3483,1090,960
3484,1085,963
3485,1079,964
3486,1074,970
3487,1072,970
3488,1068,974
3489,1062,972
3490,1062,972
3491,1062,972
3492,1060,975
3493,1060,974
3494,1059,972
3495,1060,970
3496,1059,969
3497,1058,970
3498,1057,968
3499,1058,968
3500,1061,967
3501,1061,967
3502,1063,966
3503,1064,966
3504,1064,968
3505,1068,968
3506,1071,974
3507,1075,981
3508,1079,988
3509,1089,996
3510,1106,1004
3511,1131,1004
3512,1168,995
3513,1208,975
3514,1248,947
3515,1285,911
3516,1318,864
3517,1346,801
3518,1377,725
3519,1404,647
3520,1420,575
3521,1430,525
3522,1428,500
3523,1416,502
3524,1396,520
3525,1361,549
3526,1314,589
3527,1255,631
3528,1196,682
3529,1146,735
3530,1105,783
3531,1077,825
3532,1061,856
3533,1054,879
3534,1051,893
3535,1049,908
3536,1050,923
3537,1047,935
3538,1045,952
3539,1043,964
3540,1043,971
3541,1043,974
3542,1039,977
3543,1041,979
3544,1041,979
3545,1040,979
3546,1039,983
3547,1035,985
3548,1034,985
3549,1036,986
3550,1036,989
3551,1034,993
3552,1038,994
3553,1039,996
3554,1039,999
3555,1039,1000
3556,1038,1000
3557,1035,999
3558,1035,999
3559,1034,1000
3560,1034,1000
3561,1034,1003
3562,1032,1005
3563,1036,1010
3564,1038,1014
3565,1037,1015
3566,1038,1016
3567,1035,1018
3568,1034,1017
3569,1031,1017
3570,1029,1017
3571,1028,1017
3572,1025,1020
3573,1027,1024
3574,1027,1028
3575,1027,1034
3576,1026,1034
3577,1027,1037
3578,1024,1037
3579,1023,1037
3580,1021,1040
3581,1017,1037
3582,1013,1042
3583,1010,1043
3584,1006,1046
3585,1005,1051
3586,1004,1053
3587,1004,1057
3588,1004,1059
3589,1004,1059
3590,1002,1063
3591,1001,1062
3592,996,1064
3593,994,1065
3594,992,1066
3595,990,1066
3596,990,1067
3597,992,1068
3598,993,1069
3599,996,1072
3600,1001,1072
3601,1005,1073
3602,1004,1069
3603,1009,1070
3604,1011,1065
3605,1014,1057
3606,1017,1055
3607,1022,1049
3608,1027,1044
3609,1034,1042
3610,1039,1037
3611,1044,1031
3612,1050,1029
3613,1057,1024
3614,1062,1019
3615,1066,1009
3616,1067,1003
3617,1069,997
3618,1070,991
3619,1072,990
3620,1077,987
3621,1079,987
3622,1082,986
3623,1081,985
3624,1083,982
3625,1085,979
3626,1086,976
3627,1088,974
3628,1086,974
3629,1085,970
3630,1082,972
3631,1079,971
3632,1081,973
3633,1081,971
3634,1083,970
3635,1085,971
3636,1086,972
3637,1088,970
3638,1088,971
3639,1087,970
3640,1087,971
3641,1087,971
3642,1085,967
3643,1083,970
3644,1082,966
3645,1082,968
3646,1084,969
3647,1083,971
3648,1085,972
3649,1088,973
3650,1088,972
3651,1087,974
3652,1086,970
3653,1085,967
3654,1083,966
3655,1082,967
3656,1083,967
3657,1083,967
3658,1084,968
3659,1086,970
3660,1089,973
3661,1090,974
3662,1090,972
3663,1093,974
3664,1097,972
3665,1099,974
3666,1100,979
3667,1102,985
3668,1106,993
3669,1111,999
3670,1113,1003
3671,1118,1005
3672,1121,1006
3673,1126,1005
3674,1133,1003
3675,1139,1000
3676,1144,991
3677,1152,986
3678,1154,979
3679,1152,972
3680,1151,970
3681,1148,965
3682,1145,963
3683,1142,966
3684,1144,964
3685,1146,965
3686,1147,962
3687,1148,958
3688,1145,949
3689,1139,944
3690,1131,939
3691,1121,936
3692,1115,940
3693,1111,948
3694,1106,952
3695,1105,958
3696,1101,963
3697,1101,960
3698,1098,962
3699,1094,960
3700,1089,958
3701,1089,954
3702,1083,952
3703,1082,952
3704,1082,952
3705,1084,956
3706,1089,954
3707,1089,955
3708,1089,956
3709,1092,954
3710,1094,954
3711,1094,954
3712,1095,956
3713,1092,955
3714,1090,958
3715,1088,963
3716,1091,970
3717,1102,980
3718,1120,991
3719,1143,992
3720,1176,986
3721,1215,970
3722,1255,940
3723,1291,900
3724,1326,850
3725,1356,788
3726,1387,714
3727,1411,637
3728,1430,565
3729,1437,518
3730,1439,494
3731,1428,500
3732,1407,522
3733,1374,553
3734,1324,591
3735,1268,634
3736,1211,684
3737,1166,735
3738,1131,779
3739,1108,817
3740,1094,845
3741,1090,865
3742,1091,881
3743,1090,895
3744,1088,911
3745,1083,922
3746,1076,933
3747,1069,946
3748,1065,954
3749,1061,958
3750,1061,960
3751,1059,962
3752,1059,964
3753,1060,967
3754,1059,972
3755,1061,972
3756,1062,975
3757,1063,975
3758,1062,979
3759,1062,977
3760,1059,979
3761,1059,979
3762,1055,980
3763,1056,981
3764,1057,981
3765,1057,983
3766,1059,987
3767,1059,989
3768,1060,993
3769,1060,994
3770,1060,995
3771,1059,997
3772,1057,999
3773,1057,997
3774,1056,997
3775,1054,997
3776,1055,999
3777,1053,1001
3778,1051,1003
3779,1051,1008
3780,1055,1011
3781,1056,1013
3782,1053,1014
3783,1052,1016
3784,1051,1016
3785,1047,1016
3786,1044,1019
3787,1044,1017
3788,1041,1020
3789,1038,1023
3790,1036,1028
3791,1033,1035
3792,1033,1038
3793,1030,1041
3794,1029,1041
3795,1026,1043
3796,1023,1044
3797,1020,1044
3798,1016,1045
3799,1014,1046
3800,1010,1051
3801,1008,1054
3802,1006,1055
3803,1006,1058
3804,1008,1059
3805,1010,1060
3806,1008,1059
3807,1008,1060
3808,1006,1060
3809,1004,1063
3810,1007,1060
3811,1008,1058
3812,1010,1054
3813,1014,1054
3814,1019,1052
3815,1025,1049
3816,1030,1046
3817,1035,1043
3818,1040,1039
3819,1043,1035
3820,1048,1031
3821,1051,1021
3822,1055,1016
3823,1060,1010
3824,1063,1004
3825,1069,1001
3826,1075,998
3827,1079,994
3828,1082,990
3829,1087,988
3830,1089,985
3831,1089,979
3832,1086,976
3833,1091,972
3834,1090,969
3835,1088,968
3836,1089,967
3837,1090,969
3838,1093,968
3839,1096,970
3840,1098,971
3841,1099,971
3842,1099,968
3843,1098,968
3844,1096,963
3845,1096,963
3846,1095,962
3847,1094,961
3848,1096,962
3849,1094,965
3850,1096,965
3851,1093,965
3852,1097,968
3853,1097,965
3854,1095,963
3855,1096,965
3856,1098,965
3857,1097,962
3858,1095,964
3859,1093,961
3860,1090,961
3861,1091,961
3862,1093,962
3863,1094,963
3864,1097,965
3865,1098,964
3866,1098,966
3867,1100,966
3868,1097,964
3869,1096,963
3870,1094,962
3871,1094,962
3872,1096,961
3873,1095,965
3874,1098,963
3875,1097,969
3876,1101,971
3877,1107,978
3878,1113,983
3879,1114,987
3880,1116,991
3881,1119,995
3882,1121,993
3883,1122,996
3884,1124,998
3885,1127,998
3886,1133,997
3887,1142,998
3888,1149,992
3889,1158,986
3890,1162,979
3891,1163,973
3892,1160,966
3893,1156,964
3894,1147,962
3895,1144,962
3896,1142,961
3897,1143,963
3898,1145,961
3899,1145,957
3900,1146,953
3901,1144,947
3902,1140,944
3903,1134,938
3904,1129,941
3905,1120,940
3906,1113,944
3907,1105,950
3908,1101,951
3909,1097,952
3910,1099,955
3911,1097,954
3912,1094,955
3913,1093,959
3914,1090,959
3915,1090,958
3916,1087,954
3917,1087,951
3918,1084,950
3919,1083,948
3920,1085,946
3921,1086,947
3922,1087,947
3923,1089,950
3924,1089,953
3925,1089,952
3926,1092,953
3927,1093,953
3928,1091,954
3929,1092,959
3930,1093,965
3931,1101,974
3932,1115,986
3933,1137,989
3934,1170,985
3935,1203,968
3936,1242,940
3937,1279,903
3938,1312,856
3939,1343,800
3940,1371,732
3941,1396,661
3942,1414,591
3943,1423,538
3944,1426,507
3945,1420,500
3946,1410,507
3947,1391,529
3948,1357,557
3949,1314,590
3950,1260,627
3951,1210,669
3952,1166,716
3953,1133,762
3954,1108,801
3955,1097,830
3956,1091,853
3957,1088,867
3958,1089,883
3959,1086,895
3960,1079,909
3961,1075,924
3962,1066,939
3963,1061,946
3964,1059,955
3965,1057,959
3966,1056,958
3967,1054,961
3968,1053,960
3969,1056,963
3970,1055,965
3971,1057,968
3972,1056,974
3973,1054,976
3974,1055,979
3975,1053,979
3976,1051,979
3977,1049,981
3978,1045,978
3979,1048,978
3980,1046,981
3981,1047,984
3982,1049,985
3983,1050,990
3984,1051,992
3985,1052,992
3986,1052,992
3987,1050,994
3988,1049,993
3989,1044,994
3990,1045,996
3991,1043,998
3992,1043,1000
3993,1041,1006
3994,1042,1006
3995,1042,1011
3996,1042,1011
3997,1044,1014
3998,1041,1015
3999,1040,1016
4000,1037,1020
4001,1033,1019
4002,1028,1022
4003,1028,1023
4004,1027,1025
4005,1024,1028
4006,1024,1030
4007,1021,1033
4008,1021,1039
4009,1020,1040
4010,1018,1044
4011,1015,1048
4012,1009,1048
4013,1009,1047
4014,1003,1049
4015,1000,1049
4016,1001,1050
4017,999,1056
4018,999,1055
4019,999,1058
4020,1001,1062
4021,1004,1061
4022,1004,1063
4023,1003,1065
4024,1006,1059
4025,1007,1058
4026,1008,1053
4027,1007,1050
4028,1011,1050
4029,1015,1048
4030,1022,1048
4031,1027,1047
4032,1032,1044
4033,1038,1038
4034,1041,1030
4035,1047,1025
4036,1048,1019
4037,1052,1012
4038,1055,1007
4039,1055,1004
4040,1060,996
4041,1063,994
4042,1067,994
4043,1072,990
4044,1076,989
4045,1079,984
4046,1080,983
4047,1081,976
4048,1081,974
4049,1080,971
4050,1080,970
4051,1080,969
4052,1080,967
4053,1081,967
4054,1082,968
4055,1083,966
4056,1084,967
4057,1086,966
4058,1084,967
4059,1084,967
4060,1086,966
4061,1082,965
4062,1081,963
4063,1080,965
4064,1078,962
4065,1080,963
4066,1082,962
4067,1084,961
4068,1084,961
4069,1087,965
4070,1086,965
4071,1086,967
4072,1086,965
4073,1082,963
4074,1083,963
4075,1080,962
4076,1081,961
4077,1079,963
4078,1081,964
4079,1081,967
4080,1082,968
4081,1082,969
4082,1082,967
4083,1081,969
4084,1082,965
4085,1080,962
4086,1079,961
4087,1077,962
4088,1078,963
4089,1078,964
4090,1079,968
4091,1081,974
4092,1088,975
4093,1091,977
4094,1096,984
4095,1099,986
4096,1102,993
4097,1105,996
4098,1105,999
4099,1108,1000
4100,1107,998
4101,1110,1001
4102,1116,1002
4103,1123,1000
4104,1128,999
4105,1139,995
4106,1144,988
4107,1148,981
4108,1147,975
4109,1144,969
4110,1134,967
4111,1133,963
4112,1128,962
4113,1128,962
4114,1131,962
4115,1133,963
4116,1132,961
4117,1134,954
4118,1128,950
4119,1123,947
4120,1116,943
4121,1107,943
4122,1103,943
4123,1094,947
4124,1091,950
4125,1088,954
4126,1087,957
4127,1085,957
4128,1083,957
4129,1081,960
4130,1077,959
4131,1075,960
4132,1071,957
4133,1069,954
4134,1066,954
4135,1069,949
4136,1068,952
4137,1071,953
4138,1073,955
4139,1073,956
4140,1075,955
4141,1074,956
4142,1073,957
4143,1071,956
4144,1070,960
4145,1072,965
4146,1072,972
4147,1079,982
4148,1092,991
4149,1113,998
4150,1145,992
4151,1181,977
4152,1217,951
4153,1255,919
4154,1286,875
4155,1316,820
4156,1346,756
4157,1372,685
4158,1394,613
4159,1409,553
4160,1416,515
4161,1412,499
4162,1399,505
4163,1384,524
4164,1353,550
4165,1313,580
4166,1260,614
4167,1208,655
4168,1159,705
4169,1124,755
4170,1095,798
4171,1078,829
4172,1069,854
4173,1068,872
4174,1067,885
4175,1063,902
4176,1060,915
4177,1054,930
4178,1045,944
4179,1037,957
4180,1034,961
4181,1033,965
4182,1032,962
4183,1032,963
4184,1032,966
4185,1030,968
4186,1030,972
4187,1032,976
4188,1030,981
4189,1031,982
4190,1028,984
4191,1029,983
4192,1027,985
4193,1027,984
4194,1026,983
4195,1024,984
4196,1024,989
4197,1023,988
4198,1024,993
4199,1023,996
4200,1023,1000
4201,1024,999
4202,1025,1000
4203,1023,1001
4204,1022,1001
4205,1022,1001
4206,1021,1003
4207,1019,1005
4208,1017,1005
4209,1016,1011
4210,1015,1012
4211,1016,1015
4212,1016,1017
4213,1016,1019
4214,1014,1022
4215,1013,1022
4216,1012,1023
4217,1009,1022
4218,1007,1024
4219,1003,1026
4220,1000,1029
4221,1000,1034
4222,998,1037
4223,994,1038
4224,995,1043
4225,992,1047
4226,991,1049
4227,988,1054
4228,987,1052
4229,983,1054
4230,981,1054
4231,978,1053
4232,975,1058
4233,974,1056
4234,974,1062
4235,972,1063
4236,970,1069
4237,973,1073
4238,972,1069
4239,970,1070
4240,971,1067
4241,971,1066
4242,971,1063
4243,971,1062
4244,972,1062
4245,977,1063
4246,982,1060
4247,986,1059
4248,991,1057
4249,997,1056
4250,998,1045
4251,1005,1043
4252,1006,1036
4253,1011,1030
4254,1014,1023
4255,1018,1021
4256,1021,1017
4257,1025,1012
4258,1030,1007
4259,1034,1003
4260,1036,999
4261,1043,996
4262,1044,992
4263,1046,987
4264,1046,986
4265,1046,983
4266,1044,979
4267,1042,978
4268,1044,979
4269,1041,976
4270,1043,976
4271,1046,976
4272,1045,977
4273,1048,977
4274,1045,976
4275,1042,975
4276,1044,974
4277,1042,971
4278,1043,970
4279,1042,970
4280,1042,971
4281,1042,972
4282,1042,973
4283,1044,973
4284,1044,978
4285,1044,977
4286,1044,975
4287,1044,976
4288,1043,973
4289,1039,972
4290,1039,970
4291,1038,971
4292,1036,972
4293,1039,973
4294,1038,976
4295,1040,976
4296,1040,980
4297,1040,978
4298,1039,977
4299,1039,977
4300,1037,975
4301,1036,973
4302,1034,972
4303,1033,975
4304,1036,978
4305,1036,977
4306,1040,980
4307,1040,981
4308,1045,986
4309,1047,988
4310,1050,995
4311,1055,1001
4312,1055,1005
4313,1056,1008
4314,1060,1012
4315,1060,1009
4316,1060,1010
4317,1065,1009
4318,1069,1011
4319,1076,1008
4320,1084,1007
4321,1090,1003
4322,1096,998
4323,1099,991
4324,1095,983
4325,1090,980
4326,1082,974
4327,1077,972
4328,1077,970
4329,1076,973
4330,1078,974
4331,1079,969
4332,1080,969
4333,1080,966
4334,1074,958
4335,1069,955
4336,1060,950
4337,1050,953
4338,1044,955
4339,1038,960
4340,1033,966
4341,1030,971
4342,1027,973
4343,1028,972
4344,1025,970
4345,1024,970
4346,1021,970
4347,1020,968
4348,1018,965
4349,1015,965
4350,1013,964
4351,1013,964
4352,1013,966
4353,1008,964
4354,1012,965
4355,1013,967
4356,1014,967
4357,1017,968
4358,1017,968
4359,1017,972
4360,1014,972
4361,1015,979
4362,1018,987
4363,1028,996
4364,1043,1002
4365,1068,1003
4366,1103,992
4367,1141,970
4368,1183,939
4369,1221,897
4370,1255,841
4371,1288,772
4372,1317,696
4373,1338,619
4374,1355,552
4375,1357,514
4376,1348,502
4377,1331,512
4378,1303,538
4379,1262,576
4380,1208,619
4381,1151,667
4382,1099,719
4383,1058,769
4384,1029,812
4385,1011,841
4386,1002,863
4387,1001,881
4388,1001,892
4389,999,908
4390,992,924
4391,988,938
4392,982,952
4393,978,963
4394,974,968
4395,974,974
4396,974,976
4397,973,975
4398,970,977
4399,969,980
4400,967,983
4401,965,984
4402,964,986
4403,964,988
4404,965,989
4405,966,994
4406,964,992
4407,963,995
4408,963,998
4409,959,999
4410,959,998
4411,960,998
4412,958,1001
4413,957,1002
4414,956,1005
4415,960,1008
4416,959,1011
4417,958,1013
4418,958,1017
4419,957,1016
4420,956,1015
4421,955,1017
4422,951,1017
4423,949,1019
4424,946,1019
4425,949,1026
4426,946,1028
4427,948,1031
4428,946,1036
4429,945,1035
4430,942,1040
4431,940,1040
4432,939,1037
4433,937,1040
4434,932,1042
4435,929,1041
4436,928,1043
4437,926,1052
4438,924,1055
4439,922,1057
4440,921,1060
4441,923,1063
4442,920,1062
4443,918,1063
4444,916,1064
4445,912,1067
4446,909,1069
4447,907,1069
4448,906,1070
4449,904,1072
4450,905,1076
4451,905,1076
4452,905,1081
4453,907,1077
4454,908,1079
4455,909,1078
4456,910,1075
4457,910,1075
4458,911,1072
4459,914,1067
4460,916,1065
4461,922,1060
4462,927,1058
4463,932,1057
4464,935,1052
4465,940,1047
4466,944,1043
4467,948,1038
4468,951,1033
4469,955,1027
4470,959,1024
4471,961,1015
4472,961,1008
4473,965,1007
4474,969,1005
4475,972,1002
4476,973,1002
4477,978,998
4478,977,996
4479,980,992
4480,979,987
4481,977,986
4482,978,984
4483,977,983
4484,978,984
4485,979,986
4486,980,986
4487,982,987
4488,984,987
4489,984,985
4490,986,984
4491,989,984
4492,990,981
4493,994,983
4494,999,982
4495,1003,980
4496,1009,981
4497,1018,980
4498,1028,981
4499,1040,982
4500,1054,981
4501,1068,980
4502,1081,979
4503,1097,978
4504,1115,973
4505,1134,972
4506,1152,964
4507,1164,958
4508,1161,947
4509,1137,934
4510,1089,922
4511,1013,909
4512,922,902
4513,831,900
4514,748,899
4515,688,900
4516,642,901
4517,614,898
4518,588,891
4519,569,888
4520,552,892
4521,543,908
4522,540,935
4523,544,961
4524,550,1000
4525,560,1042
4526,573,1077
4527,592,1113
4528,610,1143
4529,631,1164
4530,654,1179
4531,674,1192
4532,690,1208
4533,706,1218
4534,723,1228
4535,735,1235
4536,754,1235
4537,774,1223
4538,790,1204
4539,810,1175
4540,828,1127
4541,843,1079
4542,855,1021
4543,863,967
4544,873,923
4545,881,891
4546,893,880
4547,909,880
4548,934,887
4549,960,902
4550,990,913
4551,1016,921
4552,1037,933
4553,1052,940
4554,1058,948
4555,1057,952
4556,1054,956
4557,1052,959
4558,1052,960
4559,1052,959
4560,1056,960
4561,1058,962
4562,1063,961
4563,1066,962
4564,1069,959
4565,1071,960
4566,1071,957
4567,1074,955
4568,1074,957
4569,1080,955
4570,1084,958
4571,1088,958
4572,1092,958
4573,1098,959
4574,1100,959
4575,1104,957
4576,1106,956
4577,1109,953
4578,1108,954
4579,1112,954
4580,1115,954
4581,1120,952
4582,1124,953
4583,1130,955
4584,1133,954
4585,1139,953
4586,1145,951
4587,1150,951
4588,1153,949
4589,1155,946
4590,1157,943
4591,1161,944
4592,1160,942
4593,1162,942
4594,1164,941
4595,1169,939
4596,1169,940
4597,1174,940
4598,1171,939
4599,1171,938
4600,1165,934
4601,1162,931
4602,1158,929
4603,1150,926
4604,1146,922
4605,1140,924
4606,1133,926
4607,1129,925
4608,1124,931
4609,1118,932
4610,1112,932
4611,1101,932
4612,1092,932
4613,1083,931
4614,1077,932
4615,1069,933
4616,1061,939
4617,1053,946
4618,1046,950
4619,1041,955
4620,1035,960
4621,1031,962
4622,1029,965
4623,1022,972
4624,1016,974
4625,1011,977
4626,1004,979
4627,1001,981
4628,996,983
4629,992,986
4630,990,991
4631,987,992
4632,984,993
4633,983,994
4634,984,996
4635,981,995
4636,978,995
4637,976,995
4638,974,994
4639,971,993
4640,971,994
4641,971,993
4642,971,994
4643,973,995
4644,969,998
4645,971,998
4646,973,997
4647,972,997
4648,973,995
4649,970,994
4650,968,993
4651,969,993
4652,967,991
4653,968,994
4654,968,995
4655,969,999
4656,970,999
4657,972,998
4658,970,996
4659,973,995
4660,972,993
4661,970,992
4662,964,993
4663,967,993
4664,966,993
4665,965,995
4666,964,995
4667,965,996
4668,967,999
4669,964,998
4670,963,997
4671,962,996
4672,960,994
4673,959,995
4674,960,992
4675,958,993
4676,958,993
4677,955,996
4678,955,994
4679,954,995
4680,955,996
4681,959,999
4682,956,996
4683,959,997
4684,957,994
4685,958,994
4686,957,992
4687,955,991
4688,955,991
4689,956,990
4690,956,992
4691,955,993
4692,956,995
4693,958,994
4694,958,994
4695,954,994
4696,952,990
4697,953,991
4698,955,984
4699,953,988
4700,952,985
4701,952,986
4702,952,988
4703,955,990
4704,953,990
4705,956,991
4706,953,991
4707,954,990
4708,953,989
4709,952,989
4710,949,988
4711,950,985
4712,949,987
4713,948,988
4714,950,990
4715,948,991
4716,951,991
4717,952,994
4718,952,994
4719,951,994
4720,951,992
4721,948,990
4722,947,986
4723,948,987
4724,947,987
4725,949,984
4726,948,991
4727,953,992
4728,955,998
4729,960,1001
4730,961,1005
4731,966,1007
4732,969,1010
4733,971,1014
4734,975,1019
4735,976,1023
4736,979,1024
4737,979,1025
4738,982,1026
4739,987,1026
4740,991,1027
4741,998,1023
4742,1004,1018
4743,1008,1011
4744,1011,1006
4745,1012,1000
4746,1009,995
4747,1005,993
4748,1000,990
4749,996,988
4750,997,991
4751,999,992
4752,1004,989
4753,1006,984
4754,1004,979
4755,998,974
4756,992,968
4757,985,966
4758,977,965
4759,970,968
4760,966,973
4761,960,979
4762,958,982
4763,951,983
4764,953,986
4765,949,985
4766,948,987
4767,946,987
4768,942,986
4769,940,984
4770,937,983
4771,936,980
4772,937,980
4773,937,980
4774,938,979
4775,939,979
4776,942,982
4777,940,982
4778,941,980
4779,942,983
4780,942,982
4781,943,986
4782,945,992
4783,947,1002
4784,957,1012
4785,974,1017
4786,1001,1017
4787,1036,1009
4788,1076,989
4789,1118,959
4790,1157,917
4791,1192,869
4792,1225,811
4793,1253,738
4794,1280,665
4795,1297,600
4796,1302,552
4797,1297,528
4798,1281,529
4799,1254,546
4800,1213,574
4801,1161,608
4802,1104,652
4803,1048,703
4804,1006,755
4805,979,804
4806,959,839
4807,945,867
4808,940,888
4809,939,905
4810,935,917
4811,928,932
4812,921,947
4813,918,962
4814,913,972
4815,910,980
4816,908,986
4817,905,986
4818,904,987
4819,903,990
4820,901,988
4821,898,993
4822,898,995
4823,899,1000
4824,900,1005
4825,901,1008
4826,901,1010
4827,897,1013
4828,896,1010
4829,895,1009
4830,892,1008
4831,891,1011
4832,894,1013
4833,892,1015
4834,893,1017
4835,895,1021
4836,894,1023
4837,894,1025
4838,890,1026
4839,892,1026
4840,895,1024
4841,892,1025
4842,891,1027
4843,889,1027
4844,888,1028
4845,884,1033
4846,885,1035
4847,886,1037
4848,884,1038
4849,888,1041
4850,884,1041
4851,882,1044
4852,879,1041
4853,874,1045
4854,871,1044
4855,869,1046
4856,864,1047
4857,860,1049
4858,859,1051
4859,855,1054
4860,852,1057
4861,852,1061
4862,847,1063
4863,844,1063
4864,840,1064
4865,837,1063
4866,832,1061
4867,829,1066
4868,828,1065
4869,824,1066
4870,822,1068
4871,824,1072
4872,823,1074
4873,824,1073
4874,823,1074
4875,824,1072
4876,821,1071
4877,821,1069
4878,820,1067
4879,821,1068
4880,825,1068
4881,829,1067
4882,834,1067
4883,842,1064
4884,845,1063
4885,852,1061
4886,859,1056
4887,865,1053
4888,871,1050
4889,875,1046
4890,879,1041
4891,883,1037
4892,890,1033
4893,896,1028
4894,898,1025
4895,909,1023
4896,916,1020
4897,923,1016
4898,927,1013
4899,929,1011
4900,930,1010
4901,930,1003
4902,930,1000
4903,933,999
4904,932,997
4905,933,995
4906,937,995
4907,938,996
4908,937,998
4909,941,998
4910,941,996
4911,943,997
4912,943,995
4913,940,993
4914,938,991
4915,938,992
4916,937,990
4917,938,994
4918,940,994
4919,944,998
4920,945,999
4921,945,998
4922,947,997
4923,946,997
4924,948,997
4925,946,994
4926,948,994
4927,952,995
4928,954,996
4929,956,995
4930,959,997
4931,964,997
4932,964,1000
4933,970,1004
4934,967,1006
4935,975,1009
4936,979,1012
4937,982,1015
4938,990,1013
4939,1002,1019
4940,1014,1023
4941,1029,1023
4942,1056,1023
4943,1083,1022
4944,1108,1021
4945,1132,1018
4946,1153,1013
4947,1176,1011
4948,1198,1004
4949,1218,996
4950,1237,985
4951,1253,972
4952,1272,957
4953,1289,940
4954,1306,919
4955,1314,889
4956,1307,857
4957,1285,827
4958,1237,797
4959,1162,779
4960,1060,753
4961,954,733
4962,857,712
4963,779,692
4964,723,678
4965,698,673
4966,696,676
4967,707,683
4968,728,695
4969,751,716
4970,771,736
4971,787,757
4972,802,785
4973,817,815
4974,832,848
4975,849,881
4976,868,912
4977,887,936
4978,905,957
4979,915,972
4980,918,982
4981,918,989
4982,916,992
4983,914,995
4984,915,998
4985,916,1000
4986,916,999
4987,919,1000
4988,919,1005
4989,921,1003
4990,920,1009
4991,920,1008
4992,921,1011
4993,922,1014
4994,923,1016
4995,925,1017
4996,922,1014
4997,921,1014
4998,921,1012
4999,921,1013
5000,922,1014
5001,922,1020
5002,923,1022
5003,923,1024
5004,921,1025
5005,923,1028
5006,922,1027
5007,923,1026
5008,923,1026
5009,922,1024
5010,920,1028
5011,921,1027
5012,922,1030
5013,923,1033
5014,924,1034
5015,925,1037
5016,927,1040
5017,927,1039
5018,926,1040
5019,926,1041
5020,926,1044
5021,924,1043
5022,924,1043
5023,924,1048
5024,925,1051
5025,928,1052
5026,931,1054
5027,934,1055
5028,938,1058
5029,942,1060
5030,945,1063
5031,947,1066
5032,947,1067
5033,950,1070
5034,951,1069
5035,954,1073
5036,957,1071
5037,959,1074
5038,967,1072
5039,971,1077
5040,978,1076
5041,980,1082
5042,984,1080
5043,986,1081
5044,985,1075
5045,986,1074
5046,985,1070
5047,984,1070
5048,983,1066
5049,982,1065
5050,981,1065
5051,982,1066
5052,984,1063
5053,982,1062
5054,983,1060
5055,980,1055
5056,977,1052
5057,976,1045
5058,971,1040
5059,967,1036
5060,962,1035
5061,961,1034
5062,959,1033
5063,958,1030
5064,957,1029
5065,957,1026
5066,957,1021
5067,955,1020
5068,955,1018
5069,953,1014
5070,952,1013
5071,950,1011
5072,951,1012
5073,952,1012
5074,954,1013
5075,953,1011
5076,955,1010
5077,955,1011
5078,954,1011
5079,955,1012
5080,953,1011
5081,952,1012
5082,951,1009
5083,952,1008
5084,948,1011
5085,950,1008
5086,949,1010
5087,950,1011
5088,951,1011
5089,953,1015
5090,953,1014
5091,956,1014
5092,959,1013
5093,957,1012
5094,960,1010
5095,959,1008
5096,957,1006
5097,957,1007
5098,958,1008
5099,959,1011
5100,958,1014
5101,961,1013
5102,959,1014
5103,961,1012
5104,962,1011
5105,962,1008
5106,961,1006
5107,959,1005
5108,957,1006
5109,955,1007
5110,956,1009
5111,957,1008
5112,955,1011
5113,958,1009
5114,962,1008
5115,959,1006
5116,962,1003
5117,961,1005
5118,958,1004
5119,956,1006
5120,954,1005
5121,955,1006
5122,956,1005
5123,959,1007
5124,960,1008
5125,963,1006
5126,963,1004
5127,962,1003
5128,961,1002
5129,960,1001
5130,958,1001
5131,958,1000
5132,958,999
5133,958,1000
5134,960,998
5135,961,1000
5136,961,1001
5137,962,1003
5138,964,1005
5139,964,1002
5140,963,1000
5141,960,999
5142,959,998
5143,957,998
5144,957,999
5145,959,998
5146,959,1000
5147,962,1002
5148,966,1007
5149,968,1006
5150,967,1005
5151,969,1003
5152,971,1004
5153,972,1002
5154,973,1003
5155,975,1008
5156,979,1014
5157,982,1023
5158,984,1031
5159,987,1033
5160,989,1035
5161,994,1037
5162,994,1034
5163,998,1032
5164,1005,1030
5165,1011,1024
5166,1015,1020
5167,1023,1016
5168,1028,1011
5169,1029,1006
5170,1024,1003
5171,1021,1001
5172,1020,1002
5173,1022,1002
5174,1024,1004
5175,1023,1003
5176,1025,996
5177,1023,993
5178,1019,983
5179,1012,980
5180,1004,977
5181,995,980
5182,987,986
5183,981,994
5184,977,995
5185,979,997
5186,974,995
5187,972,995
5188,968,991
5189,964,989
5190,960,988
5191,958,990
5192,956,987
5193,958,990
5194,960,990
5195,962,991
5196,963,993
5197,967,994
5198,966,994
5199,967,994
5200,966,990
5201,965,993
5202,964,993
5203,963,996
5204,961,1003
5205,967,1011
5206,973,1022
5207,990,1026
5208,1013,1030
5209,1049,1024
5210,1089,1007
5211,1130,982
5212,1172,949
5213,1209,908
5214,1242,859
5215,1272,800
5216,1301,736
5217,1323,671
5218,1336,617
5219,1338,583
5220,1328,574
5221,1307,581
5222,1267,603
5223,1212,636
5224,1146,675
5225,1081,726
5226,1028,775
5227,994,820
5228,977,858
5229,966,889
5230,966,910
5231,966,926
5232,964,942
5233,960,956
5234,950,967
5235,944,977
5236,936,990
5237,929,993
5238,926,995
5239,925,997
5240,928,997
5241,928,1002
5242,927,1007
5243,926,1010
5244,923,1011
5245,923,1016
5246,924,1014
5247,923,1016
5248,923,1017
5249,921,1016
5250,919,1019
5251,921,1019
5252,923,1020
5253,924,1022
5254,925,1025
5255,927,1026
5256,925,1023
5257,925,1025
5258,923,1026
5259,919,1028
5260,918,1028
5261,916,1028
5262,914,1029
5263,914,1031
5264,913,1032
5265,913,1033
5266,915,1035
5267,916,1038
5268,915,1039
5269,915,1041
5270,918,1043
5271,917,1042
5272,914,1039
5273,910,1041
5274,907,1042
5275,899,1043
5276,896,1044
5277,892,1047
5278,893,1051
5279,891,1053
5280,892,1057
5281,894,1059
5282,893,1058
5283,886,1056
5284,885,1057
5285,880,1058
5286,874,1058
5287,871,1060
5288,867,1062
5289,864,1065
5290,864,1068
5291,861,1067
5292,859,1069
5293,861,1070
5294,860,1070
5295,860,1071
5296,856,1073
5297,853,1069
5298,853,1068
5299,852,1070
5300,851,1068
5301,851,1069
5302,857,1069
5303,858,1068
5304,860,1072
5305,864,1071
5306,866,1067
5307,870,1068
5308,875,1065
5309,877,1064
5310,882,1058
5311,888,1055
5312,889,1053
5313,897,1049
5314,903,1048
5315,910,1046
5316,918,1044
5317,925,1042
5318,929,1040
5319,932,1036
5320,938,1032
5321,939,1028
5322,943,1025
5323,946,1019
5324,950,1014
5325,953,1013
5326,956,1014
5327,959,1015
5328,960,1015
5329,964,1015
5330,962,1012
5331,961,1013
5332,962,1010
5333,961,1007
5334,960,1005
5335,960,1005
5336,959,1008
5337,958,1008
5338,958,1008
5339,960,1010
5340,956,1010
5341,958,1011
5342,959,1008
5343,959,1009
5344,959,1006
5345,958,1008
5346,961,1009
5347,959,1007
5348,963,1010
5349,963,1009
5350,962,1010
5351,964,1011
5352,964,1010
5353,967,1013
5354,966,1012
5355,962,1012
5356,964,1012
5357,960,1010
5358,961,1009
5359,958,1008
5360,959,1007
5361,960,1009
5362,958,1007
5363,959,1010
5364,961,1012
5365,961,1013
5366,964,1015
5367,966,1017
5368,966,1016
5369,963,1013
5370,964,1016
5371,964,1015
5372,966,1018
5373,969,1020
5374,972,1027
5375,977,1032
5376,980,1037
5377,985,1042
5378,987,1044
5379,987,1045
5380,988,1044
5381,991,1042
5382,989,1040
5383,997,1041
5384,1000,1040
5385,1009,1039
5386,1017,1037
5387,1023,1035
5388,1027,1026
5389,1029,1023
5390,1024,1017
5391,1019,1015
5392,1017,1011
5393,1013,1012
5394,1012,1010
5395,1013,1010
5396,1013,1008
5397,1013,1007
5398,1011,1002
5399,1008,999
5400,1005,996
5401,1000,997
5402,994,994
5403,988,997
5404,984,1002
5405,977,1001
5406,971,1004
5407,967,1006
5408,965,1007
5409,963,1006
5410,960,1006
5411,960,1009
5412,955,1007
5413,956,1007
5414,957,1003
5415,958,1004
5416,957,1002
5417,955,1003
5418,954,1002
5419,954,1002
5420,953,999
5421,955,999
5422,957,1001
5423,959,1001
5424,961,1004
5425,966,1008
5426,966,1020
5427,971,1025
5428,982,1034
5429,999,1037
5430,1029,1034
5431,1070,1020
5432,1111,999
5433,1157,969
5434,1199,931
5435,1233,882
5436,1269,826
5437,1296,759
5438,1318,695
5439,1328,640
5440,1327,604
5441,1313,593
5442,1282,602
5443,1232,627
5444,1167,668
5445,1099,714
5446,1033,766
5447,993,815
5448,965,860
5449,956,890
5450,955,911
5451,958,927
5452,958,942
5453,955,952
5454,947,964
5455,937,978
5456,930,988
5457,926,1000
5458,925,1004
5459,926,1009
5460,928,1009
5461,927,1011
5462,927,1013
5463,926,1015
5464,925,1015
5465,924,1018
5466,925,1017
5467,924,1016
5468,923,1019
5469,925,1017
5470,924,1023
5471,925,1029
5472,925,1032
5473,925,1033
5474,924,1035
5475,923,1034
5476,922,1032
5477,919,1032
5478,917,1030
5479,916,1031
5480,916,1031
5481,916,1034
5482,916,1037
5483,917,1042
5484,919,1042
5485,920,1044
5486,921,1044
5487,918,1044
5488,918,1045
5489,914,1045
5490,913,1043
5491,911,1047
5492,910,1051
5493,910,1053
5494,908,1056
5495,907,1059
5496,907,1060
5497,905,1065
5498,904,1064
5499,899,1066
5500,897,1066
5501,892,1066
5502,888,1068
5503,884,1070
5504,882,1073
5505,881,1073
5506,880,1076
5507,879,1078
5508,878,1079
5509,879,1083
5510,878,1085
5511,877,1089
5512,876,1089
5513,874,1090
5514,873,1091
5515,874,1092
5516,880,1094
5517,886,1094
5518,895,1096
5519,905,1102
5520,916,1105
5521,925,1105
5522,932,1107
5523,939,1105
5524,945,1107
5525,951,1106
5526,961,1102
5527,965,1101
5528,970,1103
5529,977,1106
5530,982,1105
5531,985,1105
5532,987,1103
5533,989,1097
5534,987,1083
5535,980,1074
5536,975,1061
5537,967,1049
5538,963,1041
5539,960,1036
5540,957,1031
5541,955,1027
5542,953,1022
5543,952,1019
5544,949,1016
5545,947,1016
5546,946,1013
5547,944,1013
5548,941,1012
5549,939,1013
5550,938,1010
5551,941,1011
5552,940,1008
5553,940,1006
5554,939,1005
5555,941,1006
5556,942,1006
5557,942,1007
5558,940,1006
5559,943,1006
5560,943,1003
5561,943,1001
5562,943,1000
5563,942,999
5564,941,996
5565,942,1000
5566,941,1003
5567,943,1006
5568,946,1008
5569,952,1014
5570,959,1022
5571,971,1029
5572,992,1034
5573,1020,1029
5574,1056,1017
5575,1095,996
5576,1129,965
5577,1160,926
5578,1186,878
5579,1209,820
5580,1233,760
5581,1254,701
5582,1269,657
5583,1280,633
5584,1286,628
5585,1283,639
5586,1262,660
5587,1224,691
5588,1159,725
5589,1088,763
5590,1019,806
5591,967,846
5592,937,877
5593,932,900
5594,933,918
5595,941,931
5596,946,942
5597,948,955
5598,945,966
5599,936,978
5600,926,989
5601,920,999
5602,918,1006
5603,919,1009
5604,919,1012
5605,921,1012
5606,923,1012
5607,921,1014
5608,921,1014
5609,919,1018
5610,919,1017
5611,917,1019
5612,919,1021
5613,917,1023
5614,918,1024
5615,916,1026
5616,917,1031
5617,918,1035
5618,918,1034
5619,919,1035
5620,916,1034
5621,913,1035
5622,914,1034
5623,911,1034
5624,908,1037
5625,911,1039
5626,909,1045
5627,909,1047
5628,911,1048
5629,910,1048
5630,911,1046
5631,909,1048
5632,909,1050
5633,908,1048
5634,905,1049
5635,902,1051
5636,896,1052
5637,898,1057
5638,897,1057
5639,896,1061
5640,896,1065
5641,898,1064
5642,896,1065
5643,895,1064
5644,891,1065
5645,888,1065
5646,886,1066
5647,882,1070
5648,878,1070
5649,877,1072
5650,875,1076
5651,873,1077
5652,874,1077
5653,875,1081
5654,875,1081
5655,872,1079
5656,874,1083
5657,872,1081
5658,870,1084
5659,869,1086
5660,869,1083
5661,871,1084
5662,872,1086
5663,876,1086
5664,880,1086
5665,885,1086
5666,888,1084
5667,892,1082
5668,899,1079
5669,900,1075
5670,903,1071
5671,907,1067
5672,911,1062
5673,916,1059
5674,919,1059
5675,923,1055
5676,930,1053
5677,936,1050
5678,938,1044
5679,941,1042
5680,944,1035
5681,946,1033
5682,946,1027
5683,947,1028
5684,947,1024
5685,948,1025
5686,947,1024
5687,951,1027
5688,952,1028
5689,950,1029
5690,952,1026
5691,952,1024
5692,951,1021
5693,950,1020
5694,950,1018
5695,946,1018
5696,944,1019
5697,946,1020
5698,949,1022
5699,950,1021
5700,949,1021
5701,954,1021
5702,954,1019
5703,950,1019
5704,951,1017
5705,949,1016
5706,949,1019
5707,948,1017
5708,949,1018
5709,947,1017
5710,946,1019
5711,947,1022
5712,948,1021
5713,951,1024
5714,952,1022
5715,952,1024
5716,951,1024
5717,951,1020
5718,951,1017
5719,950,1017
5720,948,1014
5721,950,1014
5722,949,1018
5723,949,1019
5724,950,1022
5725,952,1022
5726,952,1021
5727,950,1022
5728,952,1019
5729,952,1015
5730,950,1015
5731,951,1014
5732,952,1013
5733,952,1018
5734,956,1018
5735,959,1020
5736,962,1019
5737,964,1017
5738,968,1018
5739,976,1016
5740,983,1015
5741,992,1011
5742,998,1014
5743,1011,1011
5744,1024,1013
5745,1037,1015
5746,1053,1015
5747,1073,1016
5748,1094,1014
5749,1115,1015
5750,1136,1012
5751,1147,1007
5752,1146,1000
5753,1128,990
5754,1088,978
5755,1025,962
5756,944,950
5757,853,939
5758,766,931
5759,699,925
5760,646,919
5761,604,914
5762,571,908
5763,538,909
5764,514,920
5765,500,940
5766,494,967
5767,495,1000
5768,502,1034
5769,516,1072
5770,534,1110
5771,558,1144
5772,580,1171
5773,610,1192
5774,639,1205
5775,664,1214
5776,687,1219
5777,700,1222
5778,708,1227
5779,722,1225
5780,736,1222
5781,757,1210
5782,777,1191
5783,795,1161
5784,807,1122
5785,820,1075
5786,826,1028
5787,834,988
5788,846,956
5789,861,942
5790,881,937
5791,905,941
5792,935,950
5793,965,960
5794,988,968
5795,1009,972
5796,1022,976
5797,1028,982
5798,1026,985
5799,1026,992
5800,1025,996
5801,1023,994
5802,1024,995
5803,1026,997
5804,1028,994
5805,1033,994
5806,1036,995
5807,1039,999
5808,1044,997
5809,1048,1001
5810,1052,1000
5811,1054,1001
5812,1058,998
5813,1059,994
5814,1060,994
5815,1060,993
5816,1064,992
5817,1067,994
5818,1070,994
5819,1072,996
5820,1080,997
5821,1087,996
5822,1091,993
5823,1094,993
5824,1097,991
5825,1101,991
5826,1106,989
5827,1110,987
5828,1114,991
5829,1120,990
5830,1124,990
5831,1134,992
5832,1138,991
5833,1146,990
5834,1151,990
5835,1156,988
5836,1159,986
5837,1162,986
5838,1163,980
5839,1163,978
5840,1164,977
5841,1164,975
5842,1164,974
5843,1166,973
5844,1166,976
5845,1169,975
5846,1164,973
5847,1159,970
5848,1155,967
5849,1150,963
5850,1144,962
5851,1138,961
5852,1131,959
5853,1123,963
5854,1118,964
5855,1113,967
5856,1106,971
5857,1103,970
5858,1096,970
5859,1086,970
5860,1080,973
5861,1068,972
5862,1063,973
5863,1056,978
5864,1050,982
5865,1043,986
5866,1038,989
5867,1032,995
5868,1027,1000
5869,1022,1002
5870,1017,1003
5871,1013,1007
5872,1008,1009
5873,1003,1014
5874,998,1014
5875,994,1014
5876,990,1016
5877,986,1019
5878,987,1022
5879,986,1024
5880,985,1024
5881,984,1029
5882,985,1026
5883,984,1029
5884,983,1030
5885,978,1027
5886,980,1025
5887,978,1023
5888,978,1025
5889,976,1025
5890,978,1028
5891,979,1031
5892,979,1031
5893,980,1029
5894,980,1031
5895,979,1027
5896,979,1024
5897,978,1023
5898,979,1023
5899,977,1023
5900,975,1028
5901,975,1028
5902,974,1029
5903,976,1032
5904,976,1032
5905,977,1028
5906,978,1028
5907,978,1025
5908,977,1023
5909,976,1025
5910,972,1026
5911,973,1023
5912,971,1024
5913,970,1024
5914,970,1023
5915,970,1025
5916,970,1027
5917,975,1024
5918,972,1026
5919,971,1024
5920,972,1025
5921,967,1025
5922,966,1024
5923,965,1020
5924,965,1019
5925,963,1020
5926,963,1023
5927,963,1021
5928,963,1025
5929,965,1028
5930,965,1027
5931,964,1024
5932,964,1022
5933,962,1021
5934,962,1017
5935,961,1015
5936,961,1019
5937,960,1018
5938,958,1020
5939,961,1022
5940,960,1024
5941,959,1022
5942,962,1021
5943,962,1021
5944,965,1018
5945,965,1018
5946,960,1014
5947,960,1017
5948,960,1017
5949,959,1017
5950,959,1018
5951,960,1017
5952,961,1019
5953,960,1019
5954,962,1018
5955,961,1018
5956,962,1017
5957,961,1016
5958,961,1018
5959,959,1017
5960,956,1016
5961,960,1016
5962,956,1016
5963,956,1016
5964,961,1016
5965,963,1018
5966,961,1018
5967,960,1019
5968,961,1018
5969,960,1018
5970,959,1017
5971,959,1013
5972,959,1015
5973,962,1012
5974,960,1015
5975,963,1018
5976,965,1020
5977,969,1023
5978,969,1020
5979,974,1024
5980,975,1027
5981,979,1029
5982,979,1033
5983,983,1040
5984,983,1044
5985,988,1047
5986,991,1051
5987,993,1051
5988,995,1051
5989,1000,1051
5990,1006,1045
5991,1008,1041
5992,1018,1039
5993,1021,1030
5994,1027,1024
5995,1027,1022
5996,1025,1019
5997,1022,1019
5998,1016,1016
5999,1012,1019
6000,1012,1019
6001,1016,1016
6002,1017,1017
6003,1017,1010
6004,1019,1004
6005,1014,999
6006,1010,994
6007,1001,992
6008,994,994
6009,988,997
6010,983,1003
6011,981,1008
6012,977,1010
6013,976,1012
6014,974,1008
6015,971,1007
6016,968,1008
6017,964,1007
6018,959,1008
6019,956,1006
6020,955,1005
6021,953,1004
6022,953,1005
6023,955,1007
6024,958,1007
6025,960,1009
6026,961,1010
6027,962,1008
6028,962,1008
6029,961,1009
6030,961,1014
6031,963,1018
6032,966,1029
6033,981,1039
6034,1004,1044
6035,1036,1038
6036,1078,1022
6037,1121,995
6038,1162,952
6039,1200,901
6040,1235,834
6041,1266,760
6042,1292,681
6043,1311,619
6044,1319,574
6045,1318,556
6046,1303,562
6047,1276,585
6048,1229,619
6049,1170,663
6050,1103,714
6051,1046,768
6052,1006,820
6053,977,858
6054,964,890
6055,959,907
6056,956,923
6057,955,939
6058,949,954
6059,942,971
6060,938,987
6061,932,999
6062,927,1007
6063,925,1011
6064,926,1013
6065,924,1012
6066,924,1012
6067,921,1014
6068,920,1018
6069,919,1021
6070,918,1024
6071,921,1026
6072,918,1031
6073,920,1032
6074,919,1031
6075,920,1032
6076,917,1033
6077,917,1032
6078,916,1030
6079,913,1032
6080,910,1033
6081,911,1037
6082,912,1040
6083,914,1044
6084,915,1046
6085,915,1047
6086,916,1048
6087,914,1049
6088,912,1050
6089,911,1049
6090,908,1050
6091,908,1050
6092,907,1053
6093,908,1057
6094,907,1058
6095,906,1060
6096,903,1062
6097,902,1066
6098,902,1067
6099,900,1072
6100,898,1073
6101,892,1071
6102,888,1073
6103,883,1072
6104,879,1073
6105,877,1075
6106,875,1081
6107,873,1084
6108,870,1091
6109,868,1089
6110,866,1092
6111,859,1093
6112,856,1092
6113,855,1091
6114,852,1092
6115,848,1092
6116,844,1093
6117,841,1097
6118,838,1099
6119,839,1101
6120,841,1103
6121,842,1102
6122,845,1100
6123,844,1099
6124,842,1099
6125,846,1098
6126,846,1095
6127,848,1091
6128,852,1092
6129,855,1090
6130,860,1088
6131,867,1083
6132,874,1081
6133,882,1077
6134,888,1074
6135,895,1069
6136,903,1066
6137,909,1059
6138,915,1051
6139,920,1048
6140,924,1042
6141,930,1037
6142,935,1036
6143,941,1035
6144,946,1035
6145,953,1032
6146,957,1030
6147,957,1028
6148,961,1026
6149,963,1022
6150,964,1016
6151,962,1018
6152,960,1015
6153,960,1017
6154,960,1016
6155,962,1017
6156,965,1019
6157,966,1019
6158,968,1015
6159,967,1017
6160,965,1014
6161,965,1012
6162,969,1015
6163,967,1016
6164,965,1016
6165,967,1016
6166,967,1018
6167,966,1019
6168,970,1017
6169,971,1021
6170,971,1020
6171,972,1019
6172,970,1018
6173,969,1018
6174,969,1019
6175,967,1018
6176,967,1017
6177,963,1018
6178,966,1017
6179,967,1018
6180,968,1022
6181,970,1024
6182,970,1023
6183,969,1024
6184,971,1024
6185,973,1024
6186,976,1027
6187,976,1027
6188,981,1032
6189,983,1038
6190,987,1044
6191,992,1052
6192,996,1056
6193,1001,1057
6194,1002,1056
6195,1002,1055
6196,1003,1052
6197,1007,1050
6198,1011,1048
6199,1015,1041
6200,1021,1037
6201,1025,1030
6202,1029,1024
6203,1031,1023
6204,1029,1019
6205,1022,1017
6206,1022,1015
6207,1022,1017
6208,1019,1015
6209,1019,1011
6210,1020,1008
6211,1022,1005
6212,1017,1000
6213,1012,999
6214,1009,995
6215,1004,996
6216,999,1000
6217,993,1004
6218,989,1010
6219,985,1011
6220,981,1011
6221,978,1013
6222,972,1009
6223,970,1008
6224,965,1005
6225,963,1005
6226,962,1006
6227,959,1007
6228,961,1007
6229,964,1009
6230,964,1010
6231,965,1011
6232,964,1007
6233,966,1007
6234,965,1003
6235,965,1003
6236,963,1004
6237,964,1004
6238,964,1010
6239,966,1019
6240,971,1030
6241,982,1043
6242,997,1048
6243,1020,1049
6244,1052,1035
6245,1088,1015
6246,1127,986
6247,1162,945
6248,1194,900
6249,1226,838
6250,1255,767
6251,1282,693
6252,1305,623
6253,1315,570
6254,1316,543
6255,1304,544
6256,1285,559
6257,1251,590
6258,1204,624
6259,1146,670
6260,1086,720
6261,1038,775
6262,1002,825
6263,979,864
6264,967,896
6265,966,916
6266,967,928
6267,965,945
6268,961,957
6269,952,973
6270,945,985
6271,939,995
6272,932,1007
6273,933,1010
6274,933,1015
6275,936,1018
6276,937,1021
6277,938,1022
6278,939,1024
6279,936,1024
6280,935,1026
6281,932,1025
6282,932,1027
6283,929,1027
6284,930,1029
6285,930,1030
6286,931,1036
6287,931,1037
6288,932,1041
6289,931,1044
6290,932,1044
6291,930,1043
6292,931,1043
6293,930,1043
6294,925,1045
6295,925,1044
6296,926,1047
6297,923,1051
6298,924,1053
6299,927,1054
6300,926,1058
6301,927,1058
6302,927,1060
6303,926,1062
6304,925,1064
6305,922,1066
6306,922,1068
6307,917,1069
6308,917,1070
6309,914,1071
6310,912,1076
6311,913,1078
6312,912,1082
6313,911,1085
6314,909,1090
6315,905,1092
6316,901,1093
6317,899,1091
6318,897,1095
6319,894,1094
6320,893,1098
6321,889,1100
6322,889,1105
6323,890,1108
6324,889,1110
6325,891,1113
6326,889,1115
6327,889,1115
6328,888,1113
6329,887,1114
6330,888,1113
6331,888,1110
6332,890,1110
6333,893,1111
6334,894,1112
6335,898,1111
6336,902,1110
6337,907,1107
6338,912,1102
6339,917,1099
6340,923,1092
6341,926,1086
6342,926,1079
6343,929,1077
6344,933,1072
6345,938,1069
6346,941,1065
6347,946,1059
6348,949,1055
6349,958,1049
6350,960,1046
6351,961,1043
6352,960,1038
6353,963,1038
6354,963,1031
6355,960,1028
6356,960,1026
6357,963,1023
6358,963,1023
6359,967,1023
6360,967,1024
6361,971,1022
6362,970,1021
6363,968,1023
6364,969,1021
6365,967,1018
6366,966,1020
6367,965,1017
6368,966,1016
6369,964,1015
6370,964,1016
6371,966,1020
6372,966,1017
6373,967,1019
6374,967,1021
6375,967,1019
6376,969,1018
6377,967,1016
6378,964,1016
6379,965,1014
6380,962,1015
6381,963,1015
6382,965,1017
6383,965,1016
6384,965,1019
6385,966,1020
6386,965,1017
6387,964,1015
6388,966,1017
6389,965,1016
6390,965,1013
6391,962,1016
6392,961,1015
6393,961,1019
6394,962,1018
6395,964,1020
6396,966,1020
6397,969,1020
6398,972,1019
6399,974,1024
6400,978,1026
6401,981,1032
6402,984,1037
6403,987,1039
6404,989,1044
6405,993,1048
6406,994,1050
6407,998,1051
6408,1002,1051
6409,1008,1052
6410,1014,1048
6411,1021,1045
6412,1027,1036
6413,1031,1031
6414,1032,1023
6415,1030,1020
6416,1026,1015
6417,1023,1012
6418,1019,1010
6419,1018,1014
6420,1020,1013
6421,1022,1012
6422,1023,1008
6423,1019,1003
6424,1018,996
6425,1012,991
6426,1005,990
6427,997,987
6428,991,995
6429,986,1000
6430,981,1006
6431,981,1007
6432,979,1010
6433,976,1010
6434,974,1009
6435,969,1006
6436,964,1008
6437,966,1007
6438,962,1003
6439,960,1003
6440,960,1002
6441,959,1003
6442,962,1003
6443,964,1005
6444,967,1005
6445,967,1006
6446,967,1006
6447,969,1007
6448,969,1007
6449,968,1005
6450,969,1013
6451,970,1016
6452,975,1027
6453,986,1034
6454,1005,1040
6455,1034,1040
6456,1069,1028
6457,1108,1004
6458,1149,969
6459,1185,923
6460,1218,862
6461,1248,790
6462,1274,712
6463,1296,639
6464,1308,583
6465,1312,548
6466,1306,541
6467,1293,555
6468,1267,580
6469,1230,613
6470,1177,652
6471,1121,696
6472,1069,747
6473,1027,798
6474,998,838
6475,980,871
6476,967,895
6477,967,912
6478,965,927
6479,964,941
6480,960,954
6481,955,968
6482,946,983
6483,940,995
6484,937,1005
6485,935,1008
6486,934,1012
6487,931,1012
6488,931,1012
6489,934,1015
6490,934,1019
6491,933,1021
6492,934,1024
6493,932,1026
6494,933,1028
6495,932,1031
6496,929,1031
6497,928,1032
6498,929,1032
6499,926,1031
6500,929,1031
6501,927,1032
6502,927,1036
6503,928,1036
6504,928,1040
6505,930,1044
6506,931,1046
6507,929,1047
6508,928,1051
6509,925,1048
6510,922,1047
6511,921,1049
6512,922,1051
6513,922,1053
6514,923,1056
6515,922,1058
6516,925,1063
6517,924,1067
6518,924,1068
6519,920,1067
6520,918,1066
6521,917,1065
6522,914,1065
6523,910,1071
6524,908,1074
6525,906,1077
6526,906,1081
6527,904,1085
6528,903,1086
6529,900,1090
6530,899,1089
6531,896,1092
6532,892,1094
6533,888,1098
6534,885,1101
6535,885,1101
6536,881,1103
6537,880,1104
6538,880,1109
6539,880,1106
6540,878,1109
6541,879,1115
6542,878,1113
6543,877,1115
6544,881,1115
6545,881,1114
6546,880,1110
6547,881,1112
6548,882,1108
6549,886,1106
6550,890,1106
6551,896,1104
6552,900,1103
6553,906,1101
6554,910,1097
6555,914,1092
6556,918,1086
6557,924,1080
6558,928,1072
6559,930,1067
6560,932,1061
6561,941,1060
6562,941,1054
6563,949,1050
6564,954,1049
6565,958,1045
6566,962,1040
6567,962,1038
6568,966,1032
6569,967,1028
6570,965,1024
6571,966,1021
6572,965,1019
6573,967,1020
6574,966,1020
6575,968,1022
6576,969,1021
6577,971,1019
6578,972,1018
6579,972,1017
6580,971,1014
6581,970,1014
6582,967,1011
6583,967,1011
6584,965,1012
6585,967,1012
6586,968,1015
6587,969,1016
6588,970,1016
6589,972,1017
6590,973,1015
6591,973,1014
6592,971,1014
6593,970,1013
6594,972,1013
6595,970,1012
6596,969,1012
6597,970,1013
6598,970,1014
6599,971,1015
6600,971,1017
6601,973,1015
6602,972,1014
6603,972,1014
6604,972,1015
6605,972,1014
6606,971,1014
6607,968,1010
6608,967,1011
6609,965,1013
6610,968,1014
6611,971,1013
6612,974,1016
6613,978,1021
6614,979,1026
6615,980,1027
6616,984,1032
6617,987,1035
6618,990,1038
6619,992,1041
6620,996,1045
6621,998,1047
6622,1001,1049
6623,1004,1050
6624,1006,1050
6625,1014,1047
6626,1019,1043
6627,1027,1038
6628,1034,1031
6629,1038,1024
6630,1034,1018
6631,1029,1013
6632,1025,1011
6633,1020,1015
6634,1018,1015
6635,1021,1012
6636,1022,1013
6637,1026,1010
6638,1026,1003
6639,1021,996
6640,1018,991
6641,1011,988
6642,1004,988
6643,999,989
6644,991,994
6645,987,998
6646,984,1003
6647,982,1005
6648,981,1007
6649,979,1006
6650,973,1005
6651,970,1005
6652,969,1005
6653,966,1003
6654,963,1001
6655,962,999
6656,960,1000
6657,963,999
6658,964,1001
6659,964,1001
6660,966,1001
6661,970,1006
6662,969,1005
6663,969,1004
6664,968,1002
6665,965,1004
6666,970,1008
6667,971,1015
6668,977,1024
6669,993,1036
6670,1014,1041
6671,1046,1036
6672,1084,1022
6673,1125,994
6674,1163,956
6675,1194,908
6676,1228,847
6677,1255,774
6678,1282,697
6679,1300,627
6680,1312,571
6681,1314,539
6682,1305,538
6683,1291,551
6684,1263,574
6685,1221,608
6686,1169,647
6687,1113,692
6688,1062,742
6689,1020,797
6690,993,841
6691,976,874
6692,969,898
6693,968,916
6694,966,930
6695,965,945
6696,962,961
6697,955,974
6698,947,990
6699,941,1002
6700,940,1009
6701,936,1011
6702,933,1012
6703,934,1011
6704,934,1013
6705,935,1014
6706,936,1017
6707,936,1021
6708,938,1027
6709,938,1030
6710,938,1032
6711,936,1031
6712,938,1032
6713,935,1030
6714,933,1032
6715,934,1032
6716,933,1035
6717,932,1039
6718,934,1041
6719,934,1045
6720,934,1046
6721,934,1047
6722,935,1047
6723,934,1048
6724,934,1048
6725,931,1050
6726,929,1051
6727,927,1053
6728,923,1054
6729,923,1056
6730,923,1058
6731,923,1061
6732,924,1066
6733,927,1069
6734,924,1070
6735,921,1071
6736,919,1074
6737,918,1073
6738,915,1073
6739,914,1076
6740,912,1077
6741,906,1078
6742,909,1085
6743,908,1086
6744,906,1091
6745,905,1096
6746,904,1098
6747,901,1100
6748,897,1102
6749,895,1100
6750,893,1101
6751,890,1103
6752,885,1104
6753,885,1107
6754,885,1109
6755,887,1111
6756,887,1114
6757,887,1116
6758,891,1115
6759,893,1112
6760,893,1109
6761,894,1106
6762,897,1104
6763,900,1101
6764,907,1097
6765,908,1095
6766,914,1091
6767,919,1089
6768,925,1084
6769,932,1079
6770,936,1076
6771,942,1067
6772,947,1064
6773,951,1058
6774,953,1051
6775,956,1046
6776,957,1045
6777,962,1038
6778,964,1035
6779,967,1031
6780,969,1030
6781,972,1030
6782,972,1028
6783,975,1027
6784,975,1025
6785,974,1020
6786,973,1021
6787,972,1018
6788,971,1018
6789,970,1015
6790,969,1016
6791,971,1018
6792,974,1021
6793,975,1018
6794,977,1019
6795,976,1019
6796,974,1015
6797,975,1010
6798,975,1009
6799,974,1010
6800,974,1010
6801,974,1011
6802,974,1014
6803,974,1015
6804,974,1014
6805,975,1014
6806,975,1016
6807,975,1015
6808,976,1011
6809,974,1011
6810,975,1010
6811,971,1011
6812,971,1012
6813,972,1014
6814,970,1014
6815,972,1015
6816,972,1016
6817,974,1016
6818,975,1015
6819,975,1013
6820,977,1015
6821,976,1014
6822,979,1015
6823,979,1014
6824,980,1016
6825,983,1020
6826,986,1026
6827,989,1032
6828,995,1042
6829,999,1048
6830,1002,1052
6831,1006,1054
6832,1006,1051
6833,1006,1049
6834,1012,1047
6835,1016,1043
6836,1019,1040
6837,1025,1034
6838,1032,1029
6839,1035,1023
6840,1039,1023
6841,1037,1017
6842,1033,1016
6843,1029,1010
6844,1026,1010
6845,1024,1009
6846,1027,1009
6847,1024,1002
6848,1023,998
6849,1026,993
6850,1022,992
6851,1017,990
6852,1007,990
6853,1002,991
6854,997,994
6855,992,997
6856,990,1001
6857,985,1001
6858,981,1004
6859,978,1003
6860,973,1001
6861,971,1004
6862,970,1006
6863,970,1005
6864,968,1007
6865,970,1007
6866,970,1004
6867,969,1003
6868,971,1004
6869,968,1002
6870,966,1000
6871,966,1000
6872,966,999
6873,968,1000
6874,970,1002
6875,972,1004
6876,974,1008
6877,975,1017
6878,979,1026
6879,990,1034
6880,1004,1043
6881,1027,1041
6882,1055,1030
6883,1091,1010
6884,1130,981
6885,1165,943
6886,1194,900
6887,1225,845
6888,1252,779
6889,1281,710
6890,1301,639
6891,1315,583
6892,1318,546
6893,1310,538
6894,1293,545
6895,1264,571
6896,1222,603
6897,1169,647
6898,1112,696
6899,1063,751
6900,1025,804
6901,998,851
6902,981,882
6903,974,906
6904,970,920
6905,969,934
6906,964,947
6907,956,965
6908,948,978
6909,942,993
6910,940,1001
6911,937,1010
6912,938,1013
6913,938,1014
6914,942,1017
6915,939,1019
6916,939,1018
6917,937,1022
6918,935,1022
6919,932,1024
6920,930,1024
6921,929,1026
6922,930,1031
6923,931,1032
6924,930,1033
6925,932,1037
6926,934,1039
6927,933,1039
6928,935,1040
6929,933,1042
6930,931,1040
6931,929,1042
6932,927,1042
6933,926,1042
6934,927,1047
6935,926,1049
6936,925,1053
6937,926,1055
6938,928,1057
6939,929,1056
6940,927,1058
6941,927,1057
6942,921,1058
6943,921,1058
6944,920,1061
6945,917,1064
6946,918,1068
6947,918,1070
6948,915,1073
6949,914,1077
6950,912,1079
6951,910,1080
6952,909,1080
6953,905,1083
6954,901,1083
6955,899,1085
6956,896,1089
6957,894,1093
6958,891,1095
6959,891,1099
6960,889,1100
6961,886,1105
6962,886,1106
6963,883,1108
6964,882,1110
6965,879,1110
6966,878,1108
6967,876,1111
6968,876,1109
6969,875,1110
6970,878,1112
6971,879,1110
6972,882,1113
6973,886,1113
6974,892,1111
6975,894,1107
6976,899,1104
6977,902,1101
6978,905,1094
6979,908,1090
6980,913,1085
6981,917,1081
6982,923,1075
6983,928,1073
6984,933,1070
6985,940,1066
6986,944,1060
6987,949,1056
6988,954,1046
6989,956,1041
6990,959,1036
6991,961,1032
6992,959,1029
6993,961,1027
6994,960,1026
6995,963,1026
6996,965,1025
6997,967,1024
6998,968,1021
6999,966,1020
7000,965,1018
7001,962,1016
7002,965,1015
7003,966,1016
7004,966,1015
7005,966,1015
7006,966,1016
7007,967,1017
7008,968,1017
7009,969,1017
7010,971,1017
7011,970,1016
7012,970,1014
7013,969,1013
7014,970,1012
7015,969,1011
7016,968,1013
7017,967,1011
7018,968,1012
7019,968,1013
7020,967,1016
7021,968,1018
7022,969,1020
7023,968,1020
7024,970,1017
7025,970,1014
7026,968,1013
7027,967,1012
7028,966,1012
7029,965,1013
7030,966,1017
7031,966,1019
7032,971,1019
7033,974,1023
7034,975,1022
7035,976,1021
7036,981,1025
7037,982,1029
7038,985,1035
7039,989,1040
7040,994,1045
7041,996,1049
7042,1000,1050
7043,1000,1051
7044,1006,1052
7045,1011,1052
7046,1017,1049
7047,1023,1046
7048,1029,1038
7049,1034,1033
7050,1034,1026
7051,1032,1019
7052,1025,1011
7053,1021,1009
7054,1018,1009
7055,1020,1011
7056,1020,1012
7057,1023,1012
7058,1025,1005
7059,1022,1001
7060,1017,999
7061,1012,994
7062,1003,987
7063,996,989
7064,990,993
7065,984,1000
7066,981,1004
7067,981,1008
7068,975,1013
7069,974,1014
7070,974,1013
7071,968,1012
7072,966,1006
7073,961,1006
7074,960,1004
7075,960,1003
7076,960,1004
7077,962,1006
7078,961,1007
7079,965,1006
7080,966,1006
7081,964,1005
7082,965,1005
7083,967,1004
7084,968,1004
7085,968,1005
7086,967,1008
7087,969,1016
7088,974,1024
7089,985,1034
7090,1002,1042
7091,1031,1039
7092,1066,1027
7093,1108,1002
7094,1145,967
7095,1180,924
7096,1212,865
7097,1244,793
7098,1271,715
7099,1292,638
7100,1307,577
7101,1307,542
7102,1299,534
7103,1281,551
7104,1253,578
7105,1213,618
7106,1160,660
7107,1105,711
7108,1057,760
7109,1017,810
7110,989,851
7111,969,883
7112,963,903
7113,960,920
7114,960,936
7115,959,950
7116,955,966
7117,951,982
7118,944,994
7119,940,1005
7120,936,1009
7121,934,1012
7122,933,1013
7123,932,1015
7124,932,1018
7125,932,1018
7126,931,1022
7127,930,1027
7128,931,1027
7129,928,1031
7130,931,1032
7131,928,1031
7132,930,1033
7133,930,1032
7134,925,1034
7135,927,1037
7136,927,1037
7137,925,1036
7138,924,1040
7139,926,1043
7140,927,1045
7141,928,1050
7142,930,1050
7143,929,1052
7144,927,1054
7145,927,1052
7146,925,1051
7147,924,1055
7148,920,1057
7149,922,1058
7150,918,1061
7151,918,1064
7152,921,1071
7153,920,1074
7154,919,1075
7155,916,1075
7156,915,1075
7157,913,1077
7158,909,1078
7159,904,1080
7160,904,1082
7161,900,1085
7162,900,1091
7163,899,1092
7164,897,1096
7165,896,1098
7166,896,1097
7167,894,1102
7168,890,1102
7169,887,1102
7170,886,1106
7171,883,1107
7172,880,1108
7173,879,1108
7174,881,1111
7175,879,1114
7176,880,1114
7177,882,1115
7178,885,1115
7179,887,1116
7180,888,1111
7181,890,1112
7182,891,1110
7183,894,1105
7184,897,1097
7185,902,1098
7186,907,1091
7187,914,1091
7188,921,1087
7189,923,1084
7190,930,1081
7191,935,1076
7192,941,1069
7193,941,1062
7194,947,1056
7195,948,1047
7196,953,1047
7197,955,1042
7198,957,1039
7199,959,1036
7200,962,1036
7201,963,1036
7202,967,1030
7203,968,1027
7204,968,1023
7205,967,1023
7206,966,1020
7207,964,1020
7208,965,1018
7209,964,1019
7210,968,1020
7211,964,1022
7212,965,1022
7213,966,1022
7214,969,1020
7215,971,1015
7216,970,1017
7217,971,1017
7218,968,1013
7219,966,1016
7220,966,1014
7221,967,1014
7222,966,1016
7223,968,1015
7224,968,1015
7225,972,1018
7226,971,1017
7227,969,1017
7228,972,1016
7229,969,1016
7230,970,1015
7231,969,1014
7232,966,1015
7233,966,1013
7234,966,1014
7235,966,1015
7236,966,1017
7237,968,1016
7238,969,1019
7239,969,1019
7240,970,1017
7241,970,1016
7242,971,1017
7243,969,1017
7244,970,1018
7245,975,1023
7246,979,1030
7247,983,1038
7248,988,1047
7249,994,1053
7250,1000,1053
7251,999,1054
7252,1001,1052
7253,1005,1049
7254,1008,1050
7255,1011,1048
7256,1015,1045
7257,1022,1042
7258,1027,1037
7259,1032,1028
7260,1035,1024
7261,1033,1020
7262,1031,1015
7263,1027,1011
7264,1023,1011
7265,1021,1010
7266,1022,1010
7267,1021,1006
7268,1023,1003
7269,1019,1002
7270,1018,996
7271,1013,992
7272,1007,992
7273,1003,994
7274,997,993
7275,990,997
7276,986,1003
7277,981,1005
7278,978,1006
7279,974,1004
7280,970,1006
7281,966,1003
7282,966,1004
7283,964,1003
7284,963,1006
7285,964,1006
7286,964,1008
7287,963,1008
7288,964,1005
7289,964,1003
7290,963,1002
7291,963,1001
7292,961,1000
7293,963,1002
7294,965,1002
7295,966,1010
7296,968,1015
7297,970,1027
7298,980,1035
7299,994,1042
7300,1017,1044
7301,1047,1035
7302,1083,1016
7303,1121,989
7304,1156,955
7305,1191,910
7306,1223,853
7307,1254,784
7308,1282,710
7309,1305,638
7310,1318,581
7311,1318,548
7312,1311,538
7313,1291,551
7314,1260,576
7315,1219,611
7316,1162,651
7317,1106,706
7318,1054,761
7319,1015,816
7320,987,860
7321,974,895
7322,966,916
7323,964,935
7324,962,949
7325,956,957
7326,950,973
7327,941,985
7328,934,995
7329,933,1003
7330,930,1012
7331,931,1013
7332,931,1016
7333,933,1019
7334,935,1022
7335,934,1022
7336,933,1025
7337,930,1023
7338,928,1025
7339,926,1025
7340,924,1027
7341,922,1029
7342,924,1030
7343,924,1034
7344,927,1036
7345,925,1041
7346,927,1042
7347,925,1041
7348,924,1042
7349,924,1044
7350,923,1043
7351,921,1044
7352,922,1045
7353,920,1046
7354,920,1049
7355,922,1052
7356,921,1055
7357,922,1055
7358,921,1059
7359,920,1061
7360,920,1064
7361,918,1064
7362,916,1065
7363,913,1066
7364,911,1065
7365,910,1065
7366,907,1066
7367,906,1072
7368,906,1077
7369,905,1081
7370,902,1083
7371,901,1086
7372,896,1088
7373,893,1089
7374,888,1087
7375,886,1090
7376,882,1092
7377,879,1094
7378,880,1096
7379,878,1102
7380,879,1105
7381,879,1106
7382,880,1105
7383,878,1105
7384,878,1107
7385,879,1105
7386,878,1106
7387,878,1107
7388,878,1104
7389,881,1102
7390,884,1103
7391,890,1097
7392,896,1098
7393,901,1097
7394,904,1090
7395,912,1088
7396,917,1082
7397,919,1076
7398,923,1071
7399,927,1066
7400,930,1061
7401,935,1056
7402,939,1052
7403,943,1049
7404,948,1044
7405,953,1040
7406,960,1036
7407,961,1032
7408,967,1027
7409,969,1023
7410,970,1016
7411,972,1013
7412,972,1011
7413,976,1011
7414,978,1009
7415,982,1013
7416,985,1014
7417,989,1018
7418,993,1014
7419,994,1013
7420,995,1016
7421,996,1016
7422,998,1020
7423,1000,1024
7424,1001,1026
7425,1000,1033
7426,999,1036
7427,998,1037
7428,995,1035
7429,996,1032
7430,995,1022
7431,993,1015
7432,994,1003
7433,995,994
7434,995,990
7435,994,988
7436,990,989
7437,985,991
7438,981,996
7439,978,999
7440,977,1005
7441,975,1008
7442,976,1012
7443,971,1011
7444,972,1012
7445,968,1012
7446,965,1013
7447,962,1012
7448,961,1011
7449,960,1012
7450,961,1011
7451,963,1011
7452,966,1012
7453,966,1013
7454,971,1014
7455,970,1011
7456,968,1012
7457,967,1010
7458,971,1007
7459,967,1009
7460,969,1009
7461,969,1011
7462,974,1016
7463,984,1026
7464,997,1038
7465,1021,1047
7466,1049,1044
7467,1081,1037
7468,1116,1016
7469,1153,981
7470,1188,936
7471,1221,876
7472,1258,805
7473,1290,727
7474,1320,652
7475,1340,593
7476,1346,562
7477,1338,557
7478,1317,573
7479,1285,603
7480,1231,642
7481,1166,690
7482,1106,738
7483,1053,791
7484,1012,837
7485,987,870
7486,976,899
7487,975,920
7488,972,933
7489,973,946
7490,969,958
7491,962,976
7492,954,986
7493,947,998
7494,943,1006
7495,942,1012
7496,939,1011
7497,941,1012
7498,940,1015
7499,940,1017
7500,940,1018
7501,939,1022
7502,940,1025
7503,938,1028
7504,939,1030
7505,935,1028
7506,934,1028
7507,934,1027
7508,934,1031
7509,933,1031
7510,937,1033
7511,936,1037
7512,936,1040
7513,937,1043
7514,938,1043
7515,936,1043
7516,936,1045
7517,933,1043
7518,930,1043
7519,927,1042
7520,927,1046
7521,927,1048
7522,927,1052
7523,928,1056
7524,929,1058
7525,928,1061
7526,926,1063
7527,922,1060
7528,920,1061
7529,916,1063
7530,913,1063
7531,910,1066
7532,906,1069
7533,905,1072
7534,906,1074
7535,907,1076
7536,905,1079
7537,905,1080
7538,904,1079
7539,899,1082
7540,897,1085
7541,891,1088
7542,890,1087
7543,889,1089
7544,885,1091
7545,883,1091
7546,881,1091
7547,881,1094
7548,881,1097
7549,881,1097
7550,882,1098
7551,881,1099
7552,883,1100
7553,882,1098
7554,885,1095
7555,889,1094
7556,892,1092
7557,895,1089
7558,898,1089
7559,903,1087
7560,910,1085
7561,914,1084
7562,920,1078
7563,923,1076
7564,927,1068
7565,931,1061
7566,936,1057
7567,941,1050
7568,942,1044
7569,945,1042
7570,949,1041
7571,952,1039
7572,959,1037
7573,965,1036
7574,968,1031
7575,970,1027
7576,969,1024
7577,970,1021
7578,969,1021
7579,968,1018
7580,966,1017
7581,965,1017
7582,962,1018
7583,964,1017
7584,964,1017
7585,966,1018
7586,968,1017
7587,966,1017
7588,969,1018
7589,966,1016
7590,966,1014
7591,964,1015
7592,964,1012
7593,967,1011
7594,966,1013
7595,965,1014
7596,965,1016
7597,967,1019
7598,968,1020
7599,968,1018
7600,968,1018
7601,969,1012
7602,966,1011
7603,966,1009
7604,967,1009
7605,967,1013
7606,964,1016
7607,969,1019
7608,968,1023
7609,968,1018
7610,972,1019
7611,971,1016
7612,973,1016
7613,968,1013
7614,963,1009
7615,963,1014
7616,963,1012
7617,961,1011
7618,963,1013
7619,965,1011
7620,965,1012
7621,968,1012
7622,971,1014
7623,968,1011
7624,969,1012
7625,972,1012
7626,971,1011
7627,971,1010
7628,969,1008
7629,969,1007
7630,968,1007
7631,968,1007
7632,972,1010
7633,975,1013
7634,976,1014
7635,976,1014
7636,975,1012
7637,978,1009
7638,977,1007
7639,976,1004
7640,973,1007
7641,975,1008
7642,976,1011
7643,976,1015
7644,981,1017
7645,984,1022
7646,991,1022
7647,993,1028
7648,995,1032
7649,999,1035
7650,1001,1038
7651,1002,1041
7652,1004,1040
7653,1007,1041
7654,1010,1041
7655,1012,1037
7656,1018,1038
7657,1023,1034
7658,1029,1027
7659,1033,1022
7660,1034,1018
7661,1035,1015
7662,1031,1010
7663,1027,1007
7664,1020,1003
7665,1019,1003
7666,1017,1001
7667,1019,999
7668,1021,999
7669,1024,995
7670,1026,993
7671,1023,988
7672,1019,986
7673,1013,987
7674,1007,986
7675,1000,989
7676,994,989
7677,989,995
7678,987,997
7679,984,1002
7680,986,1002
7681,985,1005
7682,984,1006
7683,982,1006
7684,977,1004
7685,974,1004
7686,972,1000
7687,970,1000
7688,971,1000
7689,972,1000
7690,975,1002
7691,975,1002
7692,980,1005
7693,981,1005
7694,982,1006
7695,983,1007
7696,984,1011
7697,983,1016
7698,991,1023
7699,1003,1032
7700,1029,1034
7701,1066,1030
7702,1103,1015
7703,1144,990
7704,1187,954
7705,1223,909
7706,1259,855
7707,1291,785
7708,1319,708
7709,1340,641
7710,1345,590
7711,1341,567
7712,1323,565
7713,1293,579
7714,1248,613
7715,1191,653
7716,1130,699
7717,1074,755
7718,1035,806
7719,1006,852
7720,992,883
7721,984,903
7722,983,919
7723,980,933
7724,975,944
7725,970,958
7726,962,975
7727,953,988
7728,947,1000
7729,944,1009
7730,946,1011
7731,943,1013
7732,943,1017
7733,943,1013
7734,940,1014
7735,939,1015
7736,936,1016
7737,937,1018
7738,936,1021
7739,936,1025
7740,938,1028
7741,939,1030
7742,938,1031
7743,937,1032
7744,935,1028
7745,934,1028
7746,933,1027
7747,931,1032
7748,930,1034
7749,930,1036
7750,930,1037
7751,932,1039
7752,932,1040
7753,934,1042
7754,934,1044
7755,934,1046
7756,933,1044
7757,933,1045
7758,929,1046
7759,929,1048
7760,927,1050
7761,923,1050
7762,922,1051
7763,921,1053
7764,923,1055
7765,923,1057
7766,922,1059
7767,923,1062
7768,919,1061
7769,916,1061
7770,914,1062
7771,911,1061
7772,907,1063
7773,903,1063
7774,901,1066
7775,899,1070
7776,898,1074
7777,898,1077
7778,894,1081
7779,893,1082
7780,891,1082
7781,886,1083
7782,885,1081
7783,882,1077
7784,881,1081
7785,880,1081
7786,878,1083
7787,878,1089
7788,877,1089
7789,879,1095
7790,880,1092
7791,881,1091
7792,881,1093
7793,883,1090
7794,883,1089
7795,884,1087
7796,884,1085
7797,889,1084
7798,891,1084
7799,896,1085
7800,903,1085
7801,908,1082
7802,915,1077
7803,923,1072
7804,926,1067
7805,928,1062
7806,932,1058
7807,939,1055
7808,941,1051
7809,942,1046
7810,946,1044
7811,950,1041
7812,958,1038
7813,964,1036
7814,971,1032
7815,972,1027
7816,975,1023
7817,975,1021
7818,975,1019
7819,975,1017
7820,972,1017
7821,972,1014
7822,974,1014
7823,976,1016
7824,977,1016
7825,978,1016
7826,979,1017
7827,977,1019
7828,976,1016
7829,975,1013
7830,974,1012
7831,975,1010
7832,974,1010
7833,972,1010
7834,977,1008
7835,979,1010
7836,980,1013
7837,983,1014
7838,983,1015
7839,985,1013
7840,984,1010
7841,983,1010
7842,980,1008
7843,977,1004
7844,974,1005
7845,976,1010
7846,975,1013
7847,976,1015
7848,976,1017
7849,978,1018
7850,978,1017
7851,980,1015
7852,982,1015
7853,980,1015
7854,980,1012
7855,979,1013
7856,981,1013
7857,982,1015
7858,984,1015
7859,989,1019
7860,991,1024
7861,996,1029
7862,1001,1033
7863,1004,1038
7864,1005,1041
7865,1008,1041
7866,1007,1043
7867,1007,1042
7868,1010,1041
7869,1012,1042
7870,1016,1046
7871,1021,1046
7872,1028,1044
7873,1034,1040
7874,1037,1034
7875,1042,1025
7876,1040,1022
7877,1035,1013
7878,1029,1010
7879,1027,1008
7880,1026,1010
7881,1030,1009
7882,1032,1010
7883,1035,1004
7884,1037,1003
7885,1032,997
7886,1028,997
7887,1021,992
7888,1014,992
7889,1006,995
7890,999,999
7891,992,998
7892,985,1000
7893,982,1002
7894,983,1005
7895,981,1007
7896,979,1007
7897,980,1008
7898,978,1007
7899,977,1005
7900,974,1005
7901,973,1003
7902,972,1001
7903,971,1002
7904,969,1002
7905,971,1002
7906,974,999
7907,978,1001
7908,978,1001
7909,979,1005
7910,980,1005
7911,977,1012
7912,977,1018
7913,984,1027
7914,995,1034
7915,1016,1035
7916,1046,1036
7917,1088,1021
7918,1132,999
7919,1175,970
7920,1217,932
7921,1253,884
7922,1288,828
7923,1317,759
7924,1337,691
7925,1350,634
7926,1348,594
7927,1337,575
7928,1314,583
7929,1275,606
7930,1216,639
7931,1150,683
7932,1086,731
7933,1033,784
7934,999,828
7935,983,864
7936,972,892
7937,972,908
7938,971,922
7939,968,934
7940,961,948
7941,959,964
7942,951,982
7943,946,993
7944,941,1001
7945,943,1007
7946,941,1009
7947,943,1008
7948,943,1011
7949,938,1011
7950,937,1013
7951,937,1017
7952,934,1018
7953,933,1020
7954,935,1023
7955,938,1025
7956,939,1024
7957,939,1026
7958,941,1028
7959,941,1030
7960,937,1033
7961,932,1032
7962,931,1031
7963,928,1028
7964,929,1028
7965,930,1030
7966,930,1030
7967,934,1036
7968,937,1036
7969,938,1043
7970,939,1047
7971,937,1044
7972,934,1044
7973,929,1045
7974,929,1045
7975,928,1045
7976,922,1045
7977,923,1049
7978,922,1052
7979,921,1057
7980,920,1059
7981,920,1060
7982,919,1060
7983,916,1062
7984,914,1062
7985,909,1063
7986,906,1064
7987,901,1066
7988,900,1068
7989,899,1070
7990,898,1075
7991,895,1078
7992,894,1081
7993,896,1082
7994,894,1084
7995,893,1086
7996,890,1084
7997,888,1084
7998,884,1083
7999,882,1084
8000,881,1085
8001,880,1086
8002,880,1087
8003,881,1087
8004,882,1089
8005,886,1090
8006,889,1090
8007,889,1088
8008,893,1086
8009,896,1083
8010,901,1082
8011,905,1078
8012,907,1074
8013,913,1075
8014,915,1071
8015,923,1067
8016,927,1065
8017,931,1064
8018,935,1059
8019,940,1057
8020,942,1051
8021,947,1047
8022,949,1041
8023,951,1036
8024,955,1034
8025,958,1030
8026,961,1027
8027,964,1025
8028,969,1026
8029,970,1026
8030,972,1022
8031,972,1021
8032,974,1018
8033,972,1016
8034,972,1012
8035,971,1012
8036,970,1011
8037,972,1011
8038,974,1014
8039,977,1015
8040,978,1016
8041,983,1016
8042,986,1016
8043,989,1015
8044,994,1013
8045,1000,1011
8046,1010,1009
8047,1019,1008
8048,1030,1008
8049,1043,1007
8050,1058,1008
8051,1070,1008
8052,1088,1009
8053,1106,1007
8054,1128,1003
8055,1149,1000
8056,1169,997
8057,1177,987
8058,1175,977
8059,1151,965
8060,1108,953
8061,1043,942
8062,959,933
8063,874,931
8064,794,928
8065,729,925
8066,681,924
8067,639,920
8068,610,913
8069,580,911
8070,559,915
8071,545,928
8072,536,951
8073,535,981
8074,539,1013
8075,551,1047
8076,565,1080
8077,582,1111
8078,604,1137
8079,628,1159
8080,653,1177
8081,675,1185
8082,695,1192
8083,709,1197
8084,722,1203
8085,735,1204
8086,752,1201
8087,774,1193
8088,800,1179
8089,826,1148
8090,847,1105
8091,860,1057
8092,868,1008
8093,871,968
8094,879,935
8095,888,918
8096,907,915
8097,927,922
8098,954,932
8099,982,944
8100,1009,956
8101,1028,962
8102,1046,970
8103,1052,976
8104,1057,982
8105,1055,985
8106,1054,986
8107,1052,988
8108,1052,987
8109,1054,989
8110,1058,990
8111,1059,992
8112,1063,991
8113,1068,993
8114,1073,993
8115,1077,991
8116,1079,992
8117,1082,991
8118,1081,988
8119,1082,987
8120,1082,987
8121,1081,987
8122,1087,986
8123,1093,989
8124,1098,990
8125,1102,991
8126,1107,993
8127,1112,993
8128,1116,992
8129,1119,989
8130,1118,987
8131,1121,983
8132,1123,982
8133,1128,980
8134,1132,982
8135,1135,983
8136,1143,986
8137,1150,989
8138,1155,988
8139,1159,988
8140,1163,981
8141,1166,980
8142,1167,980
8143,1171,976
8144,1175,976
8145,1177,978
8146,1180,978
8147,1182,976
8148,1182,977
8149,1186,976
8150,1186,971
8151,1185,971
8152,1183,970
8153,1180,966
8154,1175,964
8155,1171,964
8156,1164,962
8157,1158,963
8158,1153,964
8159,1147,964
8160,1141,964
8161,1135,965
8162,1129,965
8163,1123,967
8164,1116,966
8165,1107,966
8166,1101,967
8167,1094,968
8168,1084,969
8169,1080,971
8170,1073,975
8171,1065,979
8172,1062,982
8173,1056,987
8174,1050,992
8175,1045,993
8176,1039,997
8177,1035,996
8178,1026,996
8179,1020,1000
8180,1018,1004
8181,1014,1008
8182,1011,1012
8183,1008,1012
8184,1005,1016
8185,1004,1020
8186,1003,1021
8187,1001,1020
8188,999,1018
8189,996,1016
8190,993,1015
8191,992,1017
8192,991,1015
8193,991,1016
8194,991,1019
8195,992,1021
8196,990,1021
8197,991,1022
8198,990,1022
8199,989,1019
8200,990,1023
8201,991,1020
8202,991,1017
8203,990,1019
8204,987,1016
8205,990,1021
8206,988,1017
8207,989,1016
8208,988,1019
8209,991,1020
8210,990,1021
8211,988,1021
8212,988,1021
8213,989,1018
8214,988,1018
8215,985,1014
8216,984,1018
8217,982,1016
8218,982,1018
8219,985,1019
8220,985,1019
8221,986,1022
8222,988,1021
8223,987,1020
8224,987,1019
8225,984,1017
8226,984,1015
8227,984,1014
8228,983,1014
8229,980,1013
8230,982,1015
8231,981,1016
8232,982,1019
8233,981,1022
8234,981,1019
8235,982,1019
8236,982,1017
8237,979,1012
8238,978,1011
8239,977,1013
8240,977,1011
8241,976,1012
8242,977,1013
8243,979,1014
8244,979,1016
8245,979,1017
8246,983,1015
8247,982,1012
8248,980,1015
8249,978,1015
8250,976,1010
8251,975,1011
8252,976,1009
8253,975,1009
8254,976,1009
8255,979,1009
8256,980,1012
8257,981,1013
8258,982,1012
8259,981,1014
8260,981,1013
8261,979,1010
8262,979,1009
8263,978,1007
8264,976,1006
8265,977,1005
8266,977,1007
8267,980,1008
8268,978,1009
8269,978,1013
8270,980,1014
8271,980,1013
8272,980,1011
8273,978,1010
8274,979,1009
8275,978,1006
8276,978,1008
8277,979,1009
8278,978,1010
8279,980,1010
8280,982,1013
8281,986,1016
8282,990,1016
8283,992,1018
8284,993,1021
8285,996,1025
8286,998,1029
8287,1004,1037
8288,1004,1041
8289,1008,1045
8290,1010,1045
8291,1012,1046
8292,1016,1041
8293,1019,1039
8294,1028,1037
8295,1034,1030
8296,1039,1027
8297,1043,1022
8298,1046,1017
8299,1043,1012
8300,1037,1010
8301,1033,1007
8302,1031,1007
8303,1031,1007
8304,1032,1009
8305,1035,1007
8306,1038,1005
8307,1035,998
8308,1032,992
8309,1024,991
8310,1018,989
8311,1010,987
8312,1002,993
8313,998,998
8314,994,1001
8315,992,1005
8316,990,1007
8317,989,1007
8318,986,1005
8319,983,1003
8320,981,1002
8321,976,1000
8322,974,997
8323,973,1000
8324,973,1000
8325,974,1002
8326,975,1003
8327,978,1004
8328,980,1004
8329,982,1003
8330,982,1002
8331,982,1005
8332,984,1010
8333,985,1016
8334,989,1027
8335,1002,1031
8336,1024,1034
8337,1054,1026
8338,1095,1013
8339,1138,989
8340,1179,956
8341,1216,915
8342,1251,861
8343,1284,802
8344,1313,733
8345,1338,665
8346,1352,612
8347,1357,578
8348,1350,570
8349,1336,580
8350,1306,603
8351,1260,635
8352,1201,672
8353,1139,718
8354,1081,769
8355,1037,817
8356,1008,857
8357,990,885
8358,984,904
8359,978,917
8360,975,930
8361,973,947
8362,966,963
8363,958,978
8364,952,993
8365,948,1002
8366,945,1005
8367,945,1009
8368,945,1009
8369,946,1008
8370,944,1008
8371,942,1010
8372,940,1015
8373,940,1019
8374,937,1021
8375,940,1023
8376,939,1026
8377,939,1028
8378,938,1029
8379,937,1029
8380,939,1030
8381,938,1031
8382,936,1031
8383,934,1032
8384,934,1032
8385,935,1032
8386,934,1031
8387,935,1036
8388,935,1037
8389,937,1040
8390,937,1041
8391,937,1044
8392,936,1046
8393,935,1048
8394,934,1047
8395,929,1043
8396,929,1045
8397,930,1044
8398,928,1047
8399,926,1051
8400,923,1052
8401,924,1057
8402,925,1059
8403,921,1061
8404,920,1063
8405,921,1062
8406,914,1065
8407,914,1061
8408,909,1064
8409,906,1065
8410,907,1068
8411,905,1071
8412,901,1076
8413,900,1079
8414,897,1079
8415,894,1078
8416,890,1078
8417,887,1079
8418,885,1080
8419,879,1082
8420,876,1082
8421,874,1085
8422,873,1086
8423,872,1086
8424,870,1088
8425,871,1090
8426,870,1091
8427,869,1093
8428,869,1092
8429,869,1092
8430,870,1090
8431,870,1088
8432,872,1085
8433,876,1083
8434,878,1083
8435,883,1083
8436,889,1081
8437,896,1078
8438,903,1078
8439,909,1071
8440,918,1068
8441,920,1062
8442,927,1058
8443,932,1050
8444,937,1044
8445,942,1043
8446,950,1038
8447,957,1039
8448,964,1037
8449,968,1033
8450,973,1030
8451,977,1027
8452,980,1023
8453,980,1019
8454,980,1015
8455,983,1014
8456,984,1009
8457,984,1012
8458,985,1013
8459,988,1014
8460,990,1014
8461,990,1014
8462,993,1011
8463,993,1012
8464,991,1009
8465,990,1010
8466,991,1012
8467,991,1009
8468,990,1009
8469,990,1008
8470,989,1008
8471,990,1008
8472,993,1011
8473,995,1011
8474,995,1015
8475,995,1014
8476,996,1015
8477,995,1012
8478,995,1013
8479,993,1012
8480,991,1010
8481,993,1010
8482,992,1011
8483,995,1013
8484,996,1013
8485,997,1017
8486,997,1019
8487,999,1019
8488,999,1019
8489,1000,1016
8490,1002,1017
8491,1002,1022
8492,1004,1023
8493,1006,1028
8494,1011,1036
8495,1018,1042
8496,1021,1051
8497,1026,1051
8498,1027,1050
8499,1030,1052
8500,1033,1049
8501,1032,1047
8502,1035,1044
8503,1038,1042
8504,1042,1038
8505,1052,1032
8506,1058,1027
8507,1062,1023
8508,1060,1017
8509,1055,1016
8510,1052,1011
8511,1049,1011
8512,1049,1011
8513,1048,1013
8514,1050,1007
8515,1050,1004
8516,1048,1000
8517,1044,993
8518,1037,992
8519,1029,992
8520,1026,995
8521,1020,1001
8522,1016,1006
8523,1008,1011
8524,1007,1011
8525,1002,1010
8526,998,1007
8527,994,1004
8528,990,1004
8529,990,1003
8530,988,1002
8531,989,1004
8532,991,1004
8533,991,1007
8534,995,1010
8535,994,1006
8536,994,1005
8537,992,1000
8538,994,999
8539,992,997
8540,993,999
8541,993,1004
8542,995,1009
8543,995,1020
8544,1005,1030
8545,1018,1041
8546,1039,1043
8547,1067,1039
8548,1102,1025
8549,1143,997
8550,1179,962
8551,1215,918
8552,1248,865
8553,1281,797
8554,1310,722
8555,1335,650
8556,1351,588
8557,1358,554
8558,1355,542
8559,1339,555
8560,1315,578
8561,1276,607
8562,1221,643
8563,1161,687
8564,1102,735
8565,1058,788
8566,1023,832
8567,1002,870
8568,995,897
8569,993,916
8570,997,930
8571,996,943
8572,993,954
8573,985,969
8574,978,981
8575,970,991
8576,966,999
8577,964,1005
8578,965,1009
8579,965,1011
8580,967,1013
8581,969,1018
8582,968,1020
8583,967,1023
8584,968,1021
8585,965,1023
8586,965,1022
8587,964,1022
8588,962,1024
8589,961,1025
8590,961,1028
8591,961,1031
8592,961,1034
8593,964,1037
8594,965,1037
8595,965,1039
8596,965,1040
8597,962,1040
8598,962,1042
8599,960,1041
